Data stamp = , 01-04-2022 17:07:58 358

Calibration Values: 
Slope = , 26.54 , g/V 
Offset Voltage at no contact = , -0.501760 , V 

No , Time , Stage Position ,   Mass , Force 
   ,  (s) ,      (mm)      ,   (g)  , (mN)  

1 ,0.0000 ,0.64960 ,4.99052 ,48.96701 
2 ,0.2138 ,0.64968 ,4.97683 ,48.83269 
3 ,0.5343 ,0.65051 ,5.00763 ,49.13490 
4 ,0.7263 ,0.65195 ,4.99052 ,48.96701 
5 ,0.9023 ,0.65339 ,4.99737 ,49.03416 
6 ,1.0944 ,0.65524 ,4.98710 ,48.93343 
7 ,1.2708 ,0.65702 ,5.01106 ,49.16848 
8 ,1.4464 ,0.65877 ,5.02474 ,49.30279 
9 ,1.6223 ,0.66062 ,4.99737 ,49.03416 
10 ,1.7984 ,0.66234 ,4.97341 ,48.79911 
11 ,1.9750 ,0.66409 ,4.99737 ,49.03416 
12 ,2.1510 ,0.66586 ,4.98710 ,48.93343 
13 ,2.3272 ,0.66759 ,4.99052 ,48.96701 
14 ,2.5032 ,0.66935 ,4.98026 ,48.86627 
15 ,2.6791 ,0.67113 ,4.95288 ,48.59764 
16 ,2.8552 ,0.67287 ,4.95972 ,48.66480 
17 ,3.0315 ,0.67464 ,4.95630 ,48.63122 
18 ,3.2075 ,0.67644 ,4.94261 ,48.49691 
19 ,3.4156 ,0.67848 ,4.92208 ,48.29544 
20 ,3.5917 ,0.68026 ,4.91866 ,48.26186 
21 ,3.7838 ,0.68217 ,4.89128 ,47.99324 
22 ,3.9596 ,0.68397 ,4.86732 ,47.75819 
23 ,4.1358 ,0.68565 ,4.85706 ,47.65745 
24 ,4.3118 ,0.68740 ,4.86048 ,47.69103 
25 ,4.4883 ,0.68919 ,4.85706 ,47.65745 
26 ,4.6639 ,0.69098 ,4.82968 ,47.38883 
27 ,4.8562 ,0.69292 ,4.80230 ,47.12020 
28 ,5.0483 ,0.69480 ,4.80915 ,47.18736 
29 ,5.2243 ,0.69658 ,4.79546 ,47.05304 
30 ,5.4005 ,0.69837 ,4.76466 ,46.75084 
31 ,5.5922 ,0.70021 ,4.74755 ,46.58295 
32 ,5.7682 ,0.70202 ,4.72359 ,46.34790 
33 ,5.9447 ,0.70378 ,4.72359 ,46.34790 
34 ,6.1367 ,0.70569 ,4.68253 ,45.94496 
35 ,6.2969 ,0.70737 ,4.67568 ,45.87780 
36 ,6.4889 ,0.70912 ,4.66199 ,45.74349 
37 ,6.6646 ,0.71107 ,4.64831 ,45.60918 
38 ,6.8411 ,0.71269 ,4.63462 ,45.47486 
39 ,7.0329 ,0.71454 ,4.61408 ,45.27339 
40 ,7.2090 ,0.71642 ,4.59355 ,45.07192 
41 ,7.4011 ,0.71831 ,4.57986 ,44.93761 
42 ,7.5934 ,0.72024 ,4.54564 ,44.60183 
43 ,7.7854 ,0.72216 ,4.53537 ,44.50109 
44 ,7.9615 ,0.72394 ,4.52853 ,44.43394 
45 ,8.1375 ,0.72573 ,4.49089 ,44.06457 
46 ,8.3137 ,0.72745 ,4.46009 ,43.76237 
47 ,8.4896 ,0.72920 ,4.45666 ,43.72879 
48 ,8.6657 ,0.73096 ,4.44298 ,43.59448 
49 ,8.8575 ,0.73284 ,4.42929 ,43.46016 
50 ,9.0500 ,0.73475 ,4.40875 ,43.25870 
51 ,9.2420 ,0.73672 ,4.39507 ,43.12438 
52 ,9.4182 ,0.73849 ,4.38480 ,43.02365 
53 ,9.5941 ,0.74028 ,4.36427 ,42.82218 
54 ,9.7701 ,0.74198 ,4.34716 ,42.65429 
55 ,9.9624 ,0.74391 ,4.32662 ,42.45282 
56 ,10.1545 ,0.74579 ,4.29240 ,42.11703 
57 ,10.3785 ,0.74793 ,4.28898 ,42.08345 
58 ,10.5546 ,0.74987 ,4.25818 ,41.78125 
59 ,10.7627 ,0.75184 ,4.24791 ,41.68051 
60 ,10.9226 ,0.75367 ,4.25133 ,41.71409 
61 ,11.0988 ,0.75526 ,4.22738 ,41.47905 
62 ,11.2747 ,0.75707 ,4.21027 ,41.31115 
63 ,11.4509 ,0.75880 ,4.17262 ,40.94179 
64 ,11.6271 ,0.76060 ,4.15209 ,40.74032 
65 ,11.8189 ,0.76246 ,4.16578 ,40.87464 
66 ,11.9951 ,0.76424 ,4.14525 ,40.67317 
67 ,12.1871 ,0.76616 ,4.10076 ,40.23665 
68 ,12.3633 ,0.76791 ,4.09734 ,40.20307 
69 ,12.5553 ,0.76991 ,4.08365 ,40.06876 
70 ,12.7474 ,0.77170 ,4.05285 ,39.76655 
71 ,12.9074 ,0.77350 ,4.02889 ,39.53150 
72 ,13.0836 ,0.77516 ,4.00494 ,39.29646 
73 ,13.2756 ,0.77702 ,4.00836 ,39.33003 
74 ,13.4678 ,0.77898 ,3.97072 ,38.96067 
75 ,13.6437 ,0.78078 ,3.96729 ,38.92709 
76 ,13.8198 ,0.78249 ,3.95018 ,38.75920 
77 ,13.9956 ,0.78421 ,3.93650 ,38.62489 
78 ,14.1718 ,0.78602 ,3.92281 ,38.49058 
79 ,14.3638 ,0.78784 ,3.89543 ,38.22195 
80 ,14.5401 ,0.78966 ,3.88516 ,38.12122 
81 ,14.7162 ,0.79139 ,3.87147 ,37.98690 
82 ,14.9083 ,0.79325 ,3.86121 ,37.88617 
83 ,15.0840 ,0.79511 ,3.82014 ,37.48323 
84 ,15.2604 ,0.79690 ,3.81330 ,37.41607 
85 ,15.4525 ,0.79881 ,3.80303 ,37.31534 
86 ,15.6286 ,0.80061 ,3.77908 ,37.08029 
87 ,15.8204 ,0.80247 ,3.75512 ,36.84524 
88 ,16.0128 ,0.80443 ,3.74828 ,36.77808 
89 ,16.1887 ,0.80616 ,3.73801 ,36.67735 
90 ,16.3648 ,0.80794 ,3.69010 ,36.20725 
91 ,16.5409 ,0.80967 ,3.69010 ,36.20725 
92 ,16.7492 ,0.81168 ,3.67983 ,36.10652 
93 ,16.9410 ,0.81368 ,3.65588 ,35.87147 
94 ,17.1172 ,0.81549 ,3.64219 ,35.73716 
95 ,17.3253 ,0.81746 ,3.60454 ,35.36779 
96 ,17.5174 ,0.81947 ,3.59428 ,35.26706 
97 ,17.6935 ,0.82125 ,3.59086 ,35.23348 
98 ,17.8854 ,0.82311 ,3.54979 ,34.83054 
99 ,18.0615 ,0.82490 ,3.53610 ,34.69623 
100 ,18.2371 ,0.82670 ,3.52241 ,34.56192 
101 ,18.4136 ,0.82842 ,3.51557 ,34.49476 
102 ,18.6055 ,0.83033 ,3.48477 ,34.19255 
103 ,18.7818 ,0.83207 ,3.46081 ,33.95751 
104 ,18.9738 ,0.83397 ,3.45397 ,33.89035 
105 ,19.1500 ,0.83575 ,3.44370 ,33.78961 
106 ,19.3260 ,0.83751 ,3.42317 ,33.58814 
107 ,19.5021 ,0.83926 ,3.39579 ,33.31952 
108 ,19.7102 ,0.84130 ,3.38553 ,33.21878 
109 ,19.8865 ,0.84315 ,3.36499 ,33.01731 
110 ,20.0783 ,0.84508 ,3.34446 ,32.81584 
111 ,20.2383 ,0.84677 ,3.33762 ,32.74869 
112 ,20.3984 ,0.84836 ,3.32051 ,32.58080 
113 ,20.5747 ,0.85005 ,3.30682 ,32.44648 
114 ,20.7666 ,0.85187 ,3.29655 ,32.34575 
115 ,20.9588 ,0.85378 ,3.26917 ,32.07712 
116 ,21.1668 ,0.85591 ,3.25206 ,31.90923 
117 ,21.3589 ,0.85773 ,3.23837 ,31.77492 
118 ,21.5349 ,0.85959 ,3.21442 ,31.53987 
119 ,21.7109 ,0.86139 ,3.21100 ,31.50629 
120 ,21.8873 ,0.86316 ,3.19731 ,31.37198 
121 ,22.0791 ,0.86513 ,3.16309 ,31.03619 
122 ,22.2713 ,0.86694 ,3.15282 ,30.93546 
123 ,22.4469 ,0.86872 ,3.14597 ,30.86830 
124 ,22.6234 ,0.87051 ,3.12202 ,30.63325 
125 ,22.8153 ,0.87243 ,3.09122 ,30.33105 
126 ,22.9918 ,0.87414 ,3.08095 ,30.23031 
127 ,23.1675 ,0.87593 ,3.07069 ,30.12958 
128 ,23.3437 ,0.87768 ,3.06042 ,30.02884 
129 ,23.5033 ,0.87942 ,3.04331 ,29.86095 
130 ,23.6798 ,0.88109 ,3.02620 ,29.69306 
131 ,23.8558 ,0.88286 ,3.01251 ,29.55875 
132 ,24.0320 ,0.88459 ,2.98171 ,29.25654 
133 ,24.2080 ,0.88631 ,2.97144 ,29.15581 
134 ,24.3839 ,0.88807 ,2.96118 ,29.05507 
135 ,24.5598 ,0.88981 ,2.93722 ,28.82003 
136 ,24.7363 ,0.89162 ,2.92011 ,28.65213 
137 ,24.9123 ,0.89334 ,2.90642 ,28.51782 
138 ,25.1044 ,0.89523 ,2.89958 ,28.45066 
139 ,25.2961 ,0.89720 ,2.86193 ,28.08130 
140 ,25.4722 ,0.89893 ,2.85167 ,27.98057 
141 ,25.6323 ,0.90065 ,2.85167 ,27.98057 
142 ,25.8087 ,0.90234 ,2.82087 ,27.67836 
143 ,26.0166 ,0.90433 ,2.80034 ,27.47689 
144 ,26.1930 ,0.90618 ,2.80034 ,27.47689 
145 ,26.3690 ,0.90793 ,2.76954 ,27.17469 
146 ,26.5770 ,0.90997 ,2.75927 ,27.07395 
147 ,26.7531 ,0.91173 ,2.73189 ,26.80533 
148 ,26.9452 ,0.91368 ,2.73189 ,26.80533 
149 ,27.1213 ,0.91548 ,2.70794 ,26.57028 
150 ,27.2971 ,0.91721 ,2.70794 ,26.57028 
151 ,27.4733 ,0.91899 ,2.67029 ,26.20092 
152 ,27.6655 ,0.92091 ,2.67029 ,26.20092 
153 ,27.8414 ,0.92266 ,2.66345 ,26.13376 
154 ,28.0336 ,0.92453 ,2.61896 ,25.69724 
155 ,28.2097 ,0.92636 ,2.61212 ,25.63009 
156 ,28.3860 ,0.92808 ,2.59843 ,25.49577 
157 ,28.5619 ,0.92985 ,2.59501 ,25.46220 
158 ,28.7375 ,0.93163 ,2.58132 ,25.32788 
159 ,28.9141 ,0.93336 ,2.55736 ,25.09283 
160 ,29.1059 ,0.93523 ,2.54710 ,24.99210 
161 ,29.2823 ,0.93708 ,2.51972 ,24.72347 
162 ,29.4742 ,0.93896 ,2.49918 ,24.52200 
163 ,29.6660 ,0.94090 ,2.48207 ,24.35411 
164 ,29.8420 ,0.94267 ,2.46839 ,24.21980 
165 ,30.0346 ,0.94451 ,2.44785 ,24.01833 
166 ,30.2266 ,0.94648 ,2.42390 ,23.78328 
167 ,30.4023 ,0.94830 ,2.42732 ,23.81686 
168 ,30.5947 ,0.95012 ,2.41021 ,23.64897 
169 ,30.7708 ,0.95197 ,2.39310 ,23.48108 
170 ,30.9625 ,0.95381 ,2.36230 ,23.17887 
171 ,31.1388 ,0.95557 ,2.36572 ,23.21245 
172 ,31.3150 ,0.95737 ,2.34519 ,23.01098 
173 ,31.5070 ,0.95928 ,2.32123 ,22.77593 
174 ,31.6831 ,0.96110 ,2.30412 ,22.60804 
175 ,31.8592 ,0.96279 ,2.29728 ,22.54088 
176 ,32.0353 ,0.96452 ,2.28359 ,22.40657 
177 ,32.2114 ,0.96635 ,2.26990 ,22.27226 
178 ,32.4035 ,0.96825 ,2.24937 ,22.07079 
179 ,32.5796 ,0.97005 ,2.23568 ,21.93647 
180 ,32.7715 ,0.97193 ,2.21857 ,21.76858 
181 ,32.9476 ,0.97365 ,2.18777 ,21.46638 
182 ,33.1398 ,0.97563 ,2.18435 ,21.43280 
183 ,33.3319 ,0.97750 ,2.17066 ,21.29849 
184 ,33.5078 ,0.97927 ,2.15012 ,21.09702 
185 ,33.7000 ,0.98118 ,2.14328 ,21.02986 
186 ,33.8760 ,0.98298 ,2.12959 ,20.89555 
187 ,34.0517 ,0.98467 ,2.10906 ,20.69408 
188 ,34.2281 ,0.98650 ,2.09195 ,20.52619 
189 ,34.4042 ,0.98821 ,2.07484 ,20.35829 
190 ,34.5803 ,0.99006 ,2.05430 ,20.15682 
191 ,34.7563 ,0.99181 ,2.05088 ,20.12325 
192 ,34.9323 ,0.99348 ,2.04404 ,20.05609 
193 ,35.1242 ,0.99545 ,2.02008 ,19.82104 
194 ,35.3006 ,0.99723 ,1.99270 ,19.55241 
195 ,35.4767 ,0.99901 ,1.99613 ,19.58599 
196 ,35.6528 ,1.00073 ,1.98586 ,19.48526 
197 ,35.8285 ,1.00251 ,1.95848 ,19.21663 
198 ,36.0048 ,1.00429 ,1.94137 ,19.04874 
199 ,36.1966 ,1.00614 ,1.93453 ,18.98158 
200 ,36.3729 ,1.00791 ,1.93111 ,18.94801 
201 ,36.5650 ,1.00984 ,1.89004 ,18.54507 
202 ,36.7410 ,1.01157 ,1.87977 ,18.44433 
203 ,36.9170 ,1.01335 ,1.87635 ,18.41075 
204 ,37.1092 ,1.01525 ,1.86266 ,18.27644 
205 ,37.2849 ,1.01704 ,1.82844 ,17.94066 
206 ,37.4614 ,1.01883 ,1.81817 ,17.83992 
207 ,37.6375 ,1.02058 ,1.79764 ,17.63845 
208 ,37.8295 ,1.02246 ,1.80791 ,17.73919 
209 ,38.0056 ,1.02427 ,1.78053 ,17.47056 
210 ,38.1976 ,1.02618 ,1.76342 ,17.30267 
211 ,38.3734 ,1.02791 ,1.75315 ,17.20193 
212 ,38.5497 ,1.02965 ,1.73946 ,17.06762 
213 ,38.7257 ,1.03148 ,1.73604 ,17.03404 
214 ,38.9019 ,1.03320 ,1.70524 ,16.73184 
215 ,39.0942 ,1.03520 ,1.69155 ,16.59752 
216 ,39.2697 ,1.03688 ,1.68813 ,16.56395 
217 ,39.4460 ,1.03863 ,1.67444 ,16.42963 
218 ,39.6222 ,1.04037 ,1.64707 ,16.16101 
219 ,39.7982 ,1.04215 ,1.63680 ,16.06027 
220 ,39.9742 ,1.04393 ,1.64022 ,16.09385 
221 ,40.1665 ,1.04581 ,1.62311 ,15.92596 
222 ,40.3426 ,1.04763 ,1.59231 ,15.62375 
223 ,40.5344 ,1.04953 ,1.57520 ,15.45586 
224 ,40.7108 ,1.05128 ,1.58889 ,15.59018 
225 ,40.9027 ,1.05320 ,1.55809 ,15.28797 
226 ,41.0789 ,1.05498 ,1.54098 ,15.12008 
227 ,41.2709 ,1.05692 ,1.53071 ,15.01934 
228 ,41.4631 ,1.05877 ,1.51360 ,14.85145 
229 ,41.6552 ,1.06068 ,1.49649 ,14.68356 
230 ,41.8470 ,1.06265 ,1.48965 ,14.61640 
231 ,42.0393 ,1.06447 ,1.47596 ,14.48209 
232 ,42.2314 ,1.06654 ,1.46227 ,14.34778 
233 ,42.4235 ,1.06848 ,1.43831 ,14.11273 
234 ,42.6155 ,1.07031 ,1.42462 ,13.97842 
235 ,42.8076 ,1.07227 ,1.41778 ,13.91126 
236 ,42.9839 ,1.07406 ,1.40751 ,13.81053 
237 ,43.1757 ,1.07591 ,1.36645 ,13.40759 
238 ,43.3358 ,1.07763 ,1.36987 ,13.44116 
239 ,43.5597 ,1.07961 ,1.36645 ,13.40759 
240 ,43.7359 ,1.08152 ,1.33907 ,13.13896 
241 ,43.9119 ,1.08328 ,1.32196 ,12.97107 
242 ,44.0877 ,1.08505 ,1.31512 ,12.90391 
243 ,44.2640 ,1.08677 ,1.31512 ,12.90391 
244 ,44.4402 ,1.08856 ,1.28774 ,12.63528 
245 ,44.6163 ,1.09031 ,1.27405 ,12.50097 
246 ,44.8084 ,1.09226 ,1.25352 ,12.29950 
247 ,45.0004 ,1.09416 ,1.26720 ,12.43381 
248 ,45.1765 ,1.09598 ,1.23298 ,12.09803 
249 ,45.3526 ,1.09767 ,1.21929 ,11.96372 
250 ,45.5287 ,1.09949 ,1.19876 ,11.76225 
251 ,45.7046 ,1.10123 ,1.20561 ,11.82941 
252 ,45.8965 ,1.10312 ,1.18165 ,11.59436 
253 ,46.0725 ,1.10496 ,1.17481 ,11.52720 
254 ,46.2650 ,1.10675 ,1.15427 ,11.32573 
255 ,46.4570 ,1.10872 ,1.15427 ,11.32573 
256 ,46.6329 ,1.11053 ,1.12690 ,11.05710 
257 ,46.8088 ,1.11226 ,1.10636 ,10.85563 
258 ,46.9853 ,1.11401 ,1.10294 ,10.82206 
259 ,47.1612 ,1.11579 ,1.10979 ,10.88921 
260 ,47.3535 ,1.11770 ,1.07556 ,10.55343 
261 ,47.5293 ,1.11942 ,1.05161 ,10.31838 
262 ,47.7056 ,1.12122 ,1.06187 ,10.41912 
263 ,47.8812 ,1.12300 ,1.04819 ,10.28480 
264 ,48.0577 ,1.12477 ,1.03450 ,10.15049 
265 ,48.2338 ,1.12652 ,1.01739 ,9.98260 
266 ,48.4099 ,1.12825 ,0.99685 ,9.78113 
267 ,48.6179 ,1.13028 ,0.99001 ,9.71397 
268 ,48.7941 ,1.13205 ,0.96948 ,9.51250 
269 ,48.9697 ,1.13385 ,0.94894 ,9.31103 
270 ,49.1300 ,1.13555 ,0.95921 ,9.41177 
271 ,49.3062 ,1.13723 ,0.92499 ,9.07598 
272 ,49.4820 ,1.13902 ,0.92841 ,9.10956 
273 ,49.6584 ,1.14071 ,0.92499 ,9.07598 
274 ,49.8345 ,1.14249 ,0.90103 ,8.84094 
275 ,50.0425 ,1.14453 ,0.89419 ,8.77378 
276 ,50.2185 ,1.14632 ,0.88392 ,8.67305 
277 ,50.3949 ,1.14807 ,0.86339 ,8.47158 
278 ,50.5708 ,1.14987 ,0.82917 ,8.13579 
279 ,50.7468 ,1.15163 ,0.83259 ,8.16937 
280 ,50.9710 ,1.15360 ,0.81890 ,8.03506 
281 ,51.1792 ,1.15589 ,0.80521 ,7.90074 
282 ,51.3871 ,1.15796 ,0.78810 ,7.73285 
283 ,51.5792 ,1.15984 ,0.78126 ,7.66570 
284 ,51.7549 ,1.16170 ,0.77099 ,7.56496 
285 ,51.9473 ,1.16349 ,0.75388 ,7.39707 
286 ,52.1234 ,1.16533 ,0.72650 ,7.12844 
287 ,52.2995 ,1.16709 ,0.72650 ,7.12844 
288 ,52.4755 ,1.16893 ,0.71624 ,7.02771 
289 ,52.6516 ,1.17062 ,0.69570 ,6.82624 
290 ,52.8277 ,1.17244 ,0.67859 ,6.65835 
291 ,53.0197 ,1.17440 ,0.66833 ,6.55761 
292 ,53.1958 ,1.17607 ,0.66148 ,6.49046 
293 ,53.3719 ,1.17787 ,0.65464 ,6.42330 
294 ,53.5478 ,1.17964 ,0.62726 ,6.15467 
295 ,53.7239 ,1.18141 ,0.62042 ,6.08752 
296 ,53.9000 ,1.18313 ,0.60673 ,5.95320 
297 ,54.0921 ,1.18505 ,0.60330 ,5.91962 
298 ,54.2680 ,1.18677 ,0.57593 ,5.65100 
299 ,54.4604 ,1.18872 ,0.58277 ,5.71815 
300 ,54.6365 ,1.19049 ,0.56566 ,5.55026 
301 ,54.8445 ,1.19248 ,0.53828 ,5.28164 
302 ,55.0045 ,1.19431 ,0.54513 ,5.34879 
303 ,55.1965 ,1.19604 ,0.53144 ,5.21448 
304 ,55.3889 ,1.19795 ,0.51091 ,5.01301 
305 ,55.5807 ,1.19987 ,0.47668 ,4.67723 
306 ,55.7569 ,1.20170 ,0.49380 ,4.84512 
307 ,55.9810 ,1.20377 ,0.46984 ,4.61007 
308 ,56.1730 ,1.20588 ,0.47668 ,4.67723 
309 ,56.3492 ,1.20759 ,0.45615 ,4.47576 
310 ,56.5412 ,1.20952 ,0.43220 ,4.24071 
311 ,56.7329 ,1.21146 ,0.43562 ,4.27429 
312 ,56.9093 ,1.21320 ,0.42193 ,4.13997 
313 ,57.1014 ,1.21519 ,0.39113 ,3.83777 
314 ,57.2937 ,1.21707 ,0.40140 ,3.93850 
315 ,57.4859 ,1.21892 ,0.36033 ,3.53557 
316 ,57.6777 ,1.22089 ,0.35006 ,3.43483 
317 ,57.8538 ,1.22270 ,0.35691 ,3.50199 
318 ,58.0298 ,1.22442 ,0.33638 ,3.30052 
319 ,58.2380 ,1.22645 ,0.32269 ,3.16620 
320 ,58.3976 ,1.22819 ,0.32269 ,3.16620 
321 ,58.5740 ,1.22989 ,0.31242 ,3.06547 
322 ,58.7662 ,1.23178 ,0.29189 ,2.86400 
323 ,58.9422 ,1.23360 ,0.28162 ,2.76326 
324 ,59.1178 ,1.23529 ,0.27820 ,2.72969 
325 ,59.2940 ,1.23704 ,0.27478 ,2.69611 
326 ,59.4699 ,1.23882 ,0.25767 ,2.52822 
327 ,59.6462 ,1.24056 ,0.23371 ,2.29317 
328 ,59.8383 ,1.24249 ,0.22687 ,2.22601 
329 ,60.0144 ,1.24426 ,0.22002 ,2.15885 
330 ,60.1905 ,1.24601 ,0.22002 ,2.15885 
331 ,60.3665 ,1.24780 ,0.20976 ,2.05812 
332 ,60.5425 ,1.24950 ,0.17896 ,1.75592 
333 ,60.7189 ,1.25133 ,0.16185 ,1.58802 
334 ,60.9109 ,1.25321 ,0.18238 ,1.78949 
335 ,61.0871 ,1.25497 ,0.15500 ,1.52087 
336 ,61.2790 ,1.25688 ,0.12420 ,1.21866 
337 ,61.4548 ,1.25864 ,0.13105 ,1.28582 
338 ,61.6309 ,1.26054 ,0.11051 ,1.08435 
339 ,61.8070 ,1.26216 ,0.11051 ,1.08435 
340 ,61.9829 ,1.26392 ,0.08998 ,0.88288 
341 ,62.1594 ,1.26567 ,0.07971 ,0.78214 
342 ,62.3515 ,1.26764 ,0.07287 ,0.71499 
343 ,62.5437 ,1.26952 ,0.05234 ,0.51352 
344 ,62.7196 ,1.27129 ,0.03180 ,0.31205 
345 ,62.9116 ,1.27316 ,0.05234 ,0.51352 
346 ,63.0878 ,1.27498 ,0.02838 ,0.27847 
347 ,63.2639 ,1.27670 ,0.01127 ,0.11058 
348 ,63.4399 ,1.27847 ,-0.00584 ,-0.05731 
349 ,63.6161 ,1.28024 ,-0.01269 ,-0.12447 
350 ,63.8081 ,1.28217 ,-0.00242 ,-0.02373 
351 ,64.0001 ,1.28414 ,-0.01953 ,-0.19163 
352 ,64.1764 ,1.28581 ,-0.05375 ,-0.52741 
353 ,64.3526 ,1.28763 ,-0.05033 ,-0.49383 
354 ,64.5282 ,1.28940 ,-0.05375 ,-0.52741 
355 ,64.7204 ,1.29131 ,-0.07771 ,-0.76246 
356 ,64.8965 ,1.29303 ,-0.09482 ,-0.93035 
357 ,65.0726 ,1.29481 ,-0.09824 ,-0.96393 
358 ,65.2326 ,1.29653 ,-0.09482 ,-0.93035 
359 ,65.4088 ,1.29814 ,-0.11193 ,-1.09824 
360 ,65.6329 ,1.30030 ,-0.13588 ,-1.33329 
361 ,65.8086 ,1.30218 ,-0.12219 ,-1.19898 
362 ,65.9850 ,1.30393 ,-0.13246 ,-1.29971 
363 ,66.1770 ,1.30587 ,-0.16326 ,-1.60191 
364 ,66.3531 ,1.30773 ,-0.16668 ,-1.63549 
365 ,66.5292 ,1.30935 ,-0.17695 ,-1.73623 
366 ,66.7212 ,1.31130 ,-0.19406 ,-1.90412 
367 ,66.8973 ,1.31305 ,-0.20090 ,-1.97128 
368 ,67.0735 ,1.31480 ,-0.20775 ,-2.03843 
369 ,67.2655 ,1.31667 ,-0.20775 ,-2.03843 
370 ,67.4415 ,1.31843 ,-0.23170 ,-2.27348 
371 ,67.6175 ,1.32024 ,-0.23855 ,-2.34064 
372 ,67.7937 ,1.32203 ,-0.24539 ,-2.40779 
373 ,67.9693 ,1.32372 ,-0.24197 ,-2.37422 
374 ,68.1458 ,1.32552 ,-0.25566 ,-2.50853 
375 ,68.3218 ,1.32725 ,-0.26935 ,-2.64284 
376 ,68.4980 ,1.32909 ,-0.27961 ,-2.74358 
377 ,68.7380 ,1.33120 ,-0.29330 ,-2.87789 
378 ,68.9141 ,1.33318 ,-0.31384 ,-3.07936 
379 ,69.1222 ,1.33522 ,-0.31726 ,-3.11294 
380 ,69.3143 ,1.33718 ,-0.32068 ,-3.14652 
381 ,69.5063 ,1.33906 ,-0.33095 ,-3.24725 
382 ,69.6984 ,1.34104 ,-0.35148 ,-3.44872 
383 ,69.8745 ,1.34283 ,-0.34806 ,-3.41514 
384 ,70.0662 ,1.34467 ,-0.36175 ,-3.54946 
385 ,70.2426 ,1.34650 ,-0.35148 ,-3.44872 
386 ,70.4027 ,1.34821 ,-0.37886 ,-3.71735 
387 ,70.6109 ,1.35005 ,-0.39255 ,-3.85166 
388 ,70.8028 ,1.35207 ,-0.38912 ,-3.81808 
389 ,70.9790 ,1.35388 ,-0.40623 ,-3.98597 
390 ,71.1550 ,1.35566 ,-0.42335 ,-4.15387 
391 ,71.3312 ,1.35738 ,-0.43019 ,-4.22102 
392 ,71.5232 ,1.35926 ,-0.41650 ,-4.08671 
393 ,71.6991 ,1.36104 ,-0.44730 ,-4.38891 
394 ,71.8753 ,1.36281 ,-0.45414 ,-4.45607 
395 ,72.0675 ,1.36465 ,-0.46783 ,-4.59038 
396 ,72.2592 ,1.36658 ,-0.47468 ,-4.65754 
397 ,72.4675 ,1.36867 ,-0.47468 ,-4.65754 
398 ,72.6436 ,1.37051 ,-0.47810 ,-4.69112 
399 ,72.8357 ,1.37242 ,-0.48837 ,-4.79185 
400 ,73.0115 ,1.37417 ,-0.50890 ,-4.99332 
401 ,73.1878 ,1.37596 ,-0.51574 ,-5.06048 
402 ,73.3798 ,1.37780 ,-0.50890 ,-4.99332 
403 ,73.5721 ,1.37980 ,-0.53628 ,-5.26195 
404 ,73.7482 ,1.38156 ,-0.54654 ,-5.36268 
405 ,73.9403 ,1.38342 ,-0.54312 ,-5.32911 
406 ,74.1162 ,1.38526 ,-0.55681 ,-5.46342 
407 ,74.2920 ,1.38707 ,-0.56365 ,-5.53058 
408 ,74.4684 ,1.38874 ,-0.56708 ,-5.56415 
409 ,74.6444 ,1.39051 ,-0.58761 ,-5.76562 
410 ,74.8366 ,1.39232 ,-0.57734 ,-5.66489 
411 ,75.0125 ,1.39428 ,-0.61156 ,-6.00067 
412 ,75.1888 ,1.39597 ,-0.60814 ,-5.96709 
413 ,75.3646 ,1.39778 ,-0.60472 ,-5.93352 
414 ,75.5407 ,1.39941 ,-0.61156 ,-6.00067 
415 ,75.7328 ,1.40137 ,-0.63210 ,-6.20214 
416 ,75.9410 ,1.40335 ,-0.63894 ,-6.26930 
417 ,76.1167 ,1.40517 ,-0.63894 ,-6.26930 
418 ,76.2929 ,1.40701 ,-0.65605 ,-6.43719 
419 ,76.4690 ,1.40871 ,-0.66632 ,-6.53793 
420 ,76.6611 ,1.41061 ,-0.66290 ,-6.50435 
421 ,76.8368 ,1.41243 ,-0.67316 ,-6.60508 
422 ,77.0131 ,1.41414 ,-0.69712 ,-6.84013 
423 ,77.1895 ,1.41597 ,-0.69712 ,-6.84013 
424 ,77.3816 ,1.41784 ,-0.69370 ,-6.80655 
425 ,77.5736 ,1.41978 ,-0.69370 ,-6.80655 
426 ,77.7496 ,1.42154 ,-0.71765 ,-7.04160 
427 ,77.9417 ,1.42342 ,-0.71081 ,-6.97444 
428 ,78.1179 ,1.42524 ,-0.70396 ,-6.90729 
429 ,78.2938 ,1.42701 ,-0.72792 ,-7.14233 
430 ,78.4698 ,1.42873 ,-0.74845 ,-7.34380 
431 ,78.6620 ,1.43061 ,-0.74845 ,-7.34380 
432 ,78.8382 ,1.43246 ,-0.75530 ,-7.41096 
433 ,79.0138 ,1.43419 ,-0.77241 ,-7.57885 
434 ,79.1901 ,1.43593 ,-0.78610 ,-7.71317 
435 ,79.3825 ,1.43788 ,-0.77925 ,-7.64601 
436 ,79.5582 ,1.43963 ,-0.78610 ,-7.71317 
437 ,79.7503 ,1.44148 ,-0.81347 ,-7.98179 
438 ,79.9425 ,1.44348 ,-0.81005 ,-7.94821 
439 ,80.1187 ,1.44523 ,-0.81005 ,-7.94821 
440 ,80.3107 ,1.44713 ,-0.83058 ,-8.14968 
441 ,80.4867 ,1.44890 ,-0.84769 ,-8.31758 
442 ,80.6625 ,1.45069 ,-0.85796 ,-8.41831 
443 ,80.8389 ,1.45238 ,-0.85454 ,-8.38473 
444 ,81.0150 ,1.45417 ,-0.84769 ,-8.31758 
445 ,81.1910 ,1.45592 ,-0.86138 ,-8.45189 
446 ,81.3670 ,1.45766 ,-0.88534 ,-8.68694 
447 ,81.5433 ,1.45942 ,-0.87849 ,-8.61978 
448 ,81.7351 ,1.46132 ,-0.87849 ,-8.61978 
449 ,81.9269 ,1.46336 ,-0.90245 ,-8.85483 
450 ,82.1033 ,1.46503 ,-0.91614 ,-8.98914 
451 ,82.2793 ,1.46677 ,-0.91272 ,-8.95556 
452 ,82.4555 ,1.46856 ,-0.91272 ,-8.95556 
453 ,82.6315 ,1.47032 ,-0.92298 ,-9.05630 
454 ,82.8077 ,1.47204 ,-0.94694 ,-9.29135 
455 ,82.9838 ,1.47387 ,-0.96747 ,-9.49282 
456 ,83.1758 ,1.47576 ,-0.95378 ,-9.35850 
457 ,83.3518 ,1.47750 ,-0.96063 ,-9.42566 
458 ,83.5280 ,1.47930 ,-0.97089 ,-9.52639 
459 ,83.7041 ,1.48110 ,-0.99143 ,-9.72786 
460 ,83.8961 ,1.48298 ,-0.97089 ,-9.52639 
461 ,84.0721 ,1.48477 ,-0.98458 ,-9.66071 
462 ,84.2643 ,1.48653 ,-0.98800 ,-9.69429 
