Data stamp = , 02-04-2022 07:15:04 043

Calibration Values: 
Slope = , 26.54 , g/V 
Offset Voltage at no contact = , -0.501760 , V 

No , Time , Stage Position ,   Mass , Force 
   ,  (s) ,      (mm)      ,   (g)  , (mN)  

1 ,0.0000 ,0.64949 ,5.01448 ,49.20205 
2 ,0.2068 ,0.64956 ,4.99052 ,48.96701 
3 ,0.5108 ,0.65032 ,5.00763 ,49.13490 
4 ,0.7032 ,0.65169 ,5.01448 ,49.20205 
5 ,0.8791 ,0.65313 ,5.01448 ,49.20205 
6 ,1.0872 ,0.65497 ,4.98710 ,48.93343 
7 ,1.2793 ,0.65701 ,5.01790 ,49.23563 
8 ,1.4710 ,0.65892 ,5.00421 ,49.10132 
9 ,1.6473 ,0.66072 ,4.98710 ,48.93343 
10 ,1.8238 ,0.66250 ,4.98368 ,48.89985 
11 ,2.0159 ,0.66449 ,4.98710 ,48.93343 
12 ,2.1919 ,0.66621 ,4.98368 ,48.89985 
13 ,2.3679 ,0.66800 ,4.96999 ,48.76554 
14 ,2.5759 ,0.66998 ,4.93919 ,48.46333 
15 ,2.7679 ,0.67193 ,4.95288 ,48.59764 
16 ,2.9442 ,0.67368 ,4.91866 ,48.26186 
17 ,3.1201 ,0.67545 ,4.91181 ,48.19471 
18 ,3.2963 ,0.67720 ,4.90839 ,48.16113 
19 ,3.4724 ,0.67893 ,4.91181 ,48.19471 
20 ,3.6485 ,0.68069 ,4.88101 ,47.89250 
21 ,3.8247 ,0.68252 ,4.87417 ,47.82534 
22 ,4.0167 ,0.68441 ,4.86390 ,47.72461 
23 ,4.1928 ,0.68619 ,4.86732 ,47.75819 
24 ,4.3687 ,0.68797 ,4.83995 ,47.48956 
25 ,4.5604 ,0.68985 ,4.82968 ,47.38883 
26 ,4.7367 ,0.69161 ,4.81257 ,47.22093 
27 ,4.9290 ,0.69353 ,4.78519 ,46.95231 
28 ,5.1051 ,0.69528 ,4.76466 ,46.75084 
29 ,5.2811 ,0.69705 ,4.75439 ,46.65010 
30 ,5.4572 ,0.69883 ,4.74413 ,46.54937 
31 ,5.6330 ,0.70055 ,4.74070 ,46.51579 
32 ,5.8093 ,0.70232 ,4.72359 ,46.34790 
33 ,6.0014 ,0.70426 ,4.69279 ,46.04569 
34 ,6.1775 ,0.70600 ,4.68937 ,46.01212 
35 ,6.3694 ,0.70792 ,4.65515 ,45.67633 
36 ,6.5456 ,0.70970 ,4.62777 ,45.40771 
37 ,6.7055 ,0.71137 ,4.62435 ,45.37413 
38 ,6.8818 ,0.71304 ,4.59355 ,45.07192 
39 ,7.0576 ,0.71486 ,4.58671 ,45.00477 
40 ,7.2339 ,0.71662 ,4.57644 ,44.90403 
41 ,7.4099 ,0.71831 ,4.54906 ,44.63541 
42 ,7.6021 ,0.72025 ,4.53195 ,44.46751 
43 ,7.7778 ,0.72199 ,4.49773 ,44.13173 
44 ,7.9543 ,0.72379 ,4.50115 ,44.16531 
45 ,8.1463 ,0.72572 ,4.45324 ,43.69521 
46 ,8.3063 ,0.72742 ,4.43271 ,43.49374 
47 ,8.4824 ,0.72901 ,4.42586 ,43.42659 
48 ,8.6584 ,0.73080 ,4.42586 ,43.42659 
49 ,8.8343 ,0.73258 ,4.39164 ,43.09080 
50 ,9.0269 ,0.73439 ,4.38480 ,43.02365 
51 ,9.2184 ,0.73640 ,4.36084 ,42.78860 
52 ,9.3947 ,0.73819 ,4.36427 ,42.82218 
53 ,9.5869 ,0.74009 ,4.31978 ,42.38566 
54 ,9.7627 ,0.74178 ,4.30267 ,42.21777 
55 ,9.9390 ,0.74354 ,4.29240 ,42.11703 
56 ,10.1151 ,0.74538 ,4.28213 ,42.01630 
57 ,10.2911 ,0.74717 ,4.26845 ,41.88198 
58 ,10.4832 ,0.74907 ,4.22738 ,41.47905 
59 ,10.6912 ,0.75108 ,4.21369 ,41.34473 
60 ,10.8673 ,0.75286 ,4.19316 ,41.14326 
61 ,11.0274 ,0.75461 ,4.17605 ,40.97537 
62 ,11.2192 ,0.75635 ,4.17605 ,40.97537 
63 ,11.3956 ,0.75819 ,4.16236 ,40.84106 
64 ,11.6037 ,0.76009 ,4.12814 ,40.50527 
65 ,11.7796 ,0.76204 ,4.11103 ,40.33738 
66 ,11.9558 ,0.76380 ,4.08707 ,40.10233 
67 ,12.1317 ,0.76549 ,4.06996 ,39.93444 
68 ,12.3240 ,0.76749 ,4.04600 ,39.69940 
69 ,12.5000 ,0.76923 ,4.04600 ,39.69940 
70 ,12.6760 ,0.77099 ,4.03916 ,39.63224 
71 ,12.8517 ,0.77271 ,4.00152 ,39.26288 
72 ,13.0282 ,0.77449 ,3.99125 ,39.16214 
73 ,13.2039 ,0.77627 ,3.96387 ,38.89352 
74 ,13.3800 ,0.77799 ,3.95361 ,38.79278 
75 ,13.5884 ,0.77997 ,3.92623 ,38.52415 
76 ,13.7803 ,0.78201 ,3.90912 ,38.35626 
77 ,13.9725 ,0.78395 ,3.91596 ,38.42342 
78 ,14.1483 ,0.78572 ,3.89543 ,38.22195 
79 ,14.3244 ,0.78742 ,3.85779 ,37.85259 
80 ,14.5008 ,0.78921 ,3.85094 ,37.78543 
81 ,14.6767 ,0.79100 ,3.82014 ,37.48323 
82 ,14.8688 ,0.79279 ,3.80987 ,37.38249 
83 ,15.0448 ,0.79463 ,3.77565 ,37.04671 
84 ,15.2211 ,0.79647 ,3.76196 ,36.91240 
85 ,15.3971 ,0.79817 ,3.76539 ,36.94597 
86 ,15.5729 ,0.79999 ,3.73117 ,36.61019 
87 ,15.7491 ,0.80171 ,3.71748 ,36.47588 
88 ,15.9413 ,0.80362 ,3.69352 ,36.24083 
89 ,16.1175 ,0.80540 ,3.69352 ,36.24083 
90 ,16.3093 ,0.80725 ,3.67641 ,36.07294 
91 ,16.4694 ,0.80900 ,3.64219 ,35.73716 
92 ,16.6455 ,0.81065 ,3.63534 ,35.67000 
93 ,16.8218 ,0.81241 ,3.61139 ,35.43495 
94 ,17.0138 ,0.81429 ,3.61139 ,35.43495 
95 ,17.1897 ,0.81607 ,3.58743 ,35.19990 
96 ,17.3658 ,0.81785 ,3.57032 ,35.03201 
97 ,17.5419 ,0.81963 ,3.54637 ,34.79696 
98 ,17.7181 ,0.82136 ,3.53952 ,34.72981 
99 ,17.8941 ,0.82313 ,3.53610 ,34.69623 
100 ,18.0702 ,0.82489 ,3.50530 ,34.39402 
101 ,18.2622 ,0.82683 ,3.47450 ,34.09182 
102 ,18.4384 ,0.82859 ,3.46424 ,33.99108 
103 ,18.6464 ,0.83063 ,3.44370 ,33.78961 
104 ,18.8225 ,0.83244 ,3.43344 ,33.68888 
105 ,18.9985 ,0.83419 ,3.42317 ,33.58814 
106 ,19.1747 ,0.83594 ,3.41290 ,33.48741 
107 ,19.3504 ,0.83770 ,3.39921 ,33.35310 
108 ,19.5270 ,0.83946 ,3.37184 ,33.08447 
109 ,19.7190 ,0.84137 ,3.35130 ,32.88300 
110 ,19.9268 ,0.84331 ,3.32735 ,32.64795 
111 ,20.1031 ,0.84519 ,3.31708 ,32.54722 
112 ,20.2791 ,0.84701 ,3.29655 ,32.34575 
113 ,20.4711 ,0.84887 ,3.29313 ,32.31217 
114 ,20.6312 ,0.85059 ,3.26575 ,32.04354 
115 ,20.8074 ,0.85229 ,3.24864 ,31.87565 
116 ,20.9834 ,0.85407 ,3.22811 ,31.67418 
117 ,21.1754 ,0.85592 ,3.23837 ,31.77492 
118 ,21.3515 ,0.85768 ,3.21100 ,31.50629 
119 ,21.5276 ,0.85939 ,3.20073 ,31.40555 
120 ,21.7358 ,0.86140 ,3.16993 ,31.10335 
121 ,21.9117 ,0.86334 ,3.15966 ,31.00262 
122 ,22.1038 ,0.86509 ,3.14597 ,30.86830 
123 ,22.2960 ,0.86700 ,3.10833 ,30.49894 
124 ,22.5037 ,0.86904 ,3.08438 ,30.26389 
125 ,22.6802 ,0.87098 ,3.06726 ,30.09600 
126 ,22.8721 ,0.87281 ,3.07411 ,30.16316 
127 ,23.0483 ,0.87465 ,3.05700 ,29.99527 
128 ,23.2403 ,0.87655 ,3.03304 ,29.76022 
129 ,23.4324 ,0.87848 ,3.01935 ,29.62590 
130 ,23.6084 ,0.88025 ,3.00909 ,29.52517 
131 ,23.7846 ,0.88201 ,2.97487 ,29.18939 
132 ,23.9766 ,0.88388 ,2.98513 ,29.29012 
133 ,24.1526 ,0.88568 ,2.96118 ,29.05507 
134 ,24.3447 ,0.88759 ,2.92011 ,28.65213 
135 ,24.5368 ,0.88952 ,2.92696 ,28.71929 
136 ,24.7129 ,0.89130 ,2.90642 ,28.51782 
137 ,24.9211 ,0.89331 ,2.87562 ,28.21562 
138 ,25.0971 ,0.89519 ,2.86536 ,28.11488 
139 ,25.2891 ,0.89699 ,2.83114 ,27.77910 
140 ,25.4653 ,0.89882 ,2.83114 ,27.77910 
141 ,25.6411 ,0.90059 ,2.80718 ,27.54405 
142 ,25.8334 ,0.90250 ,2.80376 ,27.51047 
143 ,26.0415 ,0.90449 ,2.76954 ,27.17469 
144 ,26.2336 ,0.90651 ,2.76611 ,27.14111 
145 ,26.4095 ,0.90826 ,2.74900 ,26.97322 
146 ,26.6017 ,0.91013 ,2.72505 ,26.73817 
147 ,26.7779 ,0.91191 ,2.71136 ,26.60386 
148 ,26.9539 ,0.91371 ,2.70794 ,26.57028 
149 ,27.1295 ,0.91545 ,2.69083 ,26.40239 
150 ,27.3060 ,0.91723 ,2.64634 ,25.96587 
151 ,27.4979 ,0.91909 ,2.63949 ,25.89871 
152 ,27.6741 ,0.92087 ,2.63949 ,25.89871 
153 ,27.8660 ,0.92279 ,2.60869 ,25.59651 
154 ,28.0421 ,0.92456 ,2.58816 ,25.39504 
155 ,28.2184 ,0.92634 ,2.56763 ,25.19357 
156 ,28.4103 ,0.92819 ,2.56763 ,25.19357 
157 ,28.5865 ,0.92999 ,2.53341 ,24.85779 
158 ,28.7784 ,0.93186 ,2.52314 ,24.75705 
159 ,28.9546 ,0.93367 ,2.52656 ,24.79063 
160 ,29.1466 ,0.93559 ,2.48550 ,24.38769 
161 ,29.3387 ,0.93743 ,2.47523 ,24.28696 
162 ,29.5149 ,0.93931 ,2.46496 ,24.18622 
163 ,29.7069 ,0.94120 ,2.44101 ,23.95117 
164 ,29.8826 ,0.94299 ,2.42390 ,23.78328 
165 ,30.0589 ,0.94474 ,2.40336 ,23.58181 
166 ,30.2512 ,0.94660 ,2.40336 ,23.58181 
167 ,30.4433 ,0.94859 ,2.37941 ,23.34676 
168 ,30.6191 ,0.95038 ,2.35203 ,23.07814 
169 ,30.7951 ,0.95209 ,2.35545 ,23.11171 
170 ,30.9871 ,0.95398 ,2.33150 ,22.87667 
171 ,31.1635 ,0.95573 ,2.30754 ,22.64162 
172 ,31.3396 ,0.95757 ,2.29385 ,22.50731 
173 ,31.5159 ,0.95932 ,2.28701 ,22.44015 
174 ,31.6917 ,0.96105 ,2.26990 ,22.27226 
175 ,31.8678 ,0.96283 ,2.25279 ,22.10437 
176 ,32.0598 ,0.96470 ,2.23226 ,21.90290 
177 ,32.2359 ,0.96645 ,2.22541 ,21.83574 
178 ,32.4121 ,0.96825 ,2.21515 ,21.73500 
179 ,32.5881 ,0.97006 ,2.20830 ,21.66785 
180 ,32.7641 ,0.97178 ,2.17408 ,21.33206 
181 ,32.9562 ,0.97369 ,2.16723 ,21.26491 
182 ,33.1323 ,0.97560 ,2.15355 ,21.13059 
183 ,33.3083 ,0.97719 ,2.13986 ,20.99628 
184 ,33.5005 ,0.97914 ,2.10564 ,20.66050 
185 ,33.6764 ,0.98086 ,2.10221 ,20.62692 
186 ,33.8525 ,0.98279 ,2.09537 ,20.55976 
187 ,34.0286 ,0.98442 ,2.08852 ,20.49261 
188 ,34.2048 ,0.98620 ,2.06115 ,20.22398 
189 ,34.3809 ,0.98798 ,2.03719 ,19.98893 
190 ,34.5729 ,0.98981 ,2.03719 ,19.98893 
191 ,34.7650 ,0.99171 ,2.03035 ,19.92178 
192 ,34.9571 ,0.99369 ,2.00982 ,19.72031 
193 ,35.1332 ,0.99545 ,1.99270 ,19.55241 
194 ,35.3253 ,0.99733 ,1.96190 ,19.25021 
195 ,35.5172 ,0.99929 ,1.95164 ,19.14948 
196 ,35.6934 ,1.00102 ,1.95164 ,19.14948 
197 ,35.8695 ,1.00287 ,1.94137 ,19.04874 
198 ,36.0615 ,1.00468 ,1.90715 ,18.71296 
199 ,36.2373 ,1.00644 ,1.89688 ,18.61222 
200 ,36.4295 ,1.00835 ,1.89004 ,18.54507 
201 ,36.6217 ,1.01026 ,1.87293 ,18.37717 
202 ,36.8138 ,1.01226 ,1.86951 ,18.34360 
203 ,37.0059 ,1.01415 ,1.83186 ,17.97423 
204 ,37.1821 ,1.01592 ,1.80791 ,17.73919 
205 ,37.3740 ,1.01786 ,1.80449 ,17.70561 
206 ,37.5498 ,1.01962 ,1.79764 ,17.63845 
207 ,37.7423 ,1.02143 ,1.77026 ,17.36983 
208 ,37.9503 ,1.02351 ,1.76000 ,17.26909 
209 ,38.1580 ,1.02568 ,1.75315 ,17.20193 
210 ,38.3343 ,1.02746 ,1.73604 ,17.03404 
211 ,38.5268 ,1.02936 ,1.72578 ,16.93331 
212 ,38.7346 ,1.03140 ,1.71209 ,16.79899 
213 ,38.9107 ,1.03320 ,1.69840 ,16.66468 
214 ,39.1023 ,1.03516 ,1.65391 ,16.22816 
215 ,39.2788 ,1.03686 ,1.65391 ,16.22816 
216 ,39.4545 ,1.03880 ,1.65391 ,16.22816 
217 ,39.6309 ,1.04040 ,1.64707 ,16.16101 
218 ,39.8071 ,1.04215 ,1.62311 ,15.92596 
219 ,39.9991 ,1.04408 ,1.61627 ,15.85880 
220 ,40.1911 ,1.04594 ,1.60258 ,15.72449 
221 ,40.3672 ,1.04775 ,1.57178 ,15.42228 
222 ,40.5434 ,1.04951 ,1.55467 ,15.25439 
223 ,40.7355 ,1.05147 ,1.55809 ,15.28797 
224 ,40.9273 ,1.05335 ,1.52045 ,14.91861 
225 ,41.1035 ,1.05512 ,1.51360 ,14.85145 
226 ,41.2796 ,1.05687 ,1.49307 ,14.64998 
227 ,41.4557 ,1.05870 ,1.49649 ,14.68356 
228 ,41.6319 ,1.06043 ,1.48280 ,14.54925 
229 ,41.8238 ,1.06230 ,1.46227 ,14.34778 
230 ,42.0000 ,1.06412 ,1.44174 ,14.14631 
231 ,42.1918 ,1.06597 ,1.44516 ,14.17989 
232 ,42.4002 ,1.06800 ,1.41778 ,13.91126 
233 ,42.5919 ,1.07002 ,1.41094 ,13.84410 
234 ,42.7682 ,1.07178 ,1.39383 ,13.67621 
235 ,42.9441 ,1.07350 ,1.36645 ,13.40759 
236 ,43.1362 ,1.07550 ,1.36645 ,13.40759 
237 ,43.3283 ,1.07734 ,1.35618 ,13.30685 
238 ,43.5206 ,1.07917 ,1.34249 ,13.17254 
239 ,43.7125 ,1.08120 ,1.32538 ,13.00465 
240 ,43.8888 ,1.08298 ,1.31169 ,12.87033 
241 ,44.0807 ,1.08479 ,1.28089 ,12.56813 
242 ,44.2567 ,1.08664 ,1.27405 ,12.50097 
243 ,44.4329 ,1.08842 ,1.27063 ,12.46739 
244 ,44.6249 ,1.09035 ,1.24325 ,12.19877 
245 ,44.8010 ,1.09207 ,1.23983 ,12.16519 
246 ,44.9771 ,1.09384 ,1.23298 ,12.09803 
247 ,45.1532 ,1.09566 ,1.22614 ,12.03088 
248 ,45.3292 ,1.09739 ,1.20218 ,11.79583 
249 ,45.5054 ,1.09917 ,1.18507 ,11.62794 
250 ,45.6974 ,1.10102 ,1.18165 ,11.59436 
251 ,45.9054 ,1.10306 ,1.15427 ,11.32573 
252 ,46.0811 ,1.10491 ,1.12690 ,11.05710 
253 ,46.2571 ,1.10668 ,1.13032 ,11.09068 
254 ,46.4333 ,1.10841 ,1.11321 ,10.92279 
255 ,46.6092 ,1.11015 ,1.12347 ,11.02353 
256 ,46.7854 ,1.11194 ,1.08925 ,10.68774 
257 ,46.9774 ,1.11382 ,1.07214 ,10.51985 
258 ,47.1535 ,1.11560 ,1.07214 ,10.51985 
259 ,47.3297 ,1.11738 ,1.05845 ,10.38554 
260 ,47.5382 ,1.11945 ,1.04476 ,10.25123 
261 ,47.7303 ,1.12140 ,1.04134 ,10.21765 
262 ,47.9060 ,1.12313 ,1.01739 ,9.98260 
263 ,48.0825 ,1.12488 ,0.97632 ,9.57966 
264 ,48.2744 ,1.12682 ,0.99685 ,9.78113 
265 ,48.4504 ,1.12854 ,0.96605 ,9.47892 
266 ,48.6263 ,1.13038 ,0.95921 ,9.41177 
267 ,48.8027 ,1.13211 ,0.94210 ,9.24388 
268 ,48.9785 ,1.13382 ,0.92841 ,9.10956 
269 ,49.1548 ,1.13568 ,0.91814 ,9.00883 
270 ,49.3308 ,1.13737 ,0.90788 ,8.90809 
271 ,49.5068 ,1.13915 ,0.89761 ,8.80736 
272 ,49.6830 ,1.14092 ,0.87023 ,8.53873 
273 ,49.8748 ,1.14286 ,0.86339 ,8.47158 
274 ,50.0509 ,1.14456 ,0.85312 ,8.37084 
275 ,50.2274 ,1.14635 ,0.83601 ,8.20295 
276 ,50.4192 ,1.14826 ,0.82917 ,8.13579 
277 ,50.5955 ,1.15004 ,0.81206 ,7.96790 
278 ,50.7875 ,1.15194 ,0.78810 ,7.73285 
279 ,50.9632 ,1.15364 ,0.77441 ,7.59854 
280 ,51.1392 ,1.15545 ,0.76072 ,7.46423 
281 ,51.3157 ,1.15721 ,0.76072 ,7.46423 
282 ,51.4918 ,1.15896 ,0.75046 ,7.36349 
283 ,51.6677 ,1.16074 ,0.75046 ,7.36349 
284 ,51.8599 ,1.16266 ,0.71624 ,7.02771 
285 ,52.0520 ,1.16457 ,0.72308 ,7.09486 
286 ,52.2439 ,1.16641 ,0.68201 ,6.69193 
287 ,52.4360 ,1.16835 ,0.68201 ,6.69193 
288 ,52.6122 ,1.17017 ,0.66490 ,6.52403 
289 ,52.8042 ,1.17206 ,0.64779 ,6.35614 
290 ,52.9801 ,1.17386 ,0.62384 ,6.12109 
291 ,53.1562 ,1.17561 ,0.62384 ,6.12109 
292 ,53.3322 ,1.17738 ,0.61357 ,6.02036 
293 ,53.5245 ,1.17929 ,0.60330 ,5.91962 
294 ,53.7006 ,1.18107 ,0.57935 ,5.68458 
295 ,53.8927 ,1.18295 ,0.58619 ,5.75173 
296 ,54.0684 ,1.18469 ,0.56224 ,5.51668 
297 ,54.2444 ,1.18651 ,0.54171 ,5.31522 
298 ,54.4207 ,1.18829 ,0.52802 ,5.18090 
299 ,54.6130 ,1.19011 ,0.52802 ,5.18090 
300 ,54.8211 ,1.19216 ,0.51091 ,5.01301 
301 ,54.9971 ,1.19400 ,0.48695 ,4.77796 
302 ,55.1732 ,1.19579 ,0.50064 ,4.91228 
303 ,55.3492 ,1.19748 ,0.47668 ,4.67723 
304 ,55.5255 ,1.19931 ,0.45957 ,4.50934 
305 ,55.7173 ,1.20122 ,0.44588 ,4.37502 
306 ,55.8771 ,1.20292 ,0.45273 ,4.44218 
307 ,56.0371 ,1.20454 ,0.42877 ,4.20713 
308 ,56.2136 ,1.20620 ,0.40482 ,3.97208 
309 ,56.4055 ,1.20810 ,0.39797 ,3.90493 
310 ,56.5978 ,1.20989 ,0.37744 ,3.70346 
311 ,56.7738 ,1.21177 ,0.38771 ,3.80419 
312 ,56.9499 ,1.21358 ,0.37744 ,3.70346 
313 ,57.1420 ,1.21549 ,0.33980 ,3.33410 
314 ,57.3341 ,1.21741 ,0.34322 ,3.36767 
315 ,57.5101 ,1.21914 ,0.33980 ,3.33410 
316 ,57.6862 ,1.22088 ,0.31926 ,3.13263 
317 ,57.8621 ,1.22269 ,0.31242 ,3.06547 
318 ,58.0383 ,1.22439 ,0.27135 ,2.66253 
319 ,58.2144 ,1.22621 ,0.28847 ,2.83042 
320 ,58.3903 ,1.22799 ,0.28162 ,2.76326 
321 ,58.6146 ,1.23003 ,0.24398 ,2.39390 
322 ,58.8065 ,1.23207 ,0.24740 ,2.42748 
323 ,58.9827 ,1.23385 ,0.22344 ,2.19243 
324 ,59.1748 ,1.23573 ,0.21660 ,2.12528 
325 ,59.3668 ,1.23767 ,0.21318 ,2.09170 
326 ,59.5423 ,1.23946 ,0.18238 ,1.78949 
327 ,59.7188 ,1.24120 ,0.17896 ,1.75592 
328 ,59.8950 ,1.24302 ,0.17211 ,1.68876 
329 ,60.0710 ,1.24471 ,0.15500 ,1.52087 
330 ,60.2471 ,1.24649 ,0.15158 ,1.48729 
331 ,60.4231 ,1.24822 ,0.13105 ,1.28582 
332 ,60.5990 ,1.25000 ,0.12078 ,1.18508 
333 ,60.7755 ,1.25178 ,0.12420 ,1.21866 
334 ,60.9672 ,1.25372 ,0.10367 ,1.01719 
335 ,61.1431 ,1.25545 ,0.09682 ,0.95004 
336 ,61.3193 ,1.25721 ,0.07629 ,0.74857 
337 ,61.4957 ,1.25899 ,0.07971 ,0.78214 
338 ,61.6717 ,1.26084 ,0.07629 ,0.74857 
339 ,61.8476 ,1.26249 ,0.05576 ,0.54710 
340 ,62.0400 ,1.26440 ,0.03522 ,0.34563 
341 ,62.2318 ,1.26630 ,0.04549 ,0.44636 
342 ,62.4080 ,1.26815 ,0.03865 ,0.37920 
343 ,62.5840 ,1.26984 ,0.00443 ,0.04342 
344 ,62.7601 ,1.27160 ,-0.00926 ,-0.09089 
345 ,62.9203 ,1.27334 ,-0.00584 ,-0.05731 
346 ,63.0960 ,1.27497 ,-0.02295 ,-0.22520 
347 ,63.2885 ,1.27694 ,-0.02980 ,-0.29236 
348 ,63.4805 ,1.27885 ,-0.05717 ,-0.56099 
349 ,63.6564 ,1.28058 ,-0.06060 ,-0.59457 
350 ,63.8327 ,1.28230 ,-0.06402 ,-0.62814 
351 ,64.0251 ,1.28422 ,-0.07428 ,-0.72888 
352 ,64.2169 ,1.28618 ,-0.09482 ,-0.93035 
353 ,64.4089 ,1.28812 ,-0.08797 ,-0.86319 
354 ,64.5851 ,1.28989 ,-0.10851 ,-1.06466 
355 ,64.7928 ,1.29188 ,-0.08797 ,-0.86319 
356 ,64.9692 ,1.29370 ,-0.11877 ,-1.16540 
357 ,65.1612 ,1.29559 ,-0.13931 ,-1.36687 
358 ,65.3369 ,1.29740 ,-0.13931 ,-1.36687 
359 ,65.5134 ,1.29911 ,-0.14615 ,-1.43402 
360 ,65.7053 ,1.30101 ,-0.16668 ,-1.63549 
361 ,65.8652 ,1.30281 ,-0.18379 ,-1.80338 
362 ,66.0415 ,1.30443 ,-0.19064 ,-1.87054 
363 ,66.2178 ,1.30617 ,-0.19406 ,-1.90412 
364 ,66.4098 ,1.30811 ,-0.19064 ,-1.87054 
365 ,66.5857 ,1.30983 ,-0.20775 ,-2.03843 
366 ,66.7619 ,1.31163 ,-0.23170 ,-2.27348 
367 ,66.9375 ,1.31336 ,-0.23855 ,-2.34064 
368 ,67.1139 ,1.31515 ,-0.24539 ,-2.40779 
369 ,67.2900 ,1.31689 ,-0.24197 ,-2.37422 
370 ,67.4661 ,1.31862 ,-0.26935 ,-2.64284 
371 ,67.6419 ,1.32055 ,-0.26935 ,-2.64284 
372 ,67.8184 ,1.32218 ,-0.28646 ,-2.81073 
373 ,68.0263 ,1.32412 ,-0.28988 ,-2.84431 
374 ,68.2025 ,1.32600 ,-0.30699 ,-3.01220 
375 ,68.3943 ,1.32791 ,-0.29330 ,-2.87789 
376 ,68.5865 ,1.32982 ,-0.31041 ,-3.04578 
377 ,68.7626 ,1.33164 ,-0.32410 ,-3.18010 
378 ,68.9383 ,1.33339 ,-0.34121 ,-3.34799 
379 ,69.1145 ,1.33518 ,-0.33437 ,-3.28083 
380 ,69.2909 ,1.33691 ,-0.34121 ,-3.34799 
381 ,69.4668 ,1.33860 ,-0.35832 ,-3.51588 
382 ,69.6428 ,1.34043 ,-0.37886 ,-3.71735 
383 ,69.8189 ,1.34219 ,-0.38912 ,-3.81808 
384 ,69.9952 ,1.34394 ,-0.38570 ,-3.78450 
385 ,70.1873 ,1.34585 ,-0.37544 ,-3.68377 
386 ,70.3793 ,1.34777 ,-0.39939 ,-3.91882 
387 ,70.5554 ,1.34955 ,-0.41650 ,-4.08671 
388 ,70.7475 ,1.35148 ,-0.41308 ,-4.05313 
389 ,70.9392 ,1.35341 ,-0.43361 ,-4.25460 
390 ,71.1154 ,1.35519 ,-0.43703 ,-4.28818 
391 ,71.3238 ,1.35710 ,-0.42677 ,-4.18744 
392 ,71.5317 ,1.35920 ,-0.45757 ,-4.48965 
393 ,71.7076 ,1.36105 ,-0.45072 ,-4.42249 
394 ,71.8836 ,1.36284 ,-0.47126 ,-4.62396 
395 ,72.0759 ,1.36471 ,-0.47810 ,-4.69112 
396 ,72.2520 ,1.36649 ,-0.48152 ,-4.72470 
397 ,72.4280 ,1.36822 ,-0.48494 ,-4.75828 
398 ,72.6202 ,1.37006 ,-0.50890 ,-4.99332 
399 ,72.8123 ,1.37214 ,-0.51574 ,-5.06048 
400 ,72.9882 ,1.37380 ,-0.50890 ,-4.99332 
401 ,73.1804 ,1.37574 ,-0.53970 ,-5.29553 
402 ,73.3564 ,1.37752 ,-0.54654 ,-5.36268 
403 ,73.5485 ,1.37939 ,-0.54654 ,-5.36268 
404 ,73.7249 ,1.38121 ,-0.55681 ,-5.46342 
405 ,73.9004 ,1.38300 ,-0.57734 ,-5.66489 
406 ,74.0764 ,1.38471 ,-0.58761 ,-5.76562 
407 ,74.2524 ,1.38650 ,-0.59103 ,-5.79920 
408 ,74.4284 ,1.38829 ,-0.58761 ,-5.76562 
409 ,74.6046 ,1.38998 ,-0.59788 ,-5.86636 
410 ,74.8131 ,1.39208 ,-0.60130 ,-5.89994 
411 ,75.0211 ,1.39411 ,-0.61499 ,-6.03425 
412 ,75.2132 ,1.39609 ,-0.61156 ,-6.00067 
413 ,75.3890 ,1.39787 ,-0.62183 ,-6.10141 
414 ,75.5654 ,1.39962 ,-0.63894 ,-6.26930 
415 ,75.7573 ,1.40151 ,-0.65263 ,-6.40361 
416 ,75.9495 ,1.40350 ,-0.65263 ,-6.40361 
417 ,76.1255 ,1.40522 ,-0.65947 ,-6.47077 
418 ,76.3178 ,1.40718 ,-0.67659 ,-6.63866 
419 ,76.5097 ,1.40902 ,-0.66632 ,-6.53793 
420 ,76.6859 ,1.41083 ,-0.68685 ,-6.73940 
421 ,76.8779 ,1.41274 ,-0.69712 ,-6.84013 
422 ,77.0540 ,1.41451 ,-0.71423 ,-7.00802 
423 ,77.2299 ,1.41625 ,-0.71081 ,-6.97444 
424 ,77.4062 ,1.41801 ,-0.72792 ,-7.14233 
425 ,77.5819 ,1.41992 ,-0.73818 ,-7.24307 
426 ,77.7582 ,1.42157 ,-0.74503 ,-7.31023 
427 ,77.9344 ,1.42332 ,-0.75872 ,-7.44454 
428 ,78.1102 ,1.42508 ,-0.74503 ,-7.31023 
429 ,78.2865 ,1.42682 ,-0.76214 ,-7.47812 
430 ,78.4624 ,1.42864 ,-0.77241 ,-7.57885 
431 ,78.6386 ,1.43033 ,-0.79978 ,-7.84748 
432 ,78.8146 ,1.43212 ,-0.78267 ,-7.67959 
433 ,78.9907 ,1.43381 ,-0.77583 ,-7.61243 
434 ,79.1668 ,1.43563 ,-0.79294 ,-7.78032 
435 ,79.3589 ,1.43753 ,-0.81689 ,-8.01537 
436 ,79.5350 ,1.43932 ,-0.82374 ,-8.08253 
437 ,79.6949 ,1.44104 ,-0.82032 ,-8.04895 
438 ,79.9031 ,1.44283 ,-0.82032 ,-8.04895 
439 ,80.0792 ,1.44474 ,-0.85112 ,-8.35115 
440 ,80.2552 ,1.44652 ,-0.85796 ,-8.41831 
441 ,80.4315 ,1.44824 ,-0.85454 ,-8.38473 
442 ,80.6234 ,1.45018 ,-0.86481 ,-8.48547 
443 ,80.7996 ,1.45192 ,-0.88534 ,-8.68694 
444 ,80.9914 ,1.45385 ,-0.87507 ,-8.58620 
445 ,81.1675 ,1.45560 ,-0.87849 ,-8.61978 
446 ,81.3598 ,1.45753 ,-0.90245 ,-8.85483 
447 ,81.5358 ,1.45932 ,-0.90929 ,-8.92198 
448 ,81.7276 ,1.46120 ,-0.90245 ,-8.85483 
449 ,81.9197 ,1.46307 ,-0.92640 ,-9.08988 
450 ,82.1119 ,1.46500 ,-0.90929 ,-8.92198 
451 ,82.2881 ,1.46678 ,-0.91614 ,-8.98914 
452 ,82.4802 ,1.46876 ,-0.95036 ,-9.32492 
453 ,82.6881 ,1.47067 ,-0.94009 ,-9.22419 
454 ,82.8804 ,1.47270 ,-0.96405 ,-9.45924 
455 ,83.1047 ,1.47483 ,-0.95378 ,-9.35850 
456 ,83.2805 ,1.47674 ,-0.97089 ,-9.52639 
457 ,83.4564 ,1.47846 ,-0.97774 ,-9.59355 
458 ,83.6328 ,1.48026 ,-0.97431 ,-9.55997 
459 ,83.8243 ,1.48210 ,-0.98116 ,-9.62713 
460 ,84.0004 ,1.48394 ,-0.99485 ,-9.76144 
461 ,84.1764 ,1.48569 ,-1.01196 ,-9.92933 
462 ,84.3365 ,1.48739 ,-1.00169 ,-9.82860 
