Data stamp = , 03-04-2022 15:55:41 043

Calibration Values: 
Slope = , 26.54 , g/V 
Offset Voltage at no contact = , -0.501760 , V 

No , Time , Stage Position ,   Mass , Force 
   ,  (s) ,      (mm)      ,   (g)  , (mN)  

1 ,0.0000 ,0.59949 ,5.22665 ,51.28391 
2 ,0.2326 ,0.59959 ,5.23692 ,51.38464 
3 ,0.5526 ,0.60047 ,5.25061 ,51.51896 
4 ,0.7609 ,0.60203 ,5.24034 ,51.41822 
5 ,0.9689 ,0.60389 ,5.25403 ,51.55254 
6 ,1.1448 ,0.60563 ,5.22323 ,51.25033 
7 ,1.3371 ,0.60751 ,5.24034 ,51.41822 
8 ,1.5131 ,0.60940 ,5.23350 ,51.35107 
9 ,1.6889 ,0.61112 ,5.22665 ,51.28391 
10 ,1.8653 ,0.61286 ,5.20612 ,51.08244 
11 ,2.0572 ,0.61477 ,5.18559 ,50.88097 
12 ,2.2334 ,0.61659 ,5.17190 ,50.74666 
13 ,2.4095 ,0.61837 ,5.15136 ,50.54519 
14 ,2.5856 ,0.62012 ,5.15821 ,50.61234 
15 ,2.7616 ,0.62188 ,5.12741 ,50.31014 
16 ,2.9375 ,0.62357 ,5.10345 ,50.07509 
17 ,3.1134 ,0.62535 ,5.10003 ,50.04151 
18 ,3.2898 ,0.62711 ,5.10345 ,50.07509 
19 ,3.4979 ,0.62921 ,5.06923 ,49.73931 
20 ,3.6741 ,0.63098 ,5.07265 ,49.77289 
21 ,3.8503 ,0.63280 ,5.05212 ,49.57142 
22 ,4.0424 ,0.63468 ,5.01790 ,49.23563 
23 ,4.2182 ,0.63643 ,5.00421 ,49.10132 
24 ,4.3944 ,0.63819 ,5.00079 ,49.06774 
25 ,4.5864 ,0.64013 ,4.98368 ,48.89985 
26 ,4.7624 ,0.64188 ,4.95630 ,48.63122 
27 ,4.9385 ,0.64361 ,4.94261 ,48.49691 
28 ,5.1305 ,0.64542 ,4.92892 ,48.36260 
29 ,5.3226 ,0.64740 ,4.90839 ,48.16113 
30 ,5.4826 ,0.64920 ,4.88101 ,47.89250 
31 ,5.6587 ,0.65080 ,4.87075 ,47.79177 
32 ,5.8508 ,0.65264 ,4.86048 ,47.69103 
33 ,6.0430 ,0.65466 ,4.82626 ,47.35525 
34 ,6.2669 ,0.65677 ,4.81257 ,47.22093 
35 ,6.4436 ,0.65868 ,4.78177 ,46.91873 
36 ,6.6191 ,0.66043 ,4.75782 ,46.68368 
37 ,6.7953 ,0.66217 ,4.75782 ,46.68368 
38 ,6.9550 ,0.66390 ,4.74755 ,46.58295 
39 ,7.1314 ,0.66559 ,4.73386 ,46.44863 
40 ,7.3232 ,0.66741 ,4.69279 ,46.04569 
41 ,7.4995 ,0.66921 ,4.68937 ,46.01212 
42 ,7.6755 ,0.67099 ,4.66884 ,45.81065 
43 ,7.8517 ,0.67275 ,4.65173 ,45.64275 
44 ,8.0114 ,0.67445 ,4.64488 ,45.57560 
45 ,8.1878 ,0.67607 ,4.62435 ,45.37413 
46 ,8.3960 ,0.67813 ,4.61066 ,45.23981 
47 ,8.5720 ,0.67998 ,4.58328 ,44.97119 
48 ,8.7640 ,0.68186 ,4.54906 ,44.63541 
49 ,8.9401 ,0.68356 ,4.54222 ,44.56825 
50 ,9.1160 ,0.68543 ,4.54222 ,44.56825 
51 ,9.2922 ,0.68715 ,4.50800 ,44.23247 
52 ,9.4678 ,0.68888 ,4.51142 ,44.26604 
53 ,9.6445 ,0.69066 ,4.47378 ,43.89668 
54 ,9.8360 ,0.69256 ,4.46693 ,43.82953 
55 ,10.0120 ,0.69432 ,4.46009 ,43.76237 
56 ,10.1720 ,0.69604 ,4.43613 ,43.52732 
57 ,10.3488 ,0.69770 ,4.40533 ,43.22512 
58 ,10.5413 ,0.69969 ,4.40191 ,43.19154 
59 ,10.7328 ,0.70143 ,4.37111 ,42.88933 
60 ,10.9089 ,0.70330 ,4.35742 ,42.75502 
61 ,11.1012 ,0.70521 ,4.34031 ,42.58713 
62 ,11.2770 ,0.70697 ,4.31636 ,42.35208 
63 ,11.4692 ,0.70884 ,4.30609 ,42.25135 
64 ,11.6454 ,0.71072 ,4.29240 ,42.11703 
65 ,11.8213 ,0.71245 ,4.27187 ,41.91556 
66 ,11.9972 ,0.71420 ,4.24791 ,41.68051 
67 ,12.1895 ,0.71597 ,4.25133 ,41.71409 
68 ,12.3654 ,0.71783 ,4.23422 ,41.54620 
69 ,12.5415 ,0.71964 ,4.19316 ,41.14326 
70 ,12.7176 ,0.72140 ,4.17605 ,40.97537 
71 ,12.8939 ,0.72312 ,4.17262 ,40.94179 
72 ,13.0698 ,0.72492 ,4.16236 ,40.84106 
73 ,13.2778 ,0.72690 ,4.11787 ,40.40454 
74 ,13.4700 ,0.72882 ,4.12471 ,40.47170 
75 ,13.6621 ,0.73083 ,4.10418 ,40.27023 
76 ,13.8383 ,0.73258 ,4.08023 ,40.03518 
77 ,14.0301 ,0.73451 ,4.07338 ,39.96802 
78 ,14.2224 ,0.73647 ,4.03916 ,39.63224 
79 ,14.3818 ,0.73815 ,4.02205 ,39.46435 
80 ,14.5582 ,0.73978 ,4.00152 ,39.26288 
81 ,14.7506 ,0.74168 ,4.00494 ,39.29646 
82 ,14.9265 ,0.74344 ,3.99467 ,39.19572 
83 ,15.1026 ,0.74522 ,3.96387 ,38.89352 
84 ,15.2787 ,0.74701 ,3.93650 ,38.62489 
85 ,15.4548 ,0.74873 ,3.93992 ,38.65847 
86 ,15.6308 ,0.75047 ,3.93992 ,38.65847 
87 ,15.8387 ,0.75251 ,3.90227 ,38.28911 
88 ,16.0151 ,0.75437 ,3.88174 ,38.08764 
89 ,16.2070 ,0.75624 ,3.86805 ,37.95332 
90 ,16.3828 ,0.75797 ,3.84067 ,37.68470 
91 ,16.5593 ,0.75975 ,3.82356 ,37.51681 
92 ,16.7510 ,0.76169 ,3.83041 ,37.58396 
93 ,16.9274 ,0.76347 ,3.80987 ,37.38249 
94 ,17.1190 ,0.76536 ,3.78250 ,37.11387 
95 ,17.2956 ,0.76711 ,3.76539 ,36.94597 
96 ,17.4875 ,0.76914 ,3.74485 ,36.74450 
97 ,17.6637 ,0.77081 ,3.74143 ,36.71093 
98 ,17.8398 ,0.77262 ,3.70037 ,36.30799 
99 ,18.0158 ,0.77434 ,3.70037 ,36.30799 
100 ,18.1919 ,0.77613 ,3.69010 ,36.20725 
101 ,18.3680 ,0.77784 ,3.66614 ,35.97220 
102 ,18.5598 ,0.77978 ,3.64561 ,35.77073 
103 ,18.7362 ,0.78154 ,3.62850 ,35.60284 
104 ,18.9118 ,0.78331 ,3.62166 ,35.53569 
105 ,19.0719 ,0.78503 ,3.62166 ,35.53569 
106 ,19.2485 ,0.78670 ,3.60454 ,35.36779 
107 ,19.4404 ,0.78858 ,3.56348 ,34.96485 
108 ,19.6322 ,0.79039 ,3.55321 ,34.86412 
109 ,19.8084 ,0.79227 ,3.55321 ,34.86412 
110 ,20.0328 ,0.79434 ,3.53610 ,34.69623 
111 ,20.2085 ,0.79626 ,3.51899 ,34.52834 
112 ,20.3848 ,0.79806 ,3.49504 ,34.29329 
113 ,20.5928 ,0.80008 ,3.45739 ,33.92393 
114 ,20.7689 ,0.80185 ,3.46081 ,33.95751 
115 ,20.9608 ,0.80371 ,3.44028 ,33.75604 
116 ,21.1370 ,0.80556 ,3.43001 ,33.65530 
117 ,21.3291 ,0.80740 ,3.40264 ,33.38667 
118 ,21.5053 ,0.80925 ,3.39921 ,33.35310 
119 ,21.6973 ,0.81116 ,3.37184 ,33.08447 
120 ,21.8894 ,0.81301 ,3.37184 ,33.08447 
121 ,22.0814 ,0.81498 ,3.34446 ,32.81584 
122 ,22.2575 ,0.81674 ,3.31708 ,32.54722 
123 ,22.4337 ,0.81848 ,3.32393 ,32.61437 
124 ,22.6097 ,0.82027 ,3.29997 ,32.37933 
125 ,22.7855 ,0.82197 ,3.28971 ,32.27859 
126 ,22.9618 ,0.82381 ,3.26917 ,32.07712 
127 ,23.1538 ,0.82569 ,3.25206 ,31.90923 
128 ,23.3299 ,0.82748 ,3.23495 ,31.74134 
129 ,23.5060 ,0.82919 ,3.22468 ,31.64060 
130 ,23.6821 ,0.83100 ,3.20073 ,31.40555 
131 ,23.8738 ,0.83285 ,3.19388 ,31.33840 
132 ,24.0501 ,0.83461 ,3.18020 ,31.20409 
133 ,24.2263 ,0.83642 ,3.16309 ,31.03619 
134 ,24.4183 ,0.83828 ,3.12886 ,30.70041 
135 ,24.6105 ,0.84022 ,3.13229 ,30.73399 
136 ,24.7865 ,0.84204 ,3.11518 ,30.56610 
137 ,24.9785 ,0.84390 ,3.08780 ,30.29747 
138 ,25.1545 ,0.84569 ,3.08780 ,30.29747 
139 ,25.3307 ,0.84741 ,3.07411 ,30.16316 
140 ,25.5069 ,0.84926 ,3.04673 ,29.89453 
141 ,25.6989 ,0.85108 ,3.02620 ,29.69306 
142 ,25.8751 ,0.85292 ,3.01593 ,29.59233 
143 ,26.0509 ,0.85464 ,2.99882 ,29.42444 
144 ,26.2433 ,0.85656 ,2.97829 ,29.22297 
145 ,26.4193 ,0.85835 ,2.96460 ,29.08865 
146 ,26.5952 ,0.86010 ,2.95433 ,28.98792 
147 ,26.7870 ,0.86197 ,2.93722 ,28.82003 
148 ,26.9634 ,0.86376 ,2.91669 ,28.61856 
149 ,27.1553 ,0.86574 ,2.89616 ,28.41709 
150 ,27.3479 ,0.86761 ,2.88589 ,28.31635 
151 ,27.5235 ,0.86939 ,2.88589 ,28.31635 
152 ,27.6999 ,0.87118 ,2.84825 ,27.94699 
153 ,27.9078 ,0.87312 ,2.85167 ,27.98057 
154 ,28.0837 ,0.87499 ,2.83456 ,27.81268 
155 ,28.2601 ,0.87675 ,2.81745 ,27.64479 
156 ,28.4528 ,0.87866 ,2.81745 ,27.64479 
157 ,28.6442 ,0.88051 ,2.80376 ,27.51047 
158 ,28.8204 ,0.88232 ,2.76611 ,27.14111 
159 ,28.9961 ,0.88412 ,2.74216 ,26.90606 
160 ,29.1721 ,0.88592 ,2.74558 ,26.93964 
161 ,29.3487 ,0.88764 ,2.73189 ,26.80533 
162 ,29.5246 ,0.88937 ,2.70794 ,26.57028 
163 ,29.7007 ,0.89115 ,2.69083 ,26.40239 
164 ,29.8770 ,0.89287 ,2.67029 ,26.20092 
165 ,30.0528 ,0.89466 ,2.66687 ,26.16734 
166 ,30.2287 ,0.89641 ,2.66345 ,26.13376 
167 ,30.4050 ,0.89820 ,2.64292 ,25.93229 
168 ,30.5810 ,0.89997 ,2.61554 ,25.66367 
169 ,30.7727 ,0.90183 ,2.61212 ,25.63009 
170 ,30.9651 ,0.90371 ,2.58816 ,25.39504 
171 ,31.1572 ,0.90571 ,2.56421 ,25.15999 
172 ,31.3329 ,0.90749 ,2.54710 ,24.99210 
173 ,31.5094 ,0.90924 ,2.54025 ,24.92494 
174 ,31.7015 ,0.91115 ,2.50945 ,24.62274 
175 ,31.8775 ,0.91294 ,2.48892 ,24.42127 
176 ,32.0695 ,0.91481 ,2.50603 ,24.58916 
177 ,32.2457 ,0.91661 ,2.48207 ,24.35411 
178 ,32.4213 ,0.91841 ,2.44785 ,24.01833 
179 ,32.5975 ,0.92005 ,2.44443 ,23.98475 
180 ,32.7739 ,0.92185 ,2.43416 ,23.88402 
181 ,32.9505 ,0.92365 ,2.42732 ,23.81686 
182 ,33.1420 ,0.92556 ,2.39652 ,23.51465 
183 ,33.3179 ,0.92725 ,2.37599 ,23.31318 
184 ,33.4942 ,0.92903 ,2.36230 ,23.17887 
185 ,33.6702 ,0.93081 ,2.36230 ,23.17887 
186 ,33.8463 ,0.93259 ,2.35203 ,23.07814 
187 ,34.0385 ,0.93448 ,2.32123 ,22.77593 
188 ,34.2144 ,0.93628 ,2.31439 ,22.70877 
189 ,34.3906 ,0.93801 ,2.30754 ,22.64162 
190 ,34.5663 ,0.93974 ,2.29385 ,22.50731 
191 ,34.7427 ,0.94154 ,2.28017 ,22.37299 
192 ,34.9186 ,0.94326 ,2.24594 ,22.03721 
193 ,35.1108 ,0.94517 ,2.24594 ,22.03721 
194 ,35.2870 ,0.94697 ,2.21857 ,21.76858 
195 ,35.4790 ,0.94891 ,2.20488 ,21.63427 
196 ,35.6712 ,0.95075 ,2.20830 ,21.66785 
197 ,35.8791 ,0.95283 ,2.17750 ,21.36564 
198 ,36.0553 ,0.95467 ,2.16381 ,21.23133 
199 ,36.2313 ,0.95646 ,2.16039 ,21.19775 
200 ,36.4072 ,0.95820 ,2.14670 ,21.06344 
201 ,36.5991 ,0.96014 ,2.11590 ,20.76123 
202 ,36.7755 ,0.96190 ,2.08852 ,20.49261 
203 ,36.9520 ,0.96360 ,2.09879 ,20.59334 
204 ,37.1276 ,0.96540 ,2.08168 ,20.42545 
205 ,37.3038 ,0.96710 ,2.05773 ,20.19040 
206 ,37.4958 ,0.96903 ,2.03377 ,19.95535 
207 ,37.6715 ,0.97082 ,2.03377 ,19.95535 
208 ,37.8481 ,0.97257 ,2.03035 ,19.92178 
209 ,38.0240 ,0.97432 ,1.99955 ,19.61957 
210 ,38.1997 ,0.97615 ,1.99613 ,19.58599 
211 ,38.3762 ,0.97780 ,1.97559 ,19.38452 
212 ,38.5683 ,0.97978 ,1.96533 ,19.28379 
213 ,38.7440 ,0.98158 ,1.95848 ,19.21663 
214 ,38.9205 ,0.98328 ,1.92768 ,18.91443 
215 ,39.0963 ,0.98509 ,1.91057 ,18.74654 
216 ,39.2726 ,0.98684 ,1.90715 ,18.71296 
217 ,39.4645 ,0.98869 ,1.88319 ,18.47791 
218 ,39.6406 ,0.99053 ,1.86951 ,18.34360 
219 ,39.8166 ,0.99223 ,1.85240 ,18.17570 
220 ,39.9928 ,0.99398 ,1.84213 ,18.07497 
221 ,40.1689 ,0.99579 ,1.83871 ,18.04139 
222 ,40.3610 ,0.99771 ,1.80106 ,17.67203 
223 ,40.5370 ,0.99950 ,1.79422 ,17.60487 
224 ,40.7131 ,1.00120 ,1.79422 ,17.60487 
225 ,40.8891 ,1.00297 ,1.78395 ,17.50414 
226 ,41.0653 ,1.00472 ,1.74631 ,17.13478 
227 ,41.2412 ,1.00653 ,1.74631 ,17.13478 
228 ,41.4332 ,1.00838 ,1.73946 ,17.06762 
229 ,41.6094 ,1.01022 ,1.72578 ,16.93331 
230 ,41.8012 ,1.01205 ,1.69155 ,16.59752 
231 ,41.9774 ,1.01382 ,1.67786 ,16.46321 
232 ,42.1696 ,1.01567 ,1.67786 ,16.46321 
233 ,42.3938 ,1.01786 ,1.66760 ,16.36248 
234 ,42.5695 ,1.01976 ,1.64707 ,16.16101 
235 ,42.7460 ,1.02156 ,1.62653 ,15.95954 
236 ,42.9378 ,1.02345 ,1.60942 ,15.79164 
237 ,43.1301 ,1.02532 ,1.60258 ,15.72449 
238 ,43.3221 ,1.02727 ,1.56836 ,15.38871 
239 ,43.5142 ,1.02911 ,1.55467 ,15.25439 
240 ,43.7062 ,1.03115 ,1.54098 ,15.12008 
241 ,43.8822 ,1.03288 ,1.52045 ,14.91861 
242 ,44.0421 ,1.03460 ,1.49991 ,14.71714 
243 ,44.2344 ,1.03632 ,1.49649 ,14.68356 
244 ,44.4105 ,1.03817 ,1.49991 ,14.71714 
245 ,44.5865 ,1.03988 ,1.47596 ,14.48209 
246 ,44.7626 ,1.04169 ,1.46569 ,14.38136 
247 ,44.9388 ,1.04348 ,1.43831 ,14.11273 
248 ,45.1146 ,1.04521 ,1.44516 ,14.17989 
249 ,45.2907 ,1.04698 ,1.43489 ,14.07915 
250 ,45.4668 ,1.04871 ,1.41436 ,13.87768 
251 ,45.6430 ,1.05050 ,1.38356 ,13.57548 
252 ,45.8349 ,1.05237 ,1.39040 ,13.64263 
253 ,46.0430 ,1.05437 ,1.35276 ,13.27327 
254 ,46.2192 ,1.05629 ,1.33223 ,13.07180 
255 ,46.4110 ,1.05811 ,1.33907 ,13.13896 
256 ,46.6035 ,1.05996 ,1.32538 ,13.00465 
257 ,46.7795 ,1.06189 ,1.30485 ,12.80318 
258 ,46.9555 ,1.06364 ,1.30143 ,12.76960 
259 ,47.1316 ,1.06536 ,1.28774 ,12.63528 
260 ,47.3077 ,1.06715 ,1.27747 ,12.53455 
261 ,47.4837 ,1.06890 ,1.25694 ,12.33308 
262 ,47.6599 ,1.07065 ,1.23983 ,12.16519 
263 ,47.8518 ,1.07246 ,1.23983 ,12.16519 
264 ,48.0281 ,1.07434 ,1.22272 ,11.99730 
265 ,48.2198 ,1.07619 ,1.21245 ,11.89656 
266 ,48.3958 ,1.07802 ,1.17823 ,11.56078 
267 ,48.5558 ,1.07974 ,1.17138 ,11.49362 
268 ,48.7158 ,1.08138 ,1.17481 ,11.52720 
269 ,48.8920 ,1.08295 ,1.16454 ,11.42647 
270 ,49.0680 ,1.08474 ,1.14401 ,11.22500 
271 ,49.2440 ,1.08654 ,1.13374 ,11.12426 
272 ,49.4201 ,1.08827 ,1.10294 ,10.82206 
273 ,49.5963 ,1.09005 ,1.10636 ,10.85563 
274 ,49.7888 ,1.09193 ,1.09952 ,10.78848 
275 ,49.9967 ,1.09398 ,1.08241 ,10.62059 
276 ,50.1727 ,1.09573 ,1.07214 ,10.51985 
277 ,50.3648 ,1.09761 ,1.07556 ,10.55343 
278 ,50.5568 ,1.09958 ,1.03792 ,10.18407 
279 ,50.7490 ,1.10150 ,1.03450 ,10.15049 
280 ,50.9250 ,1.10333 ,1.00712 ,9.88186 
281 ,51.1011 ,1.10505 ,0.99685 ,9.78113 
282 ,51.2773 ,1.10682 ,0.99001 ,9.71397 
283 ,51.4690 ,1.10870 ,0.96605 ,9.47892 
284 ,51.6456 ,1.11053 ,0.94894 ,9.31103 
285 ,51.8213 ,1.11226 ,0.93868 ,9.21030 
286 ,51.9975 ,1.11401 ,0.93183 ,9.14314 
287 ,52.1735 ,1.11573 ,0.92841 ,9.10956 
288 ,52.3657 ,1.11758 ,0.92841 ,9.10956 
289 ,52.5574 ,1.11962 ,0.90103 ,8.84094 
290 ,52.7339 ,1.12134 ,0.89077 ,8.74020 
291 ,52.9256 ,1.12327 ,0.87708 ,8.60589 
292 ,53.1019 ,1.12503 ,0.85654 ,8.40442 
293 ,53.2781 ,1.12685 ,0.84286 ,8.27011 
294 ,53.4702 ,1.12879 ,0.83259 ,8.16937 
295 ,53.6461 ,1.13049 ,0.82575 ,8.10221 
296 ,53.8224 ,1.13223 ,0.80179 ,7.86717 
297 ,54.0143 ,1.13414 ,0.79495 ,7.80001 
298 ,54.2222 ,1.13611 ,0.77441 ,7.59854 
299 ,54.4145 ,1.13813 ,0.77441 ,7.59854 
300 ,54.6222 ,1.14022 ,0.74704 ,7.32991 
301 ,54.7987 ,1.14204 ,0.74019 ,7.26276 
302 ,55.0066 ,1.14399 ,0.74019 ,7.26276 
303 ,55.1828 ,1.14586 ,0.71281 ,6.99413 
304 ,55.3748 ,1.14774 ,0.71624 ,7.02771 
305 ,55.5510 ,1.14956 ,0.69570 ,6.82624 
306 ,55.7430 ,1.15143 ,0.67175 ,6.59119 
307 ,55.9191 ,1.15322 ,0.65806 ,6.45688 
308 ,56.0948 ,1.15495 ,0.67175 ,6.59119 
309 ,56.2712 ,1.15675 ,0.64779 ,6.35614 
310 ,56.4473 ,1.15851 ,0.63068 ,6.18825 
311 ,56.6553 ,1.16051 ,0.63068 ,6.18825 
312 ,56.8314 ,1.16236 ,0.61699 ,6.05394 
313 ,57.0075 ,1.16412 ,0.58277 ,5.71815 
314 ,57.1836 ,1.16586 ,0.56566 ,5.55026 
315 ,57.3596 ,1.16762 ,0.54855 ,5.38237 
316 ,57.5358 ,1.16940 ,0.55197 ,5.41595 
317 ,57.7118 ,1.17113 ,0.55539 ,5.44953 
318 ,57.9038 ,1.17310 ,0.52117 ,5.11375 
319 ,58.0960 ,1.17498 ,0.53486 ,5.24806 
320 ,58.2718 ,1.17674 ,0.51775 ,5.08017 
321 ,58.4481 ,1.17848 ,0.49380 ,4.84512 
322 ,58.6242 ,1.18026 ,0.47326 ,4.64365 
323 ,58.8000 ,1.18198 ,0.46300 ,4.54291 
324 ,58.9763 ,1.18377 ,0.45957 ,4.50934 
325 ,59.1523 ,1.18552 ,0.45273 ,4.44218 
326 ,59.3285 ,1.18731 ,0.45273 ,4.44218 
327 ,59.5206 ,1.18918 ,0.41509 ,4.07282 
328 ,59.7127 ,1.19109 ,0.42535 ,4.17355 
329 ,59.8886 ,1.19294 ,0.40824 ,4.00566 
330 ,60.0808 ,1.19479 ,0.37744 ,3.70346 
331 ,60.2726 ,1.19674 ,0.38086 ,3.73703 
332 ,60.4492 ,1.19852 ,0.36718 ,3.60272 
333 ,60.6569 ,1.20049 ,0.36718 ,3.60272 
334 ,60.8329 ,1.20232 ,0.35006 ,3.43483 
335 ,61.0087 ,1.20407 ,0.34664 ,3.40125 
336 ,61.1847 ,1.20581 ,0.32269 ,3.16620 
337 ,61.3607 ,1.20761 ,0.30215 ,2.96473 
338 ,61.5529 ,1.20947 ,0.31242 ,3.06547 
339 ,61.7290 ,1.21132 ,0.29189 ,2.86400 
340 ,61.9214 ,1.21314 ,0.27478 ,2.69611 
341 ,62.1135 ,1.21524 ,0.27135 ,2.66253 
342 ,62.2734 ,1.21684 ,0.26109 ,2.56179 
343 ,62.4503 ,1.21847 ,0.24398 ,2.39390 
344 ,62.6256 ,1.22027 ,0.24398 ,2.39390 
345 ,62.8179 ,1.22215 ,0.22002 ,2.15885 
346 ,62.9938 ,1.22397 ,0.21660 ,2.12528 
347 ,63.1857 ,1.22588 ,0.19264 ,1.89023 
348 ,63.3779 ,1.22770 ,0.18922 ,1.85665 
349 ,63.5543 ,1.22954 ,0.17553 ,1.72234 
350 ,63.7302 ,1.23131 ,0.18238 ,1.78949 
351 ,63.9062 ,1.23306 ,0.15500 ,1.52087 
352 ,64.0822 ,1.23483 ,0.14473 ,1.42013 
353 ,64.2584 ,1.23665 ,0.13789 ,1.35298 
354 ,64.4508 ,1.23847 ,0.11736 ,1.15151 
355 ,64.6262 ,1.24023 ,0.12078 ,1.18508 
356 ,64.8026 ,1.24201 ,0.08656 ,0.84930 
357 ,64.9788 ,1.24373 ,0.07971 ,0.78214 
358 ,65.2025 ,1.24593 ,0.06602 ,0.64783 
359 ,65.3790 ,1.24781 ,0.05918 ,0.58067 
360 ,65.5710 ,1.24974 ,0.06260 ,0.61425 
361 ,65.7632 ,1.25153 ,0.03865 ,0.37920 
362 ,65.9557 ,1.25353 ,0.02838 ,0.27847 
363 ,66.1471 ,1.25547 ,0.02154 ,0.21131 
364 ,66.3551 ,1.25748 ,0.01127 ,0.11058 
365 ,66.5314 ,1.25928 ,0.00785 ,0.07700 
366 ,66.7075 ,1.26103 ,0.00100 ,0.00984 
367 ,66.8994 ,1.26290 ,-0.02295 ,-0.22520 
368 ,67.0917 ,1.26481 ,-0.04348 ,-0.42667 
369 ,67.2675 ,1.26670 ,-0.02980 ,-0.29236 
370 ,67.4437 ,1.26842 ,-0.05375 ,-0.52741 
371 ,67.6358 ,1.27035 ,-0.06744 ,-0.66172 
372 ,67.8120 ,1.27210 ,-0.07771 ,-0.76246 
373 ,68.0040 ,1.27405 ,-0.08455 ,-0.82961 
374 ,68.1961 ,1.27592 ,-0.10166 ,-0.99751 
375 ,68.3720 ,1.27774 ,-0.10166 ,-0.99751 
376 ,68.5642 ,1.27963 ,-0.10508 ,-1.03108 
377 ,68.7404 ,1.28140 ,-0.13588 ,-1.33329 
378 ,68.9323 ,1.28331 ,-0.13246 ,-1.29971 
379 ,69.1085 ,1.28505 ,-0.12904 ,-1.26613 
380 ,69.3003 ,1.28691 ,-0.14957 ,-1.46760 
381 ,69.4763 ,1.28874 ,-0.17695 ,-1.73623 
382 ,69.6531 ,1.29048 ,-0.16668 ,-1.63549 
383 ,69.8447 ,1.29243 ,-0.17353 ,-1.70265 
384 ,70.0209 ,1.29416 ,-0.20090 ,-1.97128 
385 ,70.2126 ,1.29607 ,-0.19748 ,-1.93770 
386 ,70.3885 ,1.29788 ,-0.21459 ,-2.10559 
387 ,70.5646 ,1.29959 ,-0.20090 ,-1.97128 
388 ,70.7409 ,1.30138 ,-0.23855 ,-2.34064 
389 ,70.9494 ,1.30348 ,-0.23170 ,-2.27348 
390 ,71.1409 ,1.30537 ,-0.24539 ,-2.40779 
391 ,71.3013 ,1.30708 ,-0.25908 ,-2.54211 
392 ,71.4773 ,1.30871 ,-0.27961 ,-2.74358 
393 ,71.6535 ,1.31047 ,-0.27961 ,-2.74358 
394 ,71.8615 ,1.31253 ,-0.30015 ,-2.94505 
395 ,72.0376 ,1.31437 ,-0.31041 ,-3.04578 
396 ,72.2298 ,1.31630 ,-0.31041 ,-3.04578 
397 ,72.4058 ,1.31804 ,-0.30699 ,-3.01220 
398 ,72.5819 ,1.31983 ,-0.33437 ,-3.28083 
399 ,72.7739 ,1.32165 ,-0.32752 ,-3.21367 
400 ,72.9660 ,1.32364 ,-0.32068 ,-3.14652 
401 ,73.1423 ,1.32544 ,-0.35832 ,-3.51588 
402 ,73.3342 ,1.32731 ,-0.36175 ,-3.54946 
403 ,73.5101 ,1.32906 ,-0.36175 ,-3.54946 
404 ,73.7020 ,1.33094 ,-0.38228 ,-3.75093 
405 ,73.8784 ,1.33273 ,-0.38912 ,-3.81808 
406 ,74.0702 ,1.33464 ,-0.39939 ,-3.91882 
407 ,74.2465 ,1.33643 ,-0.38228 ,-3.75093 
408 ,74.4225 ,1.33815 ,-0.40966 ,-4.01955 
409 ,74.5984 ,1.33997 ,-0.43361 ,-4.25460 
410 ,74.8067 ,1.34194 ,-0.41308 ,-4.05313 
411 ,74.9825 ,1.34375 ,-0.44046 ,-4.32176 
412 ,75.1589 ,1.34557 ,-0.46441 ,-4.55681 
413 ,75.3349 ,1.34732 ,-0.46783 ,-4.59038 
414 ,75.5110 ,1.34907 ,-0.46441 ,-4.55681 
415 ,75.6871 ,1.35083 ,-0.46441 ,-4.55681 
416 ,75.8467 ,1.35252 ,-0.47810 ,-4.69112 
417 ,76.0230 ,1.35416 ,-0.48837 ,-4.79185 
418 ,76.1993 ,1.35595 ,-0.49521 ,-4.85901 
419 ,76.4074 ,1.35790 ,-0.49863 ,-4.89259 
420 ,76.5994 ,1.35997 ,-0.52259 ,-5.12764 
421 ,76.7755 ,1.36174 ,-0.52259 ,-5.12764 
422 ,76.9515 ,1.36343 ,-0.54312 ,-5.32911 
423 ,77.1275 ,1.36523 ,-0.53628 ,-5.26195 
424 ,77.3035 ,1.36697 ,-0.53970 ,-5.29553 
425 ,77.4798 ,1.36875 ,-0.56708 ,-5.56415 
426 ,77.6559 ,1.37057 ,-0.57050 ,-5.59773 
427 ,77.8319 ,1.37226 ,-0.57734 ,-5.66489 
428 ,78.0237 ,1.37413 ,-0.58761 ,-5.76562 
429 ,78.2160 ,1.37602 ,-0.59445 ,-5.83278 
430 ,78.3921 ,1.37787 ,-0.60472 ,-5.93352 
431 ,78.5682 ,1.37965 ,-0.59788 ,-5.86636 
432 ,78.7602 ,1.38156 ,-0.61156 ,-6.00067 
433 ,78.9359 ,1.38331 ,-0.62525 ,-6.13499 
434 ,79.1121 ,1.38504 ,-0.64579 ,-6.33646 
435 ,79.2881 ,1.38682 ,-0.62868 ,-6.16856 
436 ,79.4643 ,1.38861 ,-0.64921 ,-6.37003 
437 ,79.6566 ,1.39046 ,-0.66632 ,-6.53793 
438 ,79.8488 ,1.39245 ,-0.66632 ,-6.53793 
439 ,80.0246 ,1.39417 ,-0.68001 ,-6.67224 
440 ,80.2166 ,1.39608 ,-0.69712 ,-6.84013 
441 ,80.3927 ,1.39781 ,-0.69712 ,-6.84013 
442 ,80.5689 ,1.39963 ,-0.68685 ,-6.73940 
443 ,80.7449 ,1.40138 ,-0.69027 ,-6.77297 
444 ,80.9211 ,1.40316 ,-0.72107 ,-7.07518 
445 ,81.0972 ,1.40494 ,-0.72107 ,-7.07518 
446 ,81.2893 ,1.40680 ,-0.71765 ,-7.04160 
447 ,81.4812 ,1.40868 ,-0.74845 ,-7.34380 
448 ,81.6574 ,1.41051 ,-0.75530 ,-7.41096 
449 ,81.8492 ,1.41243 ,-0.74503 ,-7.31023 
450 ,82.0254 ,1.41415 ,-0.75530 ,-7.41096 
451 ,82.2336 ,1.41610 ,-0.77241 ,-7.57885 
452 ,82.4097 ,1.41803 ,-0.77241 ,-7.57885 
453 ,82.6018 ,1.41981 ,-0.78610 ,-7.71317 
454 ,82.7938 ,1.42188 ,-0.82032 ,-8.04895 
455 ,82.9860 ,1.42380 ,-0.80663 ,-7.91464 
456 ,83.1779 ,1.42572 ,-0.82374 ,-8.08253 
457 ,83.3542 ,1.42746 ,-0.83058 ,-8.14968 
458 ,83.5301 ,1.42925 ,-0.84085 ,-8.25042 
459 ,83.7062 ,1.43096 ,-0.83401 ,-8.18326 
460 ,83.8824 ,1.43275 ,-0.83401 ,-8.18326 
461 ,84.0583 ,1.43448 ,-0.86138 ,-8.45189 
462 ,84.2344 ,1.43625 ,-0.87849 ,-8.61978 
463 ,84.3944 ,1.43800 ,-0.87165 ,-8.55262 
