Data stamp = , 03-04-2022 04:44:06 553

Calibration Values: 
Slope = , 26.54 , g/V 
Offset Voltage at no contact = , -0.501760 , V 

No , Time , Stage Position ,   Mass , Force 
   ,  (s) ,      (mm)      ,   (g)  , (mN)  

1 ,0.0000 ,0.59946 ,5.19585 ,50.98170 
2 ,0.2044 ,0.59949 ,5.21639 ,51.18317 
3 ,0.5566 ,0.60044 ,5.20954 ,51.11602 
4 ,0.7327 ,0.60190 ,5.20270 ,51.04886 
5 ,0.9088 ,0.60334 ,5.20954 ,51.11602 
6 ,1.0849 ,0.60505 ,5.21639 ,51.18317 
7 ,1.2609 ,0.60680 ,5.22323 ,51.25033 
8 ,1.4369 ,0.60852 ,5.19927 ,51.01528 
9 ,1.6129 ,0.61035 ,5.19243 ,50.94813 
10 ,1.7891 ,0.61212 ,5.18901 ,50.91455 
11 ,1.9651 ,0.61388 ,5.17190 ,50.74666 
12 ,2.1414 ,0.61570 ,5.17190 ,50.74666 
13 ,2.3495 ,0.61758 ,5.13083 ,50.34372 
14 ,2.5257 ,0.61951 ,5.13083 ,50.34372 
15 ,2.7178 ,0.62134 ,5.11714 ,50.20940 
16 ,2.8939 ,0.62322 ,5.09319 ,49.97436 
17 ,3.0859 ,0.62507 ,5.08634 ,49.90720 
18 ,3.2620 ,0.62685 ,5.07950 ,49.84004 
19 ,3.4381 ,0.62860 ,5.04870 ,49.53784 
20 ,3.6301 ,0.63052 ,5.03843 ,49.43710 
21 ,3.8224 ,0.63236 ,5.03501 ,49.40352 
22 ,3.9982 ,0.63427 ,5.01106 ,49.16848 
23 ,4.1745 ,0.63598 ,4.99737 ,49.03416 
24 ,4.3982 ,0.63813 ,4.99052 ,48.96701 
25 ,4.5745 ,0.63998 ,4.96315 ,48.69838 
26 ,4.7507 ,0.64169 ,4.95630 ,48.63122 
27 ,4.9268 ,0.64351 ,4.93919 ,48.46333 
28 ,5.1185 ,0.64541 ,4.92550 ,48.32902 
29 ,5.3110 ,0.64726 ,4.89128 ,47.99324 
30 ,5.5031 ,0.64930 ,4.89812 ,48.06039 
31 ,5.6951 ,0.65119 ,4.86732 ,47.75819 
32 ,5.8872 ,0.65300 ,4.86048 ,47.69103 
33 ,6.0631 ,0.65485 ,4.86048 ,47.69103 
34 ,6.2389 ,0.65657 ,4.81941 ,47.28809 
35 ,6.4153 ,0.65839 ,4.80915 ,47.18736 
36 ,6.5913 ,0.66011 ,4.79888 ,47.08662 
37 ,6.7676 ,0.66189 ,4.78861 ,46.98589 
38 ,6.9436 ,0.66365 ,4.77150 ,46.81800 
39 ,7.1516 ,0.66568 ,4.75097 ,46.61653 
40 ,7.3117 ,0.66741 ,4.74070 ,46.51579 
41 ,7.5038 ,0.66921 ,4.70306 ,46.14643 
42 ,7.6799 ,0.67102 ,4.69622 ,46.07927 
43 ,7.8557 ,0.67278 ,4.66199 ,45.74349 
44 ,8.0320 ,0.67453 ,4.67568 ,45.87780 
45 ,8.2080 ,0.67629 ,4.64146 ,45.54202 
46 ,8.3842 ,0.67806 ,4.63804 ,45.50844 
47 ,8.5922 ,0.68004 ,4.62093 ,45.34055 
48 ,8.7682 ,0.68190 ,4.60040 ,45.13908 
49 ,8.9605 ,0.68378 ,4.55933 ,44.73614 
50 ,9.1525 ,0.68575 ,4.56275 ,44.76972 
51 ,9.3281 ,0.68746 ,4.55249 ,44.66898 
52 ,9.5046 ,0.68923 ,4.53537 ,44.50109 
53 ,9.6806 ,0.69104 ,4.50800 ,44.23247 
54 ,9.8568 ,0.69279 ,4.48062 ,43.96384 
55 ,10.0328 ,0.69461 ,4.48062 ,43.96384 
56 ,10.2089 ,0.69630 ,4.46693 ,43.82953 
57 ,10.3847 ,0.69804 ,4.44298 ,43.59448 
58 ,10.5771 ,0.69989 ,4.42244 ,43.39301 
59 ,10.7693 ,0.70190 ,4.41218 ,43.29227 
60 ,10.9451 ,0.70366 ,4.38822 ,43.05723 
61 ,11.1212 ,0.70544 ,4.36084 ,42.78860 
62 ,11.3294 ,0.70740 ,4.35058 ,42.68786 
63 ,11.5055 ,0.70925 ,4.34373 ,42.62071 
64 ,11.6815 ,0.71095 ,4.31293 ,42.31850 
65 ,11.8576 ,0.71277 ,4.28556 ,42.04988 
66 ,12.0336 ,0.71457 ,4.28556 ,42.04988 
67 ,12.2097 ,0.71630 ,4.27871 ,41.98272 
68 ,12.3858 ,0.71805 ,4.25133 ,41.71409 
69 ,12.5939 ,0.72009 ,4.22396 ,41.44547 
70 ,12.7699 ,0.72184 ,4.22738 ,41.47905 
71 ,12.9297 ,0.72360 ,4.20000 ,41.21042 
72 ,13.1057 ,0.72522 ,4.17947 ,41.00895 
73 ,13.2818 ,0.72701 ,4.15894 ,40.80748 
74 ,13.4578 ,0.72873 ,4.14183 ,40.63959 
75 ,13.6503 ,0.73063 ,4.13840 ,40.60601 
76 ,13.8904 ,0.73299 ,4.10760 ,40.30380 
77 ,14.0666 ,0.73483 ,4.09734 ,40.20307 
78 ,14.2586 ,0.73677 ,4.06312 ,39.86729 
79 ,14.4342 ,0.73853 ,4.05285 ,39.76655 
80 ,14.5942 ,0.74026 ,4.05285 ,39.76655 
81 ,14.7704 ,0.74187 ,4.03574 ,39.59866 
82 ,14.9627 ,0.74372 ,4.01863 ,39.43077 
83 ,15.1710 ,0.74583 ,4.00836 ,39.33003 
84 ,15.3630 ,0.74783 ,3.97414 ,38.99425 
85 ,15.5553 ,0.74962 ,3.94676 ,38.72562 
86 ,15.7311 ,0.75147 ,3.93992 ,38.65847 
87 ,15.9075 ,0.75326 ,3.93307 ,38.59131 
88 ,16.0832 ,0.75500 ,3.91596 ,38.42342 
89 ,16.2750 ,0.75688 ,3.89201 ,38.18837 
90 ,16.4516 ,0.75869 ,3.88516 ,38.12122 
91 ,16.6275 ,0.76049 ,3.87490 ,38.02048 
92 ,16.8036 ,0.76223 ,3.85094 ,37.78543 
93 ,16.9956 ,0.76412 ,3.82356 ,37.51681 
94 ,17.1718 ,0.76589 ,3.82356 ,37.51681 
95 ,17.3636 ,0.76783 ,3.78934 ,37.18102 
96 ,17.5560 ,0.76974 ,3.76881 ,36.97955 
97 ,17.7320 ,0.77150 ,3.76881 ,36.97955 
98 ,17.9237 ,0.77341 ,3.73801 ,36.67735 
99 ,18.0998 ,0.77517 ,3.71405 ,36.44230 
100 ,18.2757 ,0.77691 ,3.69694 ,36.27441 
101 ,18.4518 ,0.77870 ,3.70379 ,36.34157 
102 ,18.6280 ,0.78043 ,3.68325 ,36.14010 
103 ,18.8521 ,0.78258 ,3.64903 ,35.80431 
104 ,19.0285 ,0.78456 ,3.63877 ,35.70358 
105 ,19.2046 ,0.78621 ,3.62166 ,35.53569 
106 ,19.3806 ,0.78794 ,3.61139 ,35.43495 
107 ,19.5568 ,0.78973 ,3.58401 ,35.16632 
108 ,19.7327 ,0.79154 ,3.56690 ,34.99843 
109 ,19.9406 ,0.79352 ,3.55663 ,34.89770 
110 ,20.1168 ,0.79533 ,3.53610 ,34.69623 
111 ,20.2931 ,0.79709 ,3.53268 ,34.66265 
112 ,20.4852 ,0.79900 ,3.50530 ,34.39402 
113 ,20.6612 ,0.80078 ,3.49504 ,34.29329 
114 ,20.8533 ,0.80263 ,3.48819 ,34.22613 
115 ,21.0292 ,0.80444 ,3.46766 ,34.02466 
116 ,21.2055 ,0.80620 ,3.44713 ,33.82319 
117 ,21.4138 ,0.80826 ,3.44370 ,33.78961 
118 ,21.6057 ,0.81017 ,3.40948 ,33.45383 
119 ,21.7978 ,0.81215 ,3.39579 ,33.31952 
120 ,21.9737 ,0.81390 ,3.38210 ,33.18520 
121 ,22.1819 ,0.81588 ,3.36499 ,33.01731 
122 ,22.3740 ,0.81792 ,3.35473 ,32.91658 
123 ,22.5500 ,0.81969 ,3.33419 ,32.71511 
124 ,22.7421 ,0.82158 ,3.31024 ,32.48006 
125 ,22.9502 ,0.82349 ,3.29313 ,32.31217 
126 ,23.1420 ,0.82557 ,3.26575 ,32.04354 
127 ,23.3184 ,0.82732 ,3.25891 ,31.97639 
128 ,23.5106 ,0.82928 ,3.26233 ,32.00996 
129 ,23.6865 ,0.83100 ,3.23495 ,31.74134 
130 ,23.8785 ,0.83295 ,3.21784 ,31.57345 
131 ,24.0543 ,0.83468 ,3.20415 ,31.43913 
132 ,24.2306 ,0.83645 ,3.19388 ,31.33840 
133 ,24.4069 ,0.83826 ,3.16309 ,31.03619 
134 ,24.5988 ,0.84015 ,3.15624 ,30.96904 
135 ,24.7747 ,0.84188 ,3.14940 ,30.90188 
136 ,24.9669 ,0.84371 ,3.13571 ,30.76757 
137 ,25.1429 ,0.84557 ,3.08438 ,30.26389 
138 ,25.3350 ,0.84744 ,3.09806 ,30.39821 
139 ,25.5268 ,0.84936 ,3.08780 ,30.29747 
140 ,25.7034 ,0.85118 ,3.06726 ,30.09600 
141 ,25.8950 ,0.85312 ,3.03989 ,29.82737 
142 ,26.0715 ,0.85484 ,3.04673 ,29.89453 
143 ,26.2473 ,0.85663 ,3.01935 ,29.62590 
144 ,26.4395 ,0.85854 ,2.99540 ,29.39086 
145 ,26.6317 ,0.86045 ,2.98855 ,29.32370 
146 ,26.8079 ,0.86222 ,2.97144 ,29.15581 
147 ,26.9833 ,0.86398 ,2.94064 ,28.85360 
148 ,27.1599 ,0.86570 ,2.94407 ,28.88718 
149 ,27.3360 ,0.86751 ,2.92353 ,28.68571 
150 ,27.5280 ,0.86936 ,2.90300 ,28.48424 
151 ,27.7201 ,0.87136 ,2.89273 ,28.38351 
152 ,27.9123 ,0.87318 ,2.87905 ,28.24919 
153 ,28.0879 ,0.87504 ,2.86193 ,28.08130 
154 ,28.2644 ,0.87678 ,2.84140 ,27.87983 
155 ,28.4401 ,0.87856 ,2.82771 ,27.74552 
156 ,28.6322 ,0.88044 ,2.81402 ,27.61121 
157 ,28.8246 ,0.88242 ,2.80034 ,27.47689 
158 ,28.9845 ,0.88411 ,2.78322 ,27.30900 
159 ,29.1768 ,0.88590 ,2.77638 ,27.24185 
160 ,29.3524 ,0.88770 ,2.75585 ,27.04038 
161 ,29.5124 ,0.88937 ,2.74216 ,26.90606 
162 ,29.6889 ,0.89105 ,2.73531 ,26.83891 
163 ,29.8809 ,0.89291 ,2.70794 ,26.57028 
164 ,30.0730 ,0.89475 ,2.69083 ,26.40239 
165 ,30.2647 ,0.89678 ,2.66687 ,26.16734 
166 ,30.4571 ,0.89864 ,2.67372 ,26.23450 
167 ,30.6332 ,0.90046 ,2.65660 ,26.06661 
168 ,30.8253 ,0.90227 ,2.63265 ,25.83156 
169 ,31.0014 ,0.90415 ,2.61896 ,25.69724 
170 ,31.1775 ,0.90591 ,2.60527 ,25.56293 
171 ,31.3855 ,0.90791 ,2.58132 ,25.32788 
172 ,31.5616 ,0.90970 ,2.57105 ,25.22715 
173 ,31.7537 ,0.91164 ,2.56421 ,25.15999 
174 ,31.9298 ,0.91344 ,2.54710 ,24.99210 
175 ,32.1218 ,0.91533 ,2.51630 ,24.68989 
176 ,32.3140 ,0.91725 ,2.51630 ,24.68989 
177 ,32.4895 ,0.91905 ,2.50261 ,24.55558 
178 ,32.6656 ,0.92075 ,2.47523 ,24.28696 
179 ,32.8418 ,0.92253 ,2.45812 ,24.11906 
180 ,33.0503 ,0.92450 ,2.45470 ,24.08549 
181 ,33.2260 ,0.92642 ,2.43074 ,23.85044 
182 ,33.4182 ,0.92829 ,2.41705 ,23.71612 
183 ,33.6102 ,0.93010 ,2.41363 ,23.68255 
184 ,33.7862 ,0.93193 ,2.38625 ,23.41392 
185 ,33.9625 ,0.93374 ,2.37256 ,23.27961 
186 ,34.1225 ,0.93546 ,2.36230 ,23.17887 
187 ,34.2987 ,0.93714 ,2.34519 ,23.01098 
188 ,34.4907 ,0.93890 ,2.34177 ,22.97740 
189 ,34.6668 ,0.94075 ,2.29728 ,22.54088 
190 ,34.8424 ,0.94257 ,2.29385 ,22.50731 
191 ,35.0190 ,0.94431 ,2.28359 ,22.40657 
192 ,35.1948 ,0.94614 ,2.26648 ,22.23868 
193 ,35.3711 ,0.94779 ,2.25963 ,22.17152 
194 ,35.5630 ,0.94967 ,2.23910 ,21.97005 
195 ,35.7393 ,0.95151 ,2.23226 ,21.90290 
196 ,35.9148 ,0.95326 ,2.22199 ,21.80216 
197 ,36.0911 ,0.95501 ,2.20488 ,21.63427 
198 ,36.2675 ,0.95677 ,2.17066 ,21.29849 
199 ,36.4593 ,0.95862 ,2.17066 ,21.29849 
200 ,36.6356 ,0.96046 ,2.16039 ,21.19775 
201 ,36.8276 ,0.96234 ,2.11932 ,20.79481 
202 ,37.0036 ,0.96417 ,2.11248 ,20.72766 
203 ,37.1799 ,0.96589 ,2.10564 ,20.66050 
204 ,37.3559 ,0.96766 ,2.09537 ,20.55976 
205 ,37.5320 ,0.96938 ,2.06457 ,20.25756 
206 ,37.7240 ,0.97130 ,2.05430 ,20.15682 
207 ,37.9162 ,0.97317 ,2.05773 ,20.19040 
208 ,38.0920 ,0.97499 ,2.03377 ,19.95535 
209 ,38.2841 ,0.97687 ,2.00982 ,19.72031 
210 ,38.4764 ,0.97875 ,2.00297 ,19.65315 
211 ,38.6683 ,0.98077 ,1.97559 ,19.38452 
212 ,38.8606 ,0.98257 ,1.95848 ,19.21663 
213 ,39.0523 ,0.98458 ,1.95164 ,19.14948 
214 ,39.2287 ,0.98640 ,1.92768 ,18.91443 
215 ,39.4048 ,0.98816 ,1.91399 ,18.78011 
216 ,39.5968 ,0.99006 ,1.91399 ,18.78011 
217 ,39.7888 ,0.99193 ,1.89346 ,18.57864 
218 ,39.9809 ,0.99391 ,1.86951 ,18.34360 
219 ,40.1569 ,0.99560 ,1.87635 ,18.41075 
220 ,40.3332 ,0.99742 ,1.84555 ,18.10855 
221 ,40.5092 ,0.99923 ,1.83186 ,17.97423 
222 ,40.7012 ,1.00109 ,1.82160 ,17.87350 
223 ,40.8773 ,1.00286 ,1.80449 ,17.70561 
224 ,41.0693 ,1.00468 ,1.79422 ,17.60487 
225 ,41.2776 ,1.00676 ,1.76684 ,17.33625 
226 ,41.4857 ,1.00889 ,1.73946 ,17.06762 
227 ,41.6778 ,1.01079 ,1.74973 ,17.16836 
228 ,41.8696 ,1.01277 ,1.71209 ,16.79899 
229 ,42.0619 ,1.01465 ,1.70866 ,16.76542 
230 ,42.2375 ,1.01650 ,1.68813 ,16.56395 
231 ,42.4142 ,1.01820 ,1.67444 ,16.42963 
232 ,42.6062 ,1.02014 ,1.65391 ,16.22816 
233 ,42.7822 ,1.02192 ,1.63680 ,16.06027 
234 ,42.9744 ,1.02373 ,1.62311 ,15.92596 
235 ,43.1663 ,1.02573 ,1.60258 ,15.72449 
236 ,43.3424 ,1.02746 ,1.59231 ,15.62375 
237 ,43.5182 ,1.02927 ,1.59916 ,15.69091 
238 ,43.6942 ,1.03103 ,1.59231 ,15.62375 
239 ,43.8703 ,1.03277 ,1.56836 ,15.38871 
240 ,44.0464 ,1.03456 ,1.53413 ,15.05292 
241 ,44.2223 ,1.03626 ,1.51360 ,14.85145 
242 ,44.3987 ,1.03809 ,1.51360 ,14.85145 
243 ,44.6230 ,1.04027 ,1.49991 ,14.71714 
244 ,44.8151 ,1.04220 ,1.49649 ,14.68356 
245 ,44.9912 ,1.04400 ,1.47938 ,14.51567 
246 ,45.1832 ,1.04588 ,1.46911 ,14.41493 
247 ,45.3594 ,1.04766 ,1.45542 ,14.28062 
248 ,45.5674 ,1.04964 ,1.42805 ,14.01199 
249 ,45.7595 ,1.05163 ,1.42805 ,14.01199 
250 ,45.9516 ,1.05357 ,1.40751 ,13.81053 
251 ,46.1596 ,1.05562 ,1.37329 ,13.47474 
252 ,46.3357 ,1.05740 ,1.38698 ,13.60906 
253 ,46.5120 ,1.05919 ,1.36645 ,13.40759 
254 ,46.7039 ,1.06110 ,1.35276 ,13.27327 
255 ,46.8957 ,1.06302 ,1.34249 ,13.17254 
256 ,47.0721 ,1.06477 ,1.31512 ,12.90391 
257 ,47.2643 ,1.06673 ,1.29458 ,12.70244 
258 ,47.4413 ,1.06851 ,1.29800 ,12.73602 
259 ,47.6323 ,1.07039 ,1.27063 ,12.46739 
260 ,47.8243 ,1.07229 ,1.26378 ,12.40024 
261 ,48.0005 ,1.07410 ,1.25694 ,12.33308 
262 ,48.1764 ,1.07589 ,1.22956 ,12.06445 
263 ,48.3686 ,1.07767 ,1.21929 ,11.96372 
264 ,48.5443 ,1.07951 ,1.19876 ,11.76225 
265 ,48.7208 ,1.08132 ,1.19876 ,11.76225 
266 ,48.9447 ,1.08336 ,1.16796 ,11.46004 
267 ,49.1210 ,1.08528 ,1.17823 ,11.56078 
268 ,49.3132 ,1.08718 ,1.14401 ,11.22500 
269 ,49.5049 ,1.08904 ,1.13032 ,11.09068 
270 ,49.6812 ,1.09085 ,1.13032 ,11.09068 
271 ,49.8731 ,1.09279 ,1.11663 ,10.95637 
272 ,50.0653 ,1.09457 ,1.09267 ,10.72132 
273 ,50.2733 ,1.09671 ,1.08583 ,10.65416 
274 ,50.4493 ,1.09849 ,1.06187 ,10.41912 
275 ,50.6255 ,1.10029 ,1.05845 ,10.38554 
276 ,50.8176 ,1.10223 ,1.05161 ,10.31838 
277 ,51.0095 ,1.10417 ,1.02081 ,10.01618 
278 ,51.1855 ,1.10588 ,1.02423 ,10.04976 
279 ,51.3776 ,1.10774 ,1.00712 ,9.88186 
280 ,51.5539 ,1.10962 ,1.00028 ,9.81471 
281 ,51.7295 ,1.11137 ,0.98317 ,9.64682 
282 ,51.9062 ,1.11312 ,0.96263 ,9.44535 
283 ,52.1140 ,1.11513 ,0.95579 ,9.37819 
284 ,52.2901 ,1.11694 ,0.94210 ,9.24388 
285 ,52.4662 ,1.11872 ,0.92157 ,9.04241 
286 ,52.6422 ,1.12048 ,0.92499 ,9.07598 
287 ,52.8180 ,1.12219 ,0.91814 ,9.00883 
288 ,52.9944 ,1.12397 ,0.88734 ,8.70662 
289 ,53.1545 ,1.12570 ,0.87708 ,8.60589 
290 ,53.3303 ,1.12730 ,0.85654 ,8.40442 
291 ,53.5063 ,1.12908 ,0.84970 ,8.33726 
292 ,53.6663 ,1.13077 ,0.85312 ,8.37084 
293 ,53.8266 ,1.13243 ,0.83259 ,8.16937 
294 ,54.0028 ,1.13407 ,0.81890 ,8.03506 
295 ,54.1949 ,1.13599 ,0.82575 ,8.10221 
296 ,54.3709 ,1.13775 ,0.81206 ,7.96790 
297 ,54.5630 ,1.13955 ,0.77784 ,7.63212 
298 ,54.7392 ,1.14144 ,0.79495 ,7.80001 
299 ,54.9308 ,1.14332 ,0.75388 ,7.39707 
300 ,55.1074 ,1.14513 ,0.74704 ,7.32991 
301 ,55.2993 ,1.14705 ,0.73335 ,7.19560 
302 ,55.4753 ,1.14873 ,0.73677 ,7.22918 
303 ,55.6516 ,1.15054 ,0.71624 ,7.02771 
304 ,55.8435 ,1.15243 ,0.71624 ,7.02771 
305 ,56.0192 ,1.15425 ,0.68886 ,6.75908 
306 ,56.1957 ,1.15599 ,0.69228 ,6.79266 
307 ,56.3718 ,1.15774 ,0.66148 ,6.49046 
308 ,56.5479 ,1.15950 ,0.63753 ,6.25541 
309 ,56.7558 ,1.16148 ,0.64095 ,6.28899 
310 ,56.9319 ,1.16330 ,0.62042 ,6.08752 
311 ,57.1081 ,1.16507 ,0.60330 ,5.91962 
312 ,57.2842 ,1.16685 ,0.60673 ,5.95320 
313 ,57.4762 ,1.16878 ,0.61015 ,5.98678 
314 ,57.6682 ,1.17062 ,0.57593 ,5.65100 
315 ,57.8603 ,1.17253 ,0.58277 ,5.71815 
316 ,58.0362 ,1.17437 ,0.55882 ,5.48311 
317 ,58.2124 ,1.17622 ,0.54513 ,5.34879 
318 ,58.4045 ,1.17801 ,0.53486 ,5.24806 
319 ,58.5807 ,1.17979 ,0.52459 ,5.14732 
320 ,58.7728 ,1.18177 ,0.50748 ,4.97943 
321 ,58.9486 ,1.18349 ,0.48353 ,4.74438 
322 ,59.1249 ,1.18526 ,0.47668 ,4.67723 
323 ,59.3169 ,1.18712 ,0.47326 ,4.64365 
324 ,59.4928 ,1.18893 ,0.47326 ,4.64365 
325 ,59.6851 ,1.19090 ,0.44931 ,4.40860 
326 ,59.8768 ,1.19272 ,0.43904 ,4.30787 
327 ,60.0371 ,1.19450 ,0.42535 ,4.17355 
328 ,60.2130 ,1.19616 ,0.40482 ,3.97208 
329 ,60.3893 ,1.19789 ,0.40140 ,3.93850 
330 ,60.5654 ,1.19970 ,0.38086 ,3.73703 
331 ,60.7415 ,1.20145 ,0.39797 ,3.90493 
332 ,60.9178 ,1.20320 ,0.37744 ,3.70346 
333 ,61.0936 ,1.20496 ,0.37402 ,3.66988 
334 ,61.2695 ,1.20670 ,0.33980 ,3.33410 
335 ,61.4458 ,1.20847 ,0.33638 ,3.30052 
336 ,61.6378 ,1.21040 ,0.33980 ,3.33410 
337 ,61.8299 ,1.21232 ,0.30900 ,3.03189 
338 ,62.0220 ,1.21416 ,0.29873 ,2.93116 
339 ,62.1978 ,1.21601 ,0.30215 ,2.96473 
340 ,62.3896 ,1.21788 ,0.28504 ,2.79684 
341 ,62.5660 ,1.21964 ,0.26451 ,2.59537 
342 ,62.7582 ,1.22162 ,0.27478 ,2.69611 
343 ,62.9501 ,1.22347 ,0.24740 ,2.42748 
344 ,63.1424 ,1.22538 ,0.25082 ,2.46106 
345 ,63.3183 ,1.22720 ,0.24055 ,2.36032 
346 ,63.4944 ,1.22895 ,0.22687 ,2.22601 
347 ,63.6706 ,1.23073 ,0.21318 ,2.09170 
348 ,63.8466 ,1.23251 ,0.19264 ,1.89023 
349 ,64.0227 ,1.23423 ,0.19264 ,1.89023 
350 ,64.2145 ,1.23614 ,0.17896 ,1.75592 
351 ,64.3908 ,1.23790 ,0.16185 ,1.58802 
352 ,64.5669 ,1.23965 ,0.15500 ,1.52087 
353 ,64.7588 ,1.24158 ,0.15500 ,1.52087 
354 ,64.9350 ,1.24332 ,0.12078 ,1.18508 
355 ,65.1113 ,1.24512 ,0.12078 ,1.18508 
356 ,65.2871 ,1.24688 ,0.12078 ,1.18508 
357 ,65.4631 ,1.24864 ,0.11393 ,1.11793 
358 ,65.6391 ,1.25038 ,0.08656 ,0.84930 
359 ,65.8634 ,1.25251 ,0.08656 ,0.84930 
360 ,66.0393 ,1.25440 ,0.07287 ,0.71499 
361 ,66.2315 ,1.25630 ,0.04549 ,0.44636 
362 ,66.4075 ,1.25805 ,0.03180 ,0.31205 
363 ,66.5835 ,1.25979 ,0.03865 ,0.37920 
364 ,66.7757 ,1.26170 ,0.01811 ,0.17773 
365 ,66.9518 ,1.26350 ,0.00100 ,0.00984 
366 ,67.1278 ,1.26532 ,0.01127 ,0.11058 
367 ,67.3040 ,1.26702 ,-0.00242 ,-0.02373 
368 ,67.5123 ,1.26906 ,-0.02637 ,-0.25878 
369 ,67.6878 ,1.27086 ,-0.02980 ,-0.29236 
370 ,67.8638 ,1.27258 ,-0.02637 ,-0.25878 
371 ,68.0399 ,1.27437 ,-0.04691 ,-0.46025 
372 ,68.2164 ,1.27615 ,-0.06744 ,-0.66172 
373 ,68.3924 ,1.27790 ,-0.06060 ,-0.59457 
374 ,68.5684 ,1.27962 ,-0.07428 ,-0.72888 
375 ,68.7441 ,1.28137 ,-0.07086 ,-0.69530 
376 ,68.9204 ,1.28319 ,-0.08455 ,-0.82961 
377 ,69.0963 ,1.28500 ,-0.10851 ,-1.06466 
378 ,69.2888 ,1.28683 ,-0.10851 ,-1.06466 
379 ,69.4645 ,1.28861 ,-0.11193 ,-1.09824 
380 ,69.6408 ,1.29039 ,-0.13588 ,-1.33329 
381 ,69.8169 ,1.29211 ,-0.15642 ,-1.53476 
382 ,69.9927 ,1.29392 ,-0.14957 ,-1.46760 
383 ,70.1691 ,1.29565 ,-0.14957 ,-1.46760 
384 ,70.3612 ,1.29760 ,-0.17011 ,-1.66907 
385 ,70.5373 ,1.29932 ,-0.19406 ,-1.90412 
386 ,70.7294 ,1.30116 ,-0.18722 ,-1.83696 
387 ,70.9213 ,1.30319 ,-0.20090 ,-1.97128 
388 ,71.1294 ,1.30511 ,-0.22828 ,-2.23990 
389 ,71.3054 ,1.30701 ,-0.21802 ,-2.13917 
390 ,71.4814 ,1.30881 ,-0.22828 ,-2.23990 
391 ,71.6737 ,1.31072 ,-0.26593 ,-2.60926 
392 ,71.8497 ,1.31250 ,-0.26250 ,-2.57569 
393 ,72.0259 ,1.31422 ,-0.25566 ,-2.50853 
394 ,72.2176 ,1.31611 ,-0.28646 ,-2.81073 
395 ,72.3939 ,1.31792 ,-0.28646 ,-2.81073 
396 ,72.5700 ,1.31969 ,-0.28304 ,-2.77716 
397 ,72.7622 ,1.32155 ,-0.31041 ,-3.04578 
398 ,72.9378 ,1.32334 ,-0.30699 ,-3.01220 
399 ,73.1144 ,1.32511 ,-0.33437 ,-3.28083 
400 ,73.3223 ,1.32715 ,-0.33437 ,-3.28083 
401 ,73.4984 ,1.32896 ,-0.34464 ,-3.38156 
402 ,73.6744 ,1.33072 ,-0.36517 ,-3.58303 
403 ,73.8505 ,1.33244 ,-0.35148 ,-3.44872 
404 ,74.0263 ,1.33419 ,-0.34121 ,-3.34799 
405 ,74.2027 ,1.33600 ,-0.37886 ,-3.71735 
406 ,74.3947 ,1.33793 ,-0.38570 ,-3.78450 
407 ,74.5709 ,1.33976 ,-0.38912 ,-3.81808 
408 ,74.7469 ,1.34143 ,-0.39255 ,-3.85166 
409 ,74.9226 ,1.34312 ,-0.40966 ,-4.01955 
410 ,75.0986 ,1.34493 ,-0.42677 ,-4.18744 
411 ,75.2587 ,1.34667 ,-0.43361 ,-4.25460 
412 ,75.4353 ,1.34834 ,-0.44388 ,-4.35534 
413 ,75.6434 ,1.35040 ,-0.45414 ,-4.45607 
414 ,75.8354 ,1.35225 ,-0.45757 ,-4.48965 
415 ,76.0116 ,1.35404 ,-0.45757 ,-4.48965 
416 ,76.1873 ,1.35585 ,-0.46783 ,-4.59038 
417 ,76.3797 ,1.35774 ,-0.48494 ,-4.75828 
418 ,76.5719 ,1.35956 ,-0.49521 ,-4.85901 
419 ,76.7638 ,1.36161 ,-0.48837 ,-4.79185 
420 ,76.9398 ,1.36330 ,-0.51232 ,-5.02690 
421 ,77.1321 ,1.36513 ,-0.51917 ,-5.09406 
422 ,77.3084 ,1.36704 ,-0.51917 ,-5.09406 
423 ,77.5001 ,1.36892 ,-0.53970 ,-5.29553 
424 ,77.6762 ,1.37069 ,-0.54997 ,-5.39626 
425 ,77.8526 ,1.37248 ,-0.53970 ,-5.29553 
426 ,78.0443 ,1.37439 ,-0.55681 ,-5.46342 
427 ,78.2204 ,1.37608 ,-0.56365 ,-5.53058 
428 ,78.3963 ,1.37793 ,-0.59103 ,-5.79920 
429 ,78.5882 ,1.37984 ,-0.57392 ,-5.63131 
430 ,78.7646 ,1.38156 ,-0.58419 ,-5.73205 
431 ,78.9726 ,1.38356 ,-0.60814 ,-5.96709 
432 ,79.1488 ,1.38539 ,-0.59445 ,-5.83278 
433 ,79.3409 ,1.38732 ,-0.62868 ,-6.16856 
434 ,79.5169 ,1.38905 ,-0.63210 ,-6.20214 
435 ,79.7092 ,1.39090 ,-0.63210 ,-6.20214 
436 ,79.8848 ,1.39278 ,-0.64579 ,-6.33646 
437 ,80.0608 ,1.39453 ,-0.67316 ,-6.60508 
438 ,80.2213 ,1.39627 ,-0.65605 ,-6.43719 
439 ,80.3810 ,1.39785 ,-0.66290 ,-6.50435 
440 ,80.5574 ,1.39944 ,-0.67316 ,-6.60508 
441 ,80.7654 ,1.40151 ,-0.68343 ,-6.70582 
442 ,80.9415 ,1.40336 ,-0.69027 ,-6.77297 
443 ,81.1174 ,1.40505 ,-0.69370 ,-6.80655 
444 ,81.2938 ,1.40682 ,-0.70054 ,-6.87371 
445 ,81.4854 ,1.40884 ,-0.72450 ,-7.10876 
446 ,81.6619 ,1.41052 ,-0.73134 ,-7.17591 
447 ,81.8538 ,1.41246 ,-0.73134 ,-7.17591 
448 ,82.0301 ,1.41421 ,-0.73134 ,-7.17591 
449 ,82.2221 ,1.41604 ,-0.74845 ,-7.34380 
450 ,82.4142 ,1.41794 ,-0.75872 ,-7.44454 
451 ,82.6063 ,1.41994 ,-0.76214 ,-7.47812 
452 ,82.7984 ,1.42188 ,-0.76898 ,-7.54527 
453 ,82.9744 ,1.42373 ,-0.77925 ,-7.64601 
454 ,83.1665 ,1.42561 ,-0.78952 ,-7.74674 
455 ,83.3426 ,1.42734 ,-0.80321 ,-7.88106 
456 ,83.5182 ,1.42909 ,-0.81005 ,-7.94821 
457 ,83.6947 ,1.43091 ,-0.79978 ,-7.84748 
458 ,83.8708 ,1.43263 ,-0.81005 ,-7.94821 
459 ,84.0469 ,1.43442 ,-0.83401 ,-8.18326 
460 ,84.2388 ,1.43630 ,-0.84769 ,-8.31758 
461 ,84.3989 ,1.43800 ,-0.84427 ,-8.28400 
462 ,84.5747 ,1.43961 ,-0.84769 ,-8.31758 
463 ,84.7512 ,1.44142 ,-0.85112 ,-8.35115 
