Data stamp = , 02-04-2022 08:46:55 374

Calibration Values: 
Slope = , 26.54 , g/V 
Offset Voltage at no contact = , -0.501760 , V 

No , Time , Stage Position ,   Mass , Force 
   ,  (s) ,      (mm)      ,   (g)  , (mN)  

1 ,0.0000 ,0.64952 ,5.12056 ,50.24298 
2 ,0.2127 ,0.64960 ,5.12399 ,50.27656 
3 ,0.5645 ,0.65055 ,5.11714 ,50.20940 
4 ,0.7568 ,0.65210 ,5.13083 ,50.34372 
5 ,0.9488 ,0.65386 ,5.12056 ,50.24298 
6 ,1.1410 ,0.65564 ,5.12056 ,50.24298 
7 ,1.3170 ,0.65737 ,5.12056 ,50.24298 
8 ,1.4930 ,0.65930 ,5.11714 ,50.20940 
9 ,1.6693 ,0.66100 ,5.10345 ,50.07509 
10 ,1.8454 ,0.66274 ,5.09319 ,49.97436 
11 ,2.0374 ,0.66466 ,5.08977 ,49.94078 
12 ,2.2134 ,0.66644 ,5.07950 ,49.84004 
13 ,2.3895 ,0.66820 ,5.05897 ,49.63857 
14 ,2.5656 ,0.66989 ,5.03843 ,49.43710 
15 ,2.7419 ,0.67171 ,5.02817 ,49.33637 
16 ,2.9175 ,0.67345 ,5.01790 ,49.23563 
17 ,3.1259 ,0.67549 ,5.00079 ,49.06774 
18 ,3.3020 ,0.67733 ,4.98710 ,48.93343 
19 ,3.4780 ,0.67918 ,4.98026 ,48.86627 
20 ,3.6378 ,0.68077 ,4.95288 ,48.59764 
21 ,3.8143 ,0.68243 ,4.93919 ,48.46333 
22 ,3.9902 ,0.68418 ,4.91523 ,48.22828 
23 ,4.1664 ,0.68591 ,4.90497 ,48.12755 
24 ,4.3584 ,0.68782 ,4.90497 ,48.12755 
25 ,4.5341 ,0.68963 ,4.87759 ,47.85892 
26 ,4.6942 ,0.69135 ,4.85021 ,47.59030 
27 ,4.8706 ,0.69294 ,4.82968 ,47.38883 
28 ,5.0788 ,0.69504 ,4.82626 ,47.35525 
29 ,5.2708 ,0.69694 ,4.77835 ,46.88515 
30 ,5.4469 ,0.69869 ,4.77835 ,46.88515 
31 ,5.6229 ,0.70050 ,4.76808 ,46.78442 
32 ,5.8150 ,0.70241 ,4.75097 ,46.61653 
33 ,5.9908 ,0.70419 ,4.70648 ,46.18001 
34 ,6.1673 ,0.70591 ,4.68595 ,45.97854 
35 ,6.3434 ,0.70773 ,4.67911 ,45.91138 
36 ,6.5354 ,0.70963 ,4.66199 ,45.74349 
37 ,6.7112 ,0.71142 ,4.63119 ,45.44128 
38 ,6.8875 ,0.71317 ,4.60724 ,45.20624 
39 ,7.0636 ,0.71490 ,4.60382 ,45.17266 
40 ,7.2398 ,0.71665 ,4.57644 ,44.90403 
41 ,7.4156 ,0.71843 ,4.56275 ,44.76972 
42 ,7.5919 ,0.72021 ,4.52511 ,44.40036 
43 ,7.7836 ,0.72209 ,4.51484 ,44.29962 
44 ,7.9601 ,0.72391 ,4.49773 ,44.13173 
45 ,8.1522 ,0.72582 ,4.47035 ,43.86310 
46 ,8.3282 ,0.72760 ,4.44982 ,43.66163 
47 ,8.5043 ,0.72935 ,4.44640 ,43.62806 
48 ,8.6962 ,0.73123 ,4.42244 ,43.39301 
49 ,8.8882 ,0.73303 ,4.39164 ,43.09080 
50 ,9.0801 ,0.73494 ,4.38822 ,43.05723 
51 ,9.2566 ,0.73681 ,4.36769 ,42.85576 
52 ,9.4330 ,0.73863 ,4.34373 ,42.62071 
53 ,9.6248 ,0.74051 ,4.32320 ,42.41924 
54 ,9.8008 ,0.74226 ,4.31636 ,42.35208 
55 ,9.9769 ,0.74402 ,4.29582 ,42.15061 
56 ,10.1689 ,0.74592 ,4.26502 ,41.84841 
57 ,10.3451 ,0.74770 ,4.23765 ,41.57978 
58 ,10.5371 ,0.74964 ,4.25133 ,41.71409 
59 ,10.7132 ,0.75136 ,4.22738 ,41.47905 
60 ,10.8890 ,0.75315 ,4.18974 ,41.10968 
61 ,11.0654 ,0.75491 ,4.17947 ,41.00895 
62 ,11.2735 ,0.75700 ,4.16236 ,40.84106 
63 ,11.4494 ,0.75877 ,4.15209 ,40.74032 
64 ,11.6255 ,0.76049 ,4.12129 ,40.43812 
65 ,11.8015 ,0.76223 ,4.12129 ,40.43812 
66 ,11.9933 ,0.76407 ,4.09734 ,40.20307 
67 ,12.1697 ,0.76595 ,4.07338 ,39.96802 
68 ,12.3618 ,0.76788 ,4.06312 ,39.86729 
69 ,12.5860 ,0.76990 ,4.03232 ,39.56508 
70 ,12.7781 ,0.77202 ,4.01178 ,39.36361 
71 ,12.9538 ,0.77376 ,3.98783 ,39.12856 
72 ,13.1301 ,0.77558 ,3.95703 ,38.82636 
73 ,13.3061 ,0.77734 ,3.95361 ,38.79278 
74 ,13.4819 ,0.77906 ,3.95703 ,38.82636 
75 ,13.6583 ,0.78080 ,3.93992 ,38.65847 
76 ,13.8505 ,0.78275 ,3.89885 ,38.25553 
77 ,14.0425 ,0.78468 ,3.88858 ,38.15479 
78 ,14.2186 ,0.78644 ,3.88174 ,38.08764 
79 ,14.3944 ,0.78822 ,3.86121 ,37.88617 
80 ,14.5707 ,0.78991 ,3.83383 ,37.61754 
81 ,14.7468 ,0.79170 ,3.80645 ,37.34891 
82 ,14.9229 ,0.79346 ,3.80645 ,37.34891 
83 ,15.0988 ,0.79524 ,3.80303 ,37.31534 
84 ,15.2751 ,0.79698 ,3.77223 ,37.01313 
85 ,15.4671 ,0.79884 ,3.74485 ,36.74450 
86 ,15.6429 ,0.80068 ,3.73459 ,36.64377 
87 ,15.8193 ,0.80241 ,3.71748 ,36.47588 
88 ,15.9954 ,0.80419 ,3.70379 ,36.34157 
89 ,16.1874 ,0.80607 ,3.66614 ,35.97220 
90 ,16.3794 ,0.80798 ,3.67299 ,36.03936 
91 ,16.5877 ,0.81007 ,3.64219 ,35.73716 
92 ,16.7636 ,0.81189 ,3.62850 ,35.60284 
93 ,16.9402 ,0.81367 ,3.61481 ,35.46853 
94 ,17.1318 ,0.81555 ,3.59770 ,35.30064 
95 ,17.3077 ,0.81728 ,3.57032 ,35.03201 
96 ,17.4841 ,0.81912 ,3.56006 ,34.93128 
97 ,17.6599 ,0.82085 ,3.56006 ,34.93128 
98 ,17.8362 ,0.82262 ,3.52926 ,34.62907 
99 ,18.0123 ,0.82432 ,3.50872 ,34.42760 
100 ,18.2202 ,0.82643 ,3.50530 ,34.39402 
101 ,18.3963 ,0.82818 ,3.49504 ,34.29329 
102 ,18.5721 ,0.82995 ,3.45739 ,33.92393 
103 ,18.7645 ,0.83180 ,3.46081 ,33.95751 
104 ,18.9405 ,0.83363 ,3.44028 ,33.75604 
105 ,19.1327 ,0.83544 ,3.40948 ,33.45383 
106 ,19.3086 ,0.83732 ,3.39237 ,33.28594 
107 ,19.4845 ,0.83904 ,3.39579 ,33.31952 
108 ,19.6608 ,0.84082 ,3.37526 ,33.11805 
109 ,19.8527 ,0.84267 ,3.34788 ,32.84942 
110 ,20.0450 ,0.84457 ,3.33419 ,32.71511 
111 ,20.2372 ,0.84662 ,3.30682 ,32.44648 
112 ,20.4290 ,0.84846 ,3.28971 ,32.27859 
113 ,20.6052 ,0.85027 ,3.28971 ,32.27859 
114 ,20.7811 ,0.85203 ,3.26233 ,32.00996 
115 ,20.9574 ,0.85381 ,3.26233 ,32.00996 
116 ,21.1335 ,0.85553 ,3.22468 ,31.64060 
117 ,21.3413 ,0.85754 ,3.22468 ,31.64060 
118 ,21.5173 ,0.85938 ,3.20073 ,31.40555 
119 ,21.7097 ,0.86126 ,3.17335 ,31.13693 
120 ,21.8857 ,0.86311 ,3.16993 ,31.10335 
121 ,22.0616 ,0.86484 ,3.15624 ,30.96904 
122 ,22.2538 ,0.86668 ,3.13229 ,30.73399 
123 ,22.4459 ,0.86869 ,3.11518 ,30.56610 
124 ,22.6218 ,0.87042 ,3.10491 ,30.46536 
125 ,22.7981 ,0.87219 ,3.08438 ,30.26389 
126 ,22.9740 ,0.87399 ,3.07069 ,30.12958 
127 ,23.1502 ,0.87574 ,3.04331 ,29.86095 
128 ,23.3262 ,0.87746 ,3.04331 ,29.86095 
129 ,23.5024 ,0.87923 ,3.02962 ,29.72664 
130 ,23.6784 ,0.88102 ,3.01593 ,29.59233 
131 ,23.8543 ,0.88273 ,2.97829 ,29.22297 
132 ,24.0306 ,0.88452 ,2.97829 ,29.22297 
133 ,24.2064 ,0.88631 ,2.95091 ,28.95434 
134 ,24.3827 ,0.88803 ,2.94749 ,28.92076 
135 ,24.5588 ,0.88978 ,2.92696 ,28.71929 
136 ,24.7348 ,0.89154 ,2.91669 ,28.61856 
137 ,24.9109 ,0.89332 ,2.90300 ,28.48424 
138 ,25.0869 ,0.89509 ,2.87562 ,28.21562 
139 ,25.2630 ,0.89688 ,2.86536 ,28.11488 
140 ,25.4397 ,0.89861 ,2.85167 ,27.98057 
141 ,25.6311 ,0.90052 ,2.83456 ,27.81268 
142 ,25.7911 ,0.90227 ,2.83114 ,27.77910 
143 ,25.9673 ,0.90387 ,2.82087 ,27.67836 
144 ,26.1433 ,0.90562 ,2.79007 ,27.37616 
145 ,26.3195 ,0.90736 ,2.77296 ,27.20827 
146 ,26.4955 ,0.90917 ,2.75927 ,27.07395 
147 ,26.6717 ,0.91093 ,2.74558 ,26.93964 
148 ,26.8637 ,0.91282 ,2.73874 ,26.87248 
149 ,27.0399 ,0.91462 ,2.71820 ,26.67101 
150 ,27.2155 ,0.91635 ,2.68398 ,26.33523 
151 ,27.3919 ,0.91811 ,2.67029 ,26.20092 
152 ,27.5678 ,0.91983 ,2.67029 ,26.20092 
153 ,27.7601 ,0.92170 ,2.66003 ,26.10018 
154 ,27.9362 ,0.92357 ,2.61896 ,25.69724 
155 ,28.1444 ,0.92561 ,2.61896 ,25.69724 
156 ,28.3203 ,0.92743 ,2.60185 ,25.52935 
157 ,28.4964 ,0.92918 ,2.57447 ,25.26073 
158 ,28.6725 ,0.93091 ,2.56078 ,25.12641 
159 ,28.8644 ,0.93285 ,2.56078 ,25.12641 
160 ,29.0407 ,0.93458 ,2.55052 ,25.02568 
161 ,29.2325 ,0.93648 ,2.51972 ,24.72347 
162 ,29.4245 ,0.93833 ,2.50261 ,24.55558 
163 ,29.6168 ,0.94034 ,2.47523 ,24.28696 
164 ,29.7928 ,0.94211 ,2.46154 ,24.15264 
165 ,29.9684 ,0.94400 ,2.45470 ,24.08549 
166 ,30.1451 ,0.94566 ,2.45812 ,24.11906 
167 ,30.3212 ,0.94743 ,2.42732 ,23.81686 
168 ,30.5130 ,0.94923 ,2.39652 ,23.51465 
169 ,30.6889 ,0.95107 ,2.39652 ,23.51465 
170 ,30.8653 ,0.95279 ,2.37941 ,23.34676 
171 ,31.0413 ,0.95455 ,2.35545 ,23.11171 
172 ,31.2175 ,0.95639 ,2.33834 ,22.94382 
173 ,31.3934 ,0.95817 ,2.32808 ,22.84309 
174 ,31.5696 ,0.95989 ,2.31781 ,22.74235 
175 ,31.7456 ,0.96162 ,2.30412 ,22.60804 
176 ,31.9536 ,0.96365 ,2.29043 ,22.47373 
177 ,32.1299 ,0.96547 ,2.26990 ,22.27226 
178 ,32.3218 ,0.96738 ,2.24937 ,22.07079 
179 ,32.4980 ,0.96914 ,2.23226 ,21.90290 
180 ,32.6901 ,0.97099 ,2.22199 ,21.80216 
181 ,32.8659 ,0.97283 ,2.21172 ,21.70143 
182 ,33.0579 ,0.97468 ,2.18092 ,21.39922 
183 ,33.2342 ,0.97650 ,2.16039 ,21.19775 
184 ,33.4263 ,0.97844 ,2.17066 ,21.29849 
185 ,33.6182 ,0.98031 ,2.15012 ,21.09702 
186 ,33.7944 ,0.98210 ,2.12275 ,20.82839 
187 ,33.9705 ,0.98386 ,2.11932 ,20.79481 
188 ,34.1462 ,0.98564 ,2.09879 ,20.59334 
189 ,34.3225 ,0.98736 ,2.09195 ,20.52619 
190 ,34.5146 ,0.98927 ,2.07141 ,20.32472 
191 ,34.6908 ,0.99107 ,2.06457 ,20.25756 
192 ,34.8827 ,0.99303 ,2.05088 ,20.12325 
193 ,35.0748 ,0.99490 ,2.02350 ,19.85462 
194 ,35.2509 ,0.99665 ,2.01666 ,19.78746 
195 ,35.4271 ,0.99841 ,1.98928 ,19.51884 
196 ,35.6512 ,1.00044 ,1.96875 ,19.31737 
197 ,35.8434 ,1.00264 ,1.95848 ,19.21663 
198 ,36.0194 ,1.00434 ,1.94479 ,19.08232 
199 ,36.2115 ,1.00625 ,1.93795 ,19.01516 
200 ,36.3873 ,1.00803 ,1.92084 ,18.84727 
201 ,36.5636 ,1.00981 ,1.91057 ,18.74654 
202 ,36.7553 ,1.01176 ,1.87977 ,18.44433 
203 ,36.9317 ,1.01344 ,1.88319 ,18.47791 
204 ,37.1077 ,1.01522 ,1.86266 ,18.27644 
205 ,37.2839 ,1.01700 ,1.83871 ,18.04139 
206 ,37.4759 ,1.01888 ,1.83186 ,17.97423 
207 ,37.6521 ,1.02062 ,1.82160 ,17.87350 
208 ,37.8599 ,1.02268 ,1.79422 ,17.60487 
209 ,38.0362 ,1.02452 ,1.77369 ,17.40340 
210 ,38.2120 ,1.02625 ,1.78053 ,17.47056 
211 ,38.4199 ,1.02829 ,1.74973 ,17.16836 
212 ,38.6122 ,1.03020 ,1.74973 ,17.16836 
213 ,38.8045 ,1.03212 ,1.73604 ,17.03404 
214 ,38.9805 ,1.03400 ,1.69840 ,16.66468 
215 ,39.1563 ,1.03572 ,1.68813 ,16.56395 
216 ,39.3487 ,1.03766 ,1.68813 ,16.56395 
217 ,39.5246 ,1.03944 ,1.67444 ,16.42963 
218 ,39.7008 ,1.04112 ,1.64022 ,16.09385 
219 ,39.8768 ,1.04290 ,1.63338 ,16.02669 
220 ,40.0528 ,1.04464 ,1.62995 ,15.99311 
221 ,40.2287 ,1.04644 ,1.62311 ,15.92596 
222 ,40.4046 ,1.04816 ,1.61969 ,15.89238 
223 ,40.5807 ,1.04994 ,1.58889 ,15.59018 
224 ,40.7571 ,1.05173 ,1.55124 ,15.22081 
225 ,40.9813 ,1.05383 ,1.55467 ,15.25439 
226 ,41.1734 ,1.05584 ,1.53756 ,15.08650 
227 ,41.3654 ,1.05778 ,1.53071 ,15.01934 
228 ,41.5411 ,1.05954 ,1.51018 ,14.81787 
229 ,41.7174 ,1.06130 ,1.49307 ,14.64998 
230 ,41.8938 ,1.06311 ,1.48280 ,14.54925 
231 ,42.0698 ,1.06486 ,1.47938 ,14.51567 
232 ,42.2457 ,1.06657 ,1.47253 ,14.44851 
233 ,42.4217 ,1.06840 ,1.44174 ,14.14631 
234 ,42.6137 ,1.07024 ,1.44174 ,14.14631 
235 ,42.7900 ,1.07202 ,1.43147 ,14.04557 
236 ,42.9822 ,1.07400 ,1.39725 ,13.70979 
237 ,43.1582 ,1.07572 ,1.37329 ,13.47474 
238 ,43.3344 ,1.07748 ,1.38014 ,13.54190 
239 ,43.5263 ,1.07941 ,1.36987 ,13.44116 
240 ,43.7020 ,1.08114 ,1.35276 ,13.27327 
241 ,43.8785 ,1.08291 ,1.33565 ,13.10538 
242 ,44.0546 ,1.08479 ,1.32880 ,13.03822 
243 ,44.2303 ,1.08645 ,1.32538 ,13.00465 
244 ,44.4228 ,1.08824 ,1.31169 ,12.87033 
245 ,44.6148 ,1.09028 ,1.28774 ,12.63528 
246 ,44.7906 ,1.09204 ,1.28432 ,12.60171 
247 ,44.9669 ,1.09379 ,1.26720 ,12.43381 
248 ,45.1591 ,1.09573 ,1.23641 ,12.13161 
249 ,45.3351 ,1.09753 ,1.22956 ,12.06445 
250 ,45.5110 ,1.09922 ,1.23298 ,12.09803 
251 ,45.7191 ,1.10131 ,1.19876 ,11.76225 
252 ,45.8953 ,1.10318 ,1.20903 ,11.86298 
253 ,46.0874 ,1.10496 ,1.17481 ,11.52720 
254 ,46.2635 ,1.10680 ,1.16796 ,11.46004 
255 ,46.4401 ,1.10853 ,1.13716 ,11.15784 
256 ,46.6155 ,1.11031 ,1.13374 ,11.12426 
257 ,46.8078 ,1.11216 ,1.13374 ,11.12426 
258 ,46.9995 ,1.11405 ,1.10979 ,10.88921 
259 ,47.1759 ,1.11589 ,1.09267 ,10.72132 
260 ,47.3681 ,1.11774 ,1.08583 ,10.65416 
261 ,47.5601 ,1.11962 ,1.06872 ,10.48627 
262 ,47.7363 ,1.12152 ,1.05845 ,10.38554 
263 ,47.9117 ,1.12319 ,1.05503 ,10.35196 
264 ,48.0883 ,1.12500 ,1.04134 ,10.21765 
265 ,48.2803 ,1.12691 ,1.01396 ,9.94902 
266 ,48.4565 ,1.12867 ,1.01396 ,9.94902 
267 ,48.6485 ,1.13058 ,1.01739 ,9.98260 
268 ,48.8244 ,1.13239 ,0.99343 ,9.74755 
269 ,49.0003 ,1.13415 ,0.95921 ,9.41177 
270 ,49.1766 ,1.13589 ,0.96263 ,9.44535 
271 ,49.3688 ,1.13778 ,0.94552 ,9.27745 
272 ,49.5450 ,1.13960 ,0.93183 ,9.14314 
273 ,49.7209 ,1.14131 ,0.91472 ,8.97525 
274 ,49.8971 ,1.14307 ,0.91472 ,8.97525 
275 ,50.0890 ,1.14497 ,0.90788 ,8.90809 
276 ,50.2651 ,1.14678 ,0.89761 ,8.80736 
277 ,50.4413 ,1.14851 ,0.87366 ,8.57231 
278 ,50.6173 ,1.15032 ,0.85654 ,8.40442 
279 ,50.8093 ,1.15215 ,0.85312 ,8.37084 
280 ,50.9854 ,1.15392 ,0.83943 ,8.23653 
281 ,51.1774 ,1.15589 ,0.82917 ,8.13579 
282 ,51.3696 ,1.15782 ,0.80863 ,7.93432 
283 ,51.5617 ,1.15972 ,0.79495 ,7.80001 
284 ,51.7378 ,1.16151 ,0.78468 ,7.69927 
285 ,51.9299 ,1.16344 ,0.79152 ,7.76643 
286 ,52.1054 ,1.16514 ,0.77784 ,7.63212 
287 ,52.2817 ,1.16692 ,0.74361 ,7.29633 
288 ,52.4740 ,1.16880 ,0.74704 ,7.32991 
289 ,52.6500 ,1.17062 ,0.73677 ,7.22918 
290 ,52.8422 ,1.17247 ,0.70597 ,6.92697 
291 ,53.0180 ,1.17429 ,0.68886 ,6.75908 
292 ,53.1938 ,1.17604 ,0.69913 ,6.85982 
293 ,53.3703 ,1.17778 ,0.69570 ,6.82624 
294 ,53.5464 ,1.17959 ,0.66490 ,6.52403 
295 ,53.7387 ,1.18148 ,0.64779 ,6.35614 
296 ,53.9145 ,1.18324 ,0.64779 ,6.35614 
297 ,54.0907 ,1.18496 ,0.64095 ,6.28899 
298 ,54.2823 ,1.18693 ,0.61357 ,6.02036 
299 ,54.4587 ,1.18868 ,0.59304 ,5.81889 
300 ,54.6349 ,1.19044 ,0.59304 ,5.81889 
301 ,54.8270 ,1.19222 ,0.58962 ,5.78531 
302 ,55.0192 ,1.19425 ,0.56566 ,5.55026 
303 ,55.1951 ,1.19608 ,0.56224 ,5.51668 
304 ,55.3870 ,1.19798 ,0.54855 ,5.38237 
305 ,55.5792 ,1.19977 ,0.52802 ,5.18090 
306 ,55.7872 ,1.20187 ,0.52802 ,5.18090 
307 ,55.9633 ,1.20369 ,0.50406 ,4.94585 
308 ,56.1550 ,1.20557 ,0.50064 ,4.91228 
309 ,56.3316 ,1.20741 ,0.49722 ,4.87870 
310 ,56.5233 ,1.20926 ,0.46642 ,4.57649 
311 ,56.7156 ,1.21130 ,0.45615 ,4.47576 
312 ,56.8917 ,1.21302 ,0.45615 ,4.47576 
313 ,57.0677 ,1.21476 ,0.44246 ,4.34144 
314 ,57.2439 ,1.21652 ,0.43220 ,4.24071 
315 ,57.4196 ,1.21823 ,0.40824 ,4.00566 
316 ,57.5960 ,1.22003 ,0.38429 ,3.77061 
317 ,57.8042 ,1.22203 ,0.37402 ,3.66988 
318 ,57.9800 ,1.22388 ,0.36718 ,3.60272 
319 ,58.1722 ,1.22576 ,0.36033 ,3.53557 
320 ,58.3483 ,1.22754 ,0.35691 ,3.50199 
321 ,58.5240 ,1.22930 ,0.34322 ,3.36767 
322 ,58.7165 ,1.23114 ,0.32611 ,3.19978 
323 ,58.9086 ,1.23311 ,0.31926 ,3.13263 
324 ,59.0847 ,1.23496 ,0.31242 ,3.06547 
325 ,59.2608 ,1.23669 ,0.28504 ,2.79684 
326 ,59.4528 ,1.23857 ,0.30558 ,2.99831 
327 ,59.6285 ,1.24041 ,0.29189 ,2.86400 
328 ,59.8049 ,1.24207 ,0.25767 ,2.52822 
329 ,59.9810 ,1.24388 ,0.24740 ,2.42748 
330 ,60.1731 ,1.24580 ,0.25424 ,2.49464 
331 ,60.3491 ,1.24758 ,0.23371 ,2.29317 
332 ,60.5412 ,1.24948 ,0.21660 ,2.12528 
333 ,60.7171 ,1.25121 ,0.20291 ,1.99096 
334 ,60.8934 ,1.25300 ,0.20291 ,1.99096 
335 ,61.0695 ,1.25480 ,0.18922 ,1.85665 
336 ,61.2453 ,1.25656 ,0.16869 ,1.65518 
337 ,61.4216 ,1.25829 ,0.17211 ,1.68876 
338 ,61.5975 ,1.26004 ,0.13447 ,1.31940 
339 ,61.7737 ,1.26179 ,0.15158 ,1.48729 
340 ,61.9496 ,1.26358 ,0.14816 ,1.45371 
341 ,62.1260 ,1.26533 ,0.12078 ,1.18508 
342 ,62.3020 ,1.26710 ,0.10709 ,1.05077 
343 ,62.4940 ,1.26901 ,0.09682 ,0.95004 
344 ,62.6700 ,1.27073 ,0.09682 ,0.95004 
345 ,62.8622 ,1.27268 ,0.05918 ,0.58067 
346 ,63.0542 ,1.27459 ,0.07629 ,0.74857 
347 ,63.2304 ,1.27637 ,0.06260 ,0.61425 
348 ,63.4225 ,1.27829 ,0.03865 ,0.37920 
349 ,63.5984 ,1.28004 ,0.02496 ,0.24489 
350 ,63.7745 ,1.28177 ,0.02838 ,0.27847 
351 ,63.9665 ,1.28368 ,0.00785 ,0.07700 
352 ,64.1587 ,1.28559 ,0.00443 ,0.04342 
353 ,64.3350 ,1.28740 ,-0.00242 ,-0.02373 
354 ,64.5265 ,1.28925 ,-0.01953 ,-0.19163 
355 ,64.6867 ,1.29103 ,-0.04006 ,-0.39310 
356 ,64.8628 ,1.29271 ,-0.04006 ,-0.39310 
357 ,65.0552 ,1.29457 ,-0.04006 ,-0.39310 
358 ,65.2472 ,1.29653 ,-0.05375 ,-0.52741 
359 ,65.4228 ,1.29825 ,-0.08455 ,-0.82961 
360 ,65.5994 ,1.30004 ,-0.09824 ,-0.96393 
361 ,65.7912 ,1.30189 ,-0.09140 ,-0.89677 
362 ,65.9832 ,1.30383 ,-0.11877 ,-1.16540 
363 ,66.1595 ,1.30562 ,-0.12904 ,-1.26613 
364 ,66.3517 ,1.30757 ,-0.12219 ,-1.19898 
365 ,66.5278 ,1.30928 ,-0.13931 ,-1.36687 
366 ,66.7198 ,1.31119 ,-0.16668 ,-1.63549 
367 ,66.9119 ,1.31308 ,-0.15642 ,-1.53476 
368 ,67.0880 ,1.31496 ,-0.15984 ,-1.56834 
369 ,67.2641 ,1.31667 ,-0.19064 ,-1.87054 
370 ,67.4406 ,1.31842 ,-0.22144 ,-2.17275 
371 ,67.6323 ,1.32033 ,-0.21117 ,-2.07201 
372 ,67.8244 ,1.32219 ,-0.23170 ,-2.27348 
373 ,68.0003 ,1.32406 ,-0.22828 ,-2.23990 
374 ,68.1925 ,1.32587 ,-0.22486 ,-2.20632 
375 ,68.4004 ,1.32798 ,-0.25908 ,-2.54211 
376 ,68.5766 ,1.32977 ,-0.27277 ,-2.67642 
377 ,68.7527 ,1.33154 ,-0.26935 ,-2.64284 
378 ,68.9286 ,1.33333 ,-0.26593 ,-2.60926 
379 ,69.1044 ,1.33516 ,-0.31041 ,-3.04578 
380 ,69.2805 ,1.33681 ,-0.30357 ,-2.97863 
381 ,69.4571 ,1.33859 ,-0.31384 ,-3.07936 
382 ,69.6487 ,1.34051 ,-0.30357 ,-2.97863 
383 ,69.8252 ,1.34229 ,-0.33437 ,-3.28083 
384 ,70.0012 ,1.34411 ,-0.33779 ,-3.31441 
385 ,70.1768 ,1.34588 ,-0.32752 ,-3.21367 
386 ,70.3534 ,1.34758 ,-0.34806 ,-3.41514 
387 ,70.5292 ,1.34930 ,-0.35832 ,-3.51588 
388 ,70.7375 ,1.35133 ,-0.38570 ,-3.78450 
389 ,70.9136 ,1.35318 ,-0.38570 ,-3.78450 
390 ,71.1057 ,1.35494 ,-0.38912 ,-3.81808 
391 ,71.2813 ,1.35684 ,-0.40623 ,-3.98597 
392 ,71.4579 ,1.35860 ,-0.41992 ,-4.12029 
393 ,71.6499 ,1.36053 ,-0.40966 ,-4.01955 
394 ,71.8260 ,1.36228 ,-0.42335 ,-4.15387 
395 ,72.0022 ,1.36407 ,-0.44388 ,-4.35534 
396 ,72.1941 ,1.36592 ,-0.44046 ,-4.32176 
397 ,72.4022 ,1.36796 ,-0.45414 ,-4.45607 
398 ,72.5944 ,1.37002 ,-0.46099 ,-4.52323 
399 ,72.8023 ,1.37197 ,-0.48837 ,-4.79185 
400 ,72.9785 ,1.37378 ,-0.48837 ,-4.79185 
401 ,73.1544 ,1.37552 ,-0.49179 ,-4.82543 
402 ,73.3464 ,1.37733 ,-0.49521 ,-4.85901 
403 ,73.5226 ,1.37924 ,-0.51917 ,-5.09406 
404 ,73.7146 ,1.38117 ,-0.52601 ,-5.16121 
405 ,73.9065 ,1.38306 ,-0.54312 ,-5.32911 
406 ,74.0830 ,1.38481 ,-0.54997 ,-5.39626 
407 ,74.2908 ,1.38684 ,-0.55339 ,-5.42984 
408 ,74.4671 ,1.38866 ,-0.54997 ,-5.39626 
409 ,74.6431 ,1.39042 ,-0.57392 ,-5.63131 
410 ,74.8193 ,1.39220 ,-0.58419 ,-5.73205 
411 ,74.9953 ,1.39401 ,-0.59788 ,-5.86636 
412 ,75.1874 ,1.39584 ,-0.58419 ,-5.73205 
413 ,75.3796 ,1.39768 ,-0.59788 ,-5.86636 
414 ,75.5556 ,1.39952 ,-0.61499 ,-6.03425 
415 ,75.7476 ,1.40147 ,-0.60130 ,-5.89994 
416 ,75.9398 ,1.40328 ,-0.62525 ,-6.13499 
417 ,76.1159 ,1.40517 ,-0.64579 ,-6.33646 
418 ,76.2919 ,1.40696 ,-0.64236 ,-6.30288 
419 ,76.4839 ,1.40886 ,-0.64579 ,-6.33646 
420 ,76.6600 ,1.41064 ,-0.66290 ,-6.50435 
421 ,76.8521 ,1.41242 ,-0.67659 ,-6.63866 
422 ,77.0443 ,1.41446 ,-0.67659 ,-6.63866 
423 ,77.2202 ,1.41623 ,-0.70054 ,-6.87371 
424 ,77.3961 ,1.41794 ,-0.70739 ,-6.94086 
425 ,77.5721 ,1.41970 ,-0.70739 ,-6.94086 
426 ,77.7482 ,1.42150 ,-0.70739 ,-6.94086 
427 ,77.9407 ,1.42338 ,-0.72450 ,-7.10876 
428 ,78.1165 ,1.42515 ,-0.73476 ,-7.20949 
429 ,78.2926 ,1.42689 ,-0.73134 ,-7.17591 
430 ,78.4688 ,1.42868 ,-0.74161 ,-7.27665 
431 ,78.6445 ,1.43040 ,-0.76898 ,-7.54527 
432 ,78.8209 ,1.43222 ,-0.75872 ,-7.44454 
433 ,79.0291 ,1.43416 ,-0.76898 ,-7.54527 
434 ,79.2211 ,1.43614 ,-0.77925 ,-7.64601 
435 ,79.4130 ,1.43805 ,-0.77925 ,-7.64601 
436 ,79.5891 ,1.43990 ,-0.77583 ,-7.61243 
437 ,79.7653 ,1.44162 ,-0.79978 ,-7.84748 
438 ,79.9573 ,1.44352 ,-0.82374 ,-8.08253 
439 ,80.1335 ,1.44531 ,-0.82032 ,-8.04895 
440 ,80.3095 ,1.44709 ,-0.81347 ,-7.98179 
441 ,80.5018 ,1.44891 ,-0.82716 ,-8.11611 
442 ,80.6936 ,1.45089 ,-0.85454 ,-8.38473 
443 ,80.8697 ,1.45269 ,-0.84769 ,-8.31758 
444 ,81.0779 ,1.45473 ,-0.86481 ,-8.48547 
445 ,81.2538 ,1.45654 ,-0.86823 ,-8.51904 
446 ,81.4458 ,1.45842 ,-0.87507 ,-8.58620 
447 ,81.6217 ,1.46019 ,-0.87849 ,-8.61978 
448 ,81.7978 ,1.46197 ,-0.88876 ,-8.72051 
449 ,81.9901 ,1.46384 ,-0.88534 ,-8.68694 
450 ,82.1662 ,1.46563 ,-0.90929 ,-8.92198 
451 ,82.3424 ,1.46744 ,-0.89218 ,-8.75409 
452 ,82.5183 ,1.46920 ,-0.92983 ,-9.12345 
453 ,82.6945 ,1.47098 ,-0.93325 ,-9.15703 
454 ,82.8862 ,1.47279 ,-0.92640 ,-9.08988 
455 ,83.0626 ,1.47461 ,-0.92640 ,-9.08988 
456 ,83.2544 ,1.47656 ,-0.96063 ,-9.42566 
457 ,83.4308 ,1.47827 ,-0.95036 ,-9.32492 
458 ,83.6229 ,1.48012 ,-0.97431 ,-9.55997 
459 ,83.8149 ,1.48207 ,-0.97431 ,-9.55997 
460 ,84.0069 ,1.48404 ,-0.96747 ,-9.49282 
461 ,84.1987 ,1.48589 ,-0.99485 ,-9.76144 
462 ,84.3751 ,1.48768 ,-1.00854 ,-9.89576 
