Data stamp = , 03-04-2022 08:50:18 423

Calibration Values: 
Slope = , 26.54 , g/V 
Offset Voltage at no contact = , -0.501760 , V 

No , Time , Stage Position ,   Mass , Force 
   ,  (s) ,      (mm)      ,   (g)  , (mN)  

1 ,0.0000 ,0.59946 ,5.14452 ,50.47803 
2 ,0.2055 ,0.59951 ,5.15136 ,50.54519 
3 ,0.5578 ,0.60047 ,5.15821 ,50.61234 
4 ,0.7495 ,0.60194 ,5.14452 ,50.47803 
5 ,0.9578 ,0.60368 ,5.15479 ,50.57876 
6 ,1.1659 ,0.60580 ,5.15479 ,50.57876 
7 ,1.3421 ,0.60758 ,5.14110 ,50.44445 
8 ,1.5181 ,0.60936 ,5.15136 ,50.54519 
9 ,1.6939 ,0.61121 ,5.17532 ,50.78023 
10 ,1.8542 ,0.61289 ,5.15479 ,50.57876 
11 ,2.0303 ,0.61458 ,5.16848 ,50.71308 
12 ,2.2225 ,0.61647 ,5.15821 ,50.61234 
13 ,2.4144 ,0.61837 ,5.15136 ,50.54519 
14 ,2.5745 ,0.62012 ,5.15479 ,50.57876 
15 ,2.7503 ,0.62174 ,5.14794 ,50.51161 
16 ,2.9267 ,0.62345 ,5.13425 ,50.37729 
17 ,3.1028 ,0.62526 ,5.10688 ,50.10867 
18 ,3.2784 ,0.62695 ,5.09319 ,49.97436 
19 ,3.4545 ,0.62879 ,5.08292 ,49.87362 
20 ,3.6146 ,0.63051 ,5.09661 ,50.00793 
21 ,3.8071 ,0.63219 ,5.08634 ,49.90720 
22 ,3.9989 ,0.63427 ,5.04870 ,49.53784 
23 ,4.1911 ,0.63608 ,5.06581 ,49.70573 
24 ,4.3671 ,0.63790 ,5.03843 ,49.43710 
25 ,4.5432 ,0.63968 ,5.01448 ,49.20205 
26 ,4.7197 ,0.64143 ,4.98026 ,48.86627 
27 ,4.9115 ,0.64334 ,4.98368 ,48.89985 
28 ,5.0876 ,0.64507 ,4.97341 ,48.79911 
29 ,5.2956 ,0.64710 ,4.92550 ,48.32902 
30 ,5.4716 ,0.64893 ,4.92208 ,48.29544 
31 ,5.6478 ,0.65070 ,4.90155 ,48.09397 
32 ,5.8239 ,0.65250 ,4.90155 ,48.09397 
33 ,6.0157 ,0.65428 ,4.86048 ,47.69103 
34 ,6.1920 ,0.65621 ,4.84679 ,47.55672 
35 ,6.3841 ,0.65806 ,4.83310 ,47.42240 
36 ,6.5761 ,0.65994 ,4.79546 ,47.05304 
37 ,6.7521 ,0.66173 ,4.79888 ,47.08662 
38 ,6.9284 ,0.66352 ,4.77835 ,46.88515 
39 ,7.1201 ,0.66532 ,4.76808 ,46.78442 
40 ,7.2965 ,0.66721 ,4.73044 ,46.41506 
41 ,7.5048 ,0.66927 ,4.69964 ,46.11285 
42 ,7.6807 ,0.67106 ,4.68937 ,46.01212 
43 ,7.8723 ,0.67287 ,4.69279 ,46.04569 
44 ,8.0488 ,0.67470 ,4.66884 ,45.81065 
45 ,8.2405 ,0.67651 ,4.65173 ,45.64275 
46 ,8.4170 ,0.67839 ,4.61408 ,45.27339 
47 ,8.5930 ,0.68020 ,4.60040 ,45.13908 
48 ,8.7691 ,0.68195 ,4.60040 ,45.13908 
49 ,8.9611 ,0.68387 ,4.56275 ,44.76972 
50 ,9.1373 ,0.68553 ,4.55933 ,44.73614 
51 ,9.3132 ,0.68735 ,4.52853 ,44.43394 
52 ,9.4894 ,0.68909 ,4.53880 ,44.53467 
53 ,9.6655 ,0.69090 ,4.51142 ,44.26604 
54 ,9.8575 ,0.69273 ,4.49089 ,44.06457 
55 ,10.0496 ,0.69471 ,4.48404 ,43.99742 
56 ,10.2413 ,0.69655 ,4.46693 ,43.82953 
57 ,10.4177 ,0.69840 ,4.42929 ,43.46016 
58 ,10.5934 ,0.70012 ,4.41902 ,43.35943 
59 ,10.7859 ,0.70196 ,4.40191 ,43.19154 
60 ,10.9619 ,0.70385 ,4.38138 ,42.99007 
61 ,11.1700 ,0.70584 ,4.37795 ,42.95649 
62 ,11.3459 ,0.70766 ,4.34716 ,42.65429 
63 ,11.5220 ,0.70955 ,4.32320 ,42.41924 
64 ,11.7140 ,0.71127 ,4.31978 ,42.38566 
65 ,11.8901 ,0.71307 ,4.28898 ,42.08345 
66 ,12.0820 ,0.71495 ,4.26502 ,41.84841 
67 ,12.2580 ,0.71688 ,4.24791 ,41.68051 
68 ,12.4340 ,0.71852 ,4.23422 ,41.54620 
69 ,12.6101 ,0.72031 ,4.22738 ,41.47905 
70 ,12.7862 ,0.72204 ,4.21027 ,41.31115 
71 ,12.9625 ,0.72382 ,4.17947 ,41.00895 
72 ,13.1388 ,0.72559 ,4.15209 ,40.74032 
73 ,13.3148 ,0.72736 ,4.14525 ,40.67317 
74 ,13.4910 ,0.72908 ,4.13498 ,40.57243 
75 ,13.6507 ,0.73083 ,4.13156 ,40.53885 
76 ,13.8268 ,0.73247 ,4.11445 ,40.37096 
77 ,14.0189 ,0.73440 ,4.06312 ,39.86729 
78 ,14.2115 ,0.73634 ,4.05969 ,39.83371 
79 ,14.4031 ,0.73818 ,4.02889 ,39.53150 
80 ,14.5791 ,0.73999 ,4.02205 ,39.46435 
81 ,14.7554 ,0.74172 ,4.01178 ,39.36361 
82 ,14.9316 ,0.74348 ,4.00494 ,39.29646 
83 ,15.1075 ,0.74531 ,3.97756 ,39.02783 
84 ,15.2835 ,0.74700 ,3.96387 ,38.89352 
85 ,15.4597 ,0.74880 ,3.93307 ,38.59131 
86 ,15.6355 ,0.75052 ,3.91938 ,38.45700 
87 ,15.8122 ,0.75235 ,3.90570 ,38.32268 
88 ,16.0200 ,0.75439 ,3.88858 ,38.15479 
89 ,16.1961 ,0.75617 ,3.86463 ,37.91975 
90 ,16.3723 ,0.75794 ,3.86121 ,37.88617 
91 ,16.5482 ,0.75966 ,3.84752 ,37.75185 
92 ,16.7239 ,0.76149 ,3.81330 ,37.41607 
93 ,16.9003 ,0.76322 ,3.81330 ,37.41607 
94 ,17.0764 ,0.76495 ,3.77223 ,37.01313 
95 ,17.2844 ,0.76698 ,3.76881 ,36.97955 
96 ,17.4606 ,0.76885 ,3.76539 ,36.94597 
97 ,17.6366 ,0.77055 ,3.73117 ,36.61019 
98 ,17.8124 ,0.77232 ,3.70721 ,36.37514 
99 ,17.9887 ,0.77414 ,3.71063 ,36.40872 
100 ,18.1806 ,0.77589 ,3.70379 ,36.34157 
101 ,18.3570 ,0.77778 ,3.66272 ,35.93863 
102 ,18.5490 ,0.77956 ,3.64903 ,35.80431 
103 ,18.7250 ,0.78148 ,3.65588 ,35.87147 
104 ,18.9008 ,0.78317 ,3.62850 ,35.60284 
105 ,19.0931 ,0.78500 ,3.60112 ,35.33422 
106 ,19.2852 ,0.78704 ,3.60112 ,35.33422 
107 ,19.4613 ,0.78876 ,3.57717 ,35.09917 
108 ,19.6374 ,0.79052 ,3.55321 ,34.86412 
109 ,19.8133 ,0.79231 ,3.53610 ,34.69623 
110 ,19.9894 ,0.79411 ,3.53952 ,34.72981 
111 ,20.1655 ,0.79581 ,3.52241 ,34.56192 
112 ,20.3417 ,0.79759 ,3.49504 ,34.29329 
113 ,20.5178 ,0.79935 ,3.47450 ,34.09182 
114 ,20.6940 ,0.80110 ,3.46081 ,33.95751 
115 ,20.8861 ,0.80304 ,3.46081 ,33.95751 
116 ,21.0780 ,0.80491 ,3.41975 ,33.55457 
117 ,21.2701 ,0.80689 ,3.41633 ,33.52099 
118 ,21.4623 ,0.80868 ,3.40948 ,33.45383 
119 ,21.6384 ,0.81055 ,3.38553 ,33.21878 
120 ,21.8302 ,0.81244 ,3.37868 ,33.15163 
121 ,22.0221 ,0.81428 ,3.36157 ,32.98374 
122 ,22.1986 ,0.81613 ,3.33077 ,32.68153 
123 ,22.3902 ,0.81807 ,3.32051 ,32.58080 
124 ,22.5665 ,0.81979 ,3.31024 ,32.48006 
125 ,22.7428 ,0.82161 ,3.29997 ,32.37933 
126 ,22.9186 ,0.82339 ,3.27259 ,32.11070 
127 ,23.0946 ,0.82505 ,3.24864 ,31.87565 
128 ,23.2710 ,0.82687 ,3.24522 ,31.84207 
129 ,23.4792 ,0.82882 ,3.24180 ,31.80849 
130 ,23.6548 ,0.83070 ,3.20073 ,31.40555 
131 ,23.8311 ,0.83244 ,3.19046 ,31.30482 
132 ,24.0074 ,0.83422 ,3.18704 ,31.27124 
133 ,24.1992 ,0.83616 ,3.15966 ,31.00262 
134 ,24.3754 ,0.83788 ,3.14255 ,30.83472 
135 ,24.5516 ,0.83965 ,3.12886 ,30.70041 
136 ,24.7435 ,0.84159 ,3.12544 ,30.66683 
137 ,24.9197 ,0.84336 ,3.10491 ,30.46536 
138 ,25.0956 ,0.84516 ,3.09806 ,30.39821 
139 ,25.2717 ,0.84683 ,3.06384 ,30.06242 
140 ,25.4479 ,0.84859 ,3.06726 ,30.09600 
141 ,25.6401 ,0.85043 ,3.05358 ,29.96169 
142 ,25.8480 ,0.85251 ,3.01935 ,29.62590 
143 ,26.0242 ,0.85436 ,3.02620 ,29.69306 
144 ,26.2320 ,0.85630 ,3.00567 ,29.49159 
145 ,26.4403 ,0.85846 ,2.96802 ,29.12223 
146 ,26.6323 ,0.86045 ,2.95433 ,28.98792 
147 ,26.8085 ,0.86220 ,2.95776 ,29.02150 
148 ,26.9845 ,0.86401 ,2.93722 ,28.82003 
149 ,27.1765 ,0.86583 ,2.91327 ,28.58498 
150 ,27.3523 ,0.86767 ,2.88931 ,28.34993 
151 ,27.5285 ,0.86943 ,2.88589 ,28.31635 
152 ,27.7049 ,0.87120 ,2.87562 ,28.21562 
153 ,27.8968 ,0.87309 ,2.86536 ,28.11488 
154 ,28.0730 ,0.87488 ,2.82771 ,27.74552 
155 ,28.2490 ,0.87662 ,2.82771 ,27.74552 
156 ,28.4246 ,0.87843 ,2.80718 ,27.54405 
157 ,28.6013 ,0.88016 ,2.79691 ,27.44332 
158 ,28.7771 ,0.88188 ,2.76611 ,27.14111 
159 ,28.9533 ,0.88364 ,2.75243 ,27.00680 
160 ,29.1614 ,0.88558 ,2.74216 ,26.90606 
161 ,29.3534 ,0.88762 ,2.74216 ,26.90606 
162 ,29.5294 ,0.88940 ,2.70109 ,26.50312 
163 ,29.7216 ,0.89128 ,2.70794 ,26.57028 
164 ,29.9135 ,0.89328 ,2.66345 ,26.13376 
165 ,30.1057 ,0.89516 ,2.67372 ,26.23450 
166 ,30.2817 ,0.89689 ,2.66345 ,26.13376 
167 ,30.4579 ,0.89873 ,2.63265 ,25.83156 
168 ,30.6338 ,0.90046 ,2.60185 ,25.52935 
169 ,30.8261 ,0.90242 ,2.61212 ,25.63009 
170 ,31.0339 ,0.90431 ,2.57789 ,25.29430 
171 ,31.2263 ,0.90628 ,2.56763 ,25.19357 
172 ,31.4184 ,0.90820 ,2.55394 ,25.05926 
173 ,31.5941 ,0.91004 ,2.54025 ,24.92494 
174 ,31.7704 ,0.91182 ,2.52314 ,24.75705 
175 ,31.9462 ,0.91358 ,2.49918 ,24.52200 
176 ,32.1226 ,0.91533 ,2.49918 ,24.52200 
177 ,32.2986 ,0.91715 ,2.48892 ,24.42127 
178 ,32.4746 ,0.91886 ,2.45812 ,24.11906 
179 ,32.6508 ,0.92064 ,2.44443 ,23.98475 
180 ,32.8268 ,0.92239 ,2.43416 ,23.88402 
181 ,33.0031 ,0.92415 ,2.42048 ,23.74970 
182 ,33.1789 ,0.92593 ,2.41705 ,23.71612 
183 ,33.3551 ,0.92771 ,2.38625 ,23.41392 
184 ,33.5312 ,0.92945 ,2.36230 ,23.17887 
185 ,33.7072 ,0.93120 ,2.34519 ,23.01098 
186 ,33.8833 ,0.93297 ,2.34861 ,23.04456 
187 ,34.0593 ,0.93470 ,2.33150 ,22.87667 
188 ,34.2355 ,0.93649 ,2.31097 ,22.67520 
189 ,34.4275 ,0.93839 ,2.29385 ,22.50731 
190 ,34.6034 ,0.94015 ,2.26648 ,22.23868 
191 ,34.7797 ,0.94189 ,2.28017 ,22.37299 
192 ,34.9877 ,0.94393 ,2.23910 ,21.97005 
193 ,35.1636 ,0.94574 ,2.23910 ,21.97005 
194 ,35.3718 ,0.94776 ,2.20488 ,21.63427 
195 ,35.5479 ,0.94960 ,2.19803 ,21.56711 
196 ,35.7238 ,0.95130 ,2.19119 ,21.49996 
197 ,35.9001 ,0.95315 ,2.18435 ,21.43280 
198 ,36.0921 ,0.95508 ,2.15012 ,21.09702 
199 ,36.2681 ,0.95678 ,2.13644 ,20.96270 
200 ,36.4444 ,0.95856 ,2.12617 ,20.86197 
201 ,36.6363 ,0.96047 ,2.11248 ,20.72766 
202 ,36.8124 ,0.96219 ,2.09195 ,20.52619 
203 ,37.0046 ,0.96414 ,2.07826 ,20.39187 
204 ,37.1964 ,0.96607 ,2.06799 ,20.29114 
205 ,37.3725 ,0.96780 ,2.05088 ,20.12325 
206 ,37.5487 ,0.96961 ,2.02693 ,19.88820 
207 ,37.7569 ,0.97152 ,2.02350 ,19.85462 
208 ,37.9488 ,0.97355 ,1.97902 ,19.41810 
209 ,38.1250 ,0.97531 ,1.99270 ,19.55241 
210 ,38.3169 ,0.97726 ,1.98586 ,19.48526 
211 ,38.4931 ,0.97903 ,1.95848 ,19.21663 
212 ,38.6691 ,0.98072 ,1.93111 ,18.94801 
213 ,38.8451 ,0.98258 ,1.91057 ,18.74654 
214 ,39.0053 ,0.98429 ,1.91057 ,18.74654 
215 ,39.1813 ,0.98588 ,1.90715 ,18.71296 
216 ,39.3575 ,0.98770 ,1.89004 ,18.54507 
217 ,39.5336 ,0.98943 ,1.86266 ,18.27644 
218 ,39.7097 ,0.99120 ,1.84555 ,18.10855 
219 ,39.8855 ,0.99292 ,1.83871 ,18.04139 
220 ,40.0617 ,0.99469 ,1.82844 ,17.94066 
221 ,40.2379 ,0.99644 ,1.82160 ,17.87350 
222 ,40.4142 ,0.99821 ,1.79764 ,17.63845 
223 ,40.5900 ,0.99997 ,1.78053 ,17.47056 
224 ,40.7660 ,1.00169 ,1.75315 ,17.20193 
225 ,40.9419 ,1.00347 ,1.77369 ,17.40340 
226 ,41.1180 ,1.00526 ,1.74973 ,17.16836 
227 ,41.3101 ,1.00704 ,1.71893 ,16.86615 
228 ,41.5021 ,1.00914 ,1.70866 ,16.76542 
229 ,41.6781 ,1.01089 ,1.69498 ,16.63110 
230 ,41.8544 ,1.01261 ,1.68129 ,16.49679 
231 ,42.0306 ,1.01443 ,1.67444 ,16.42963 
232 ,42.2065 ,1.01611 ,1.64022 ,16.09385 
233 ,42.3828 ,1.01791 ,1.62311 ,15.92596 
234 ,42.5588 ,1.01969 ,1.62995 ,15.99311 
235 ,42.7510 ,1.02162 ,1.60258 ,15.72449 
236 ,42.9270 ,1.02336 ,1.58204 ,15.52302 
237 ,43.1191 ,1.02520 ,1.58204 ,15.52302 
238 ,43.3108 ,1.02714 ,1.56493 ,15.35513 
239 ,43.4873 ,1.02896 ,1.54782 ,15.18724 
240 ,43.6633 ,1.03075 ,1.52045 ,14.91861 
241 ,43.8554 ,1.03252 ,1.52729 ,14.98577 
242 ,44.0475 ,1.03456 ,1.49307 ,14.64998 
243 ,44.2553 ,1.03645 ,1.50333 ,14.75072 
244 ,44.4476 ,1.03855 ,1.46227 ,14.34778 
245 ,44.6396 ,1.04046 ,1.45885 ,14.31420 
246 ,44.8157 ,1.04224 ,1.44516 ,14.17989 
247 ,44.9917 ,1.04396 ,1.42462 ,13.97842 
248 ,45.1680 ,1.04577 ,1.41094 ,13.84410 
249 ,45.3598 ,1.04765 ,1.40067 ,13.74337 
250 ,45.5361 ,1.04944 ,1.39725 ,13.70979 
251 ,45.7120 ,1.05117 ,1.37671 ,13.50832 
252 ,45.8881 ,1.05292 ,1.34591 ,13.20612 
253 ,46.0802 ,1.05482 ,1.35618 ,13.30685 
254 ,46.2564 ,1.05668 ,1.33907 ,13.13896 
255 ,46.4164 ,1.05836 ,1.32538 ,13.00465 
256 ,46.5926 ,1.05998 ,1.31854 ,12.93749 
257 ,46.7686 ,1.06176 ,1.29458 ,12.70244 
258 ,46.9445 ,1.06348 ,1.27747 ,12.53455 
259 ,47.1207 ,1.06530 ,1.27063 ,12.46739 
260 ,47.3288 ,1.06724 ,1.25694 ,12.33308 
261 ,47.5047 ,1.06910 ,1.23298 ,12.09803 
262 ,47.6810 ,1.07092 ,1.23298 ,12.09803 
263 ,47.8570 ,1.07266 ,1.21587 ,11.93014 
264 ,48.0492 ,1.07442 ,1.21587 ,11.93014 
265 ,48.2412 ,1.07645 ,1.18507 ,11.62794 
266 ,48.4173 ,1.07824 ,1.17823 ,11.56078 
267 ,48.6095 ,1.08017 ,1.14743 ,11.25857 
268 ,48.7854 ,1.08191 ,1.14401 ,11.22500 
269 ,48.9772 ,1.08377 ,1.12690 ,11.05710 
270 ,49.1696 ,1.08565 ,1.13032 ,11.09068 
271 ,49.3456 ,1.08750 ,1.10979 ,10.88921 
272 ,49.5215 ,1.08929 ,1.08241 ,10.62059 
273 ,49.6979 ,1.09102 ,1.06530 ,10.45270 
274 ,49.8898 ,1.09292 ,1.07899 ,10.58701 
275 ,50.0820 ,1.09476 ,1.03792 ,10.18407 
276 ,50.2581 ,1.09665 ,1.03450 ,10.15049 
277 ,50.4502 ,1.09857 ,1.02423 ,10.04976 
278 ,50.6259 ,1.10031 ,1.00028 ,9.81471 
279 ,50.8022 ,1.10207 ,0.98659 ,9.68039 
280 ,50.9783 ,1.10381 ,0.99001 ,9.71397 
281 ,51.1544 ,1.10557 ,0.97974 ,9.61324 
282 ,51.3302 ,1.10742 ,0.95237 ,9.34461 
283 ,51.5065 ,1.10916 ,0.94552 ,9.27745 
284 ,51.6822 ,1.11091 ,0.93183 ,9.14314 
285 ,51.8583 ,1.11261 ,0.91130 ,8.94167 
286 ,52.0346 ,1.11435 ,0.92499 ,9.07598 
287 ,52.2108 ,1.11611 ,0.91130 ,8.94167 
288 ,52.3866 ,1.11790 ,0.87708 ,8.60589 
289 ,52.5630 ,1.11965 ,0.85654 ,8.40442 
290 ,52.7386 ,1.12144 ,0.87023 ,8.53873 
291 ,52.9149 ,1.12316 ,0.85654 ,8.40442 
292 ,53.1070 ,1.12512 ,0.83943 ,8.23653 
293 ,53.2833 ,1.12688 ,0.81548 ,8.00148 
294 ,53.5072 ,1.12901 ,0.81206 ,7.96790 
295 ,53.6833 ,1.13082 ,0.79152 ,7.76643 
296 ,53.8434 ,1.13259 ,0.78126 ,7.66570 
297 ,54.0195 ,1.13424 ,0.77441 ,7.59854 
298 ,54.1956 ,1.13600 ,0.76415 ,7.49780 
299 ,54.3716 ,1.13775 ,0.77099 ,7.56496 
300 ,54.5636 ,1.13955 ,0.74704 ,7.32991 
301 ,54.7877 ,1.14176 ,0.71624 ,7.02771 
302 ,54.9640 ,1.14367 ,0.70597 ,6.92697 
303 ,55.1560 ,1.14561 ,0.69913 ,6.85982 
304 ,55.3481 ,1.14755 ,0.69228 ,6.79266 
305 ,55.5242 ,1.14928 ,0.65121 ,6.38972 
306 ,55.7162 ,1.15109 ,0.66148 ,6.49046 
307 ,55.9079 ,1.15309 ,0.64779 ,6.35614 
308 ,56.0842 ,1.15485 ,0.62726 ,6.15467 
309 ,56.2605 ,1.15663 ,0.62042 ,6.08752 
310 ,56.4366 ,1.15838 ,0.61699 ,6.05394 
311 ,56.6127 ,1.16020 ,0.61015 ,5.98678 
312 ,56.7885 ,1.16189 ,0.58962 ,5.78531 
313 ,56.9644 ,1.16370 ,0.57251 ,5.61742 
314 ,57.1410 ,1.16548 ,0.56908 ,5.58384 
315 ,57.3169 ,1.16718 ,0.56566 ,5.55026 
316 ,57.4930 ,1.16897 ,0.55197 ,5.41595 
317 ,57.6691 ,1.17072 ,0.54513 ,5.34879 
318 ,57.8451 ,1.17250 ,0.53144 ,5.21448 
319 ,58.0209 ,1.17425 ,0.49722 ,4.87870 
320 ,58.2133 ,1.17607 ,0.51091 ,5.01301 
321 ,58.4052 ,1.17807 ,0.49037 ,4.81154 
322 ,58.5815 ,1.17982 ,0.46984 ,4.61007 
323 ,58.7735 ,1.18167 ,0.44931 ,4.40860 
324 ,58.9656 ,1.18370 ,0.44588 ,4.37502 
325 ,59.1415 ,1.18543 ,0.43220 ,4.24071 
326 ,59.3176 ,1.18719 ,0.43904 ,4.30787 
327 ,59.4938 ,1.18896 ,0.41851 ,4.10640 
328 ,59.6860 ,1.19084 ,0.40482 ,3.97208 
329 ,59.8779 ,1.19279 ,0.38429 ,3.77061 
330 ,60.0541 ,1.19453 ,0.38086 ,3.73703 
331 ,60.2461 ,1.19646 ,0.37744 ,3.70346 
332 ,60.4222 ,1.19823 ,0.35006 ,3.43483 
333 ,60.5983 ,1.19999 ,0.35006 ,3.43483 
334 ,60.7902 ,1.20189 ,0.34664 ,3.40125 
335 ,60.9664 ,1.20366 ,0.32611 ,3.19978 
336 ,61.1584 ,1.20552 ,0.32269 ,3.16620 
337 ,61.3345 ,1.20732 ,0.31242 ,3.06547 
338 ,61.5265 ,1.20928 ,0.29189 ,2.86400 
339 ,61.7025 ,1.21104 ,0.27478 ,2.69611 
340 ,61.8946 ,1.21283 ,0.25767 ,2.52822 
341 ,62.0708 ,1.21470 ,0.26793 ,2.62895 
342 ,62.2626 ,1.21653 ,0.24740 ,2.42748 
343 ,62.4389 ,1.21836 ,0.23029 ,2.25959 
344 ,62.6151 ,1.22018 ,0.22002 ,2.15885 
345 ,62.7911 ,1.22194 ,0.23371 ,2.29317 
346 ,62.9672 ,1.22372 ,0.20976 ,2.05812 
347 ,63.1431 ,1.22544 ,0.19264 ,1.89023 
348 ,63.3190 ,1.22717 ,0.18238 ,1.78949 
349 ,63.4954 ,1.22891 ,0.18238 ,1.78949 
350 ,63.6709 ,1.23075 ,0.15500 ,1.52087 
351 ,63.8631 ,1.23255 ,0.15158 ,1.48729 
352 ,64.0391 ,1.23440 ,0.13789 ,1.35298 
353 ,64.2155 ,1.23618 ,0.14473 ,1.42013 
354 ,64.4237 ,1.23815 ,0.12078 ,1.18508 
355 ,64.5998 ,1.23996 ,0.10367 ,1.01719 
356 ,64.7760 ,1.24175 ,0.11736 ,1.15151 
357 ,64.9678 ,1.24360 ,0.08656 ,0.84930 
358 ,65.1761 ,1.24561 ,0.08314 ,0.81572 
359 ,65.3520 ,1.24755 ,0.08656 ,0.84930 
360 ,65.5281 ,1.24927 ,0.06260 ,0.61425 
361 ,65.7202 ,1.25120 ,0.03522 ,0.34563 
362 ,65.8963 ,1.25296 ,0.02838 ,0.27847 
363 ,66.0724 ,1.25469 ,0.05234 ,0.51352 
364 ,66.2484 ,1.25646 ,0.02496 ,0.24489 
365 ,66.4088 ,1.25818 ,0.00100 ,0.00984 
366 ,66.5686 ,1.25979 ,-0.00926 ,-0.09089 
367 ,66.7447 ,1.26144 ,-0.00242 ,-0.02373 
368 ,66.9368 ,1.26337 ,-0.00242 ,-0.02373 
369 ,67.1131 ,1.26514 ,-0.00242 ,-0.02373 
370 ,67.3048 ,1.26694 ,-0.02295 ,-0.22520 
371 ,67.4810 ,1.26883 ,-0.05033 ,-0.49383 
372 ,67.6729 ,1.27062 ,-0.06060 ,-0.59457 
373 ,67.8492 ,1.27256 ,-0.06402 ,-0.62814 
374 ,68.0252 ,1.27427 ,-0.07428 ,-0.72888 
375 ,68.2174 ,1.27605 ,-0.09482 ,-0.93035 
376 ,68.3933 ,1.27793 ,-0.09482 ,-0.93035 
377 ,68.5694 ,1.27968 ,-0.09824 ,-0.96393 
378 ,68.7455 ,1.28142 ,-0.10508 ,-1.03108 
379 ,68.9214 ,1.28332 ,-0.11193 ,-1.09824 
380 ,69.0977 ,1.28495 ,-0.13588 ,-1.33329 
381 ,69.2736 ,1.28672 ,-0.12219 ,-1.19898 
382 ,69.4500 ,1.28851 ,-0.13931 ,-1.36687 
383 ,69.6258 ,1.29027 ,-0.15299 ,-1.50118 
384 ,69.8020 ,1.29204 ,-0.17011 ,-1.66907 
385 ,69.9938 ,1.29392 ,-0.16326 ,-1.60191 
386 ,70.1701 ,1.29565 ,-0.18037 ,-1.76981 
387 ,70.3621 ,1.29760 ,-0.20775 ,-2.03843 
388 ,70.5383 ,1.29934 ,-0.20775 ,-2.03843 
389 ,70.7299 ,1.30122 ,-0.22486 ,-2.20632 
390 ,70.9064 ,1.30303 ,-0.21459 ,-2.10559 
391 ,71.0825 ,1.30476 ,-0.23513 ,-2.30706 
392 ,71.2746 ,1.30664 ,-0.24539 ,-2.40779 
393 ,71.4667 ,1.30867 ,-0.25224 ,-2.47495 
394 ,71.6426 ,1.31039 ,-0.25908 ,-2.54211 
395 ,71.8508 ,1.31247 ,-0.25566 ,-2.50853 
396 ,72.0270 ,1.31423 ,-0.27619 ,-2.71000 
397 ,72.2031 ,1.31604 ,-0.28988 ,-2.84431 
398 ,72.3949 ,1.31786 ,-0.28646 ,-2.81073 
399 ,72.5868 ,1.31974 ,-0.30357 ,-2.97863 
400 ,72.7632 ,1.32157 ,-0.32068 ,-3.14652 
401 ,72.9553 ,1.32350 ,-0.32068 ,-3.14652 
402 ,73.1473 ,1.32546 ,-0.32752 ,-3.21367 
403 ,73.3235 ,1.32716 ,-0.34121 ,-3.34799 
404 ,73.5314 ,1.32923 ,-0.34464 ,-3.38156 
405 ,73.7075 ,1.33100 ,-0.34806 ,-3.41514 
406 ,73.8992 ,1.33286 ,-0.36175 ,-3.54946 
407 ,74.0755 ,1.33470 ,-0.37886 ,-3.71735 
408 ,74.2677 ,1.33664 ,-0.37544 ,-3.68377 
409 ,74.4759 ,1.33858 ,-0.39597 ,-3.88524 
410 ,74.6519 ,1.34047 ,-0.38912 ,-3.81808 
411 ,74.8279 ,1.34225 ,-0.40623 ,-3.98597 
412 ,75.0196 ,1.34413 ,-0.42335 ,-4.15387 
413 ,75.2122 ,1.34595 ,-0.42677 ,-4.18744 
414 ,75.3877 ,1.34785 ,-0.43361 ,-4.25460 
415 ,75.5642 ,1.34959 ,-0.44388 ,-4.35534 
416 ,75.7403 ,1.35134 ,-0.46099 ,-4.52323 
417 ,75.9325 ,1.35322 ,-0.45414 ,-4.45607 
418 ,76.1244 ,1.35518 ,-0.46441 ,-4.55681 
419 ,76.3165 ,1.35706 ,-0.47126 ,-4.62396 
420 ,76.4926 ,1.35888 ,-0.47468 ,-4.65754 
421 ,76.6686 ,1.36066 ,-0.49521 ,-4.85901 
422 ,76.8448 ,1.36242 ,-0.51232 ,-5.02690 
423 ,77.0207 ,1.36414 ,-0.51917 ,-5.09406 
424 ,77.1968 ,1.36588 ,-0.51917 ,-5.09406 
425 ,77.3889 ,1.36783 ,-0.51917 ,-5.09406 
426 ,77.5651 ,1.36962 ,-0.53285 ,-5.22837 
427 ,77.7571 ,1.37152 ,-0.55339 ,-5.42984 
428 ,77.9493 ,1.37332 ,-0.54654 ,-5.36268 
429 ,78.1410 ,1.37534 ,-0.57050 ,-5.59773 
430 ,78.3174 ,1.37714 ,-0.58077 ,-5.69847 
431 ,78.4932 ,1.37896 ,-0.56365 ,-5.53058 
432 ,78.6696 ,1.38067 ,-0.57392 ,-5.63131 
433 ,78.8455 ,1.38242 ,-0.58077 ,-5.69847 
434 ,79.0216 ,1.38412 ,-0.60472 ,-5.93352 
435 ,79.1974 ,1.38592 ,-0.62525 ,-6.13499 
436 ,79.3737 ,1.38765 ,-0.61841 ,-6.06783 
437 ,79.5498 ,1.38943 ,-0.62183 ,-6.10141 
438 ,79.7100 ,1.39115 ,-0.62525 ,-6.13499 
439 ,79.8856 ,1.39277 ,-0.62868 ,-6.16856 
440 ,80.0620 ,1.39452 ,-0.64579 ,-6.33646 
441 ,80.2382 ,1.39635 ,-0.64921 ,-6.37003 
442 ,80.4303 ,1.39816 ,-0.66632 ,-6.53793 
443 ,80.6221 ,1.40014 ,-0.66632 ,-6.53793 
444 ,80.7982 ,1.40191 ,-0.69027 ,-6.77297 
445 ,80.9904 ,1.40390 ,-0.68001 ,-6.67224 
446 ,81.1665 ,1.40561 ,-0.70054 ,-6.87371 
447 ,81.3585 ,1.40747 ,-0.72450 ,-7.10876 
448 ,81.5344 ,1.40927 ,-0.70739 ,-6.94086 
449 ,81.7268 ,1.41116 ,-0.71081 ,-6.97444 
450 ,81.9031 ,1.41300 ,-0.72792 ,-7.14233 
451 ,82.0790 ,1.41475 ,-0.73476 ,-7.20949 
452 ,82.2550 ,1.41648 ,-0.74503 ,-7.31023 
453 ,82.4308 ,1.41819 ,-0.74503 ,-7.31023 
454 ,82.6231 ,1.42005 ,-0.75187 ,-7.37738 
455 ,82.7991 ,1.42189 ,-0.77583 ,-7.61243 
456 ,82.9753 ,1.42368 ,-0.77925 ,-7.64601 
457 ,83.1513 ,1.42542 ,-0.77925 ,-7.64601 
458 ,83.3275 ,1.42722 ,-0.76898 ,-7.54527 
459 ,83.5194 ,1.42909 ,-0.80663 ,-7.91464 
460 ,83.7116 ,1.43097 ,-0.80321 ,-7.88106 
461 ,83.8873 ,1.43279 ,-0.80321 ,-7.88106 
462 ,84.0637 ,1.43453 ,-0.83401 ,-8.18326 
463 ,84.2397 ,1.43632 ,-0.83401 ,-8.18326 
