Data stamp = , 03-04-2022 05:37:20 393

Calibration Values: 
Slope = , 26.54 , g/V 
Offset Voltage at no contact = , -0.501760 , V 

No , Time , Stage Position ,   Mass , Force 
   ,  (s) ,      (mm)      ,   (g)  , (mN)  

1 ,0.0000 ,0.59946 ,5.26430 ,51.65327 
2 ,0.2179 ,0.59952 ,5.28483 ,51.85474 
3 ,0.5543 ,0.60053 ,5.28141 ,51.82116 
4 ,0.7460 ,0.60199 ,5.26772 ,51.68685 
5 ,0.9223 ,0.60350 ,5.27798 ,51.78758 
6 ,1.0983 ,0.60521 ,5.27114 ,51.72043 
7 ,1.2906 ,0.60706 ,5.26087 ,51.61969 
8 ,1.4826 ,0.60904 ,5.26772 ,51.68685 
9 ,1.6587 ,0.61080 ,5.26087 ,51.61969 
10 ,1.8348 ,0.61257 ,5.25061 ,51.51896 
11 ,2.0265 ,0.61451 ,5.23350 ,51.35107 
12 ,2.2029 ,0.61628 ,5.21981 ,51.21675 
13 ,2.3950 ,0.61819 ,5.20270 ,51.04886 
14 ,2.5710 ,0.61993 ,5.18216 ,50.84739 
15 ,2.7470 ,0.62171 ,5.18559 ,50.88097 
16 ,2.9394 ,0.62357 ,5.16848 ,50.71308 
17 ,3.1472 ,0.62569 ,5.14110 ,50.44445 
18 ,3.3232 ,0.62748 ,5.12741 ,50.31014 
19 ,3.4994 ,0.62923 ,5.12741 ,50.31014 
20 ,3.6755 ,0.63096 ,5.10003 ,50.04151 
21 ,3.8831 ,0.63299 ,5.09319 ,49.97436 
22 ,4.0596 ,0.63482 ,5.06923 ,49.73931 
23 ,4.2358 ,0.63663 ,5.04528 ,49.50426 
24 ,4.4118 ,0.63837 ,5.02474 ,49.30279 
25 ,4.6037 ,0.64022 ,5.02132 ,49.26921 
26 ,4.8118 ,0.64230 ,5.00763 ,49.13490 
27 ,4.9719 ,0.64405 ,4.99052 ,48.96701 
28 ,5.1480 ,0.64565 ,4.98026 ,48.86627 
29 ,5.3241 ,0.64746 ,4.96657 ,48.73196 
30 ,5.5159 ,0.64937 ,4.92892 ,48.36260 
31 ,5.6922 ,0.65110 ,4.90155 ,48.09397 
32 ,5.8684 ,0.65285 ,4.91523 ,48.22828 
33 ,6.0443 ,0.65463 ,4.88786 ,47.95966 
34 ,6.2205 ,0.65644 ,4.86732 ,47.75819 
35 ,6.3965 ,0.65819 ,4.83652 ,47.45598 
36 ,6.5886 ,0.66000 ,4.79888 ,47.08662 
37 ,6.7645 ,0.66186 ,4.81257 ,47.22093 
38 ,6.9404 ,0.66364 ,4.78519 ,46.95231 
39 ,7.1167 ,0.66533 ,4.75097 ,46.61653 
40 ,7.3086 ,0.66721 ,4.75097 ,46.61653 
41 ,7.4850 ,0.66909 ,4.73386 ,46.44863 
42 ,7.6768 ,0.67093 ,4.69279 ,46.04569 
43 ,7.8531 ,0.67273 ,4.68937 ,46.01212 
44 ,8.0290 ,0.67450 ,4.66884 ,45.81065 
45 ,8.2052 ,0.67620 ,4.65173 ,45.64275 
46 ,8.3973 ,0.67814 ,4.62777 ,45.40771 
47 ,8.5734 ,0.67991 ,4.62093 ,45.34055 
48 ,8.7813 ,0.68202 ,4.61408 ,45.27339 
49 ,8.9736 ,0.68389 ,4.58671 ,45.00477 
50 ,9.1493 ,0.68569 ,4.56275 ,44.76972 
51 ,9.3417 ,0.68751 ,4.54906 ,44.63541 
52 ,9.5339 ,0.68953 ,4.54222 ,44.56825 
53 ,9.7098 ,0.69133 ,4.51142 ,44.26604 
54 ,9.9018 ,0.69324 ,4.49089 ,44.06457 
55 ,10.0779 ,0.69495 ,4.46693 ,43.82953 
56 ,10.2536 ,0.69673 ,4.44982 ,43.66163 
57 ,10.4302 ,0.69848 ,4.44982 ,43.66163 
58 ,10.6063 ,0.70025 ,4.43955 ,43.56090 
59 ,10.7820 ,0.70208 ,4.41902 ,43.35943 
60 ,10.9743 ,0.70396 ,4.37453 ,42.92291 
61 ,11.1502 ,0.70565 ,4.37795 ,42.95649 
62 ,11.3424 ,0.70760 ,4.36084 ,42.78860 
63 ,11.5184 ,0.70936 ,4.33347 ,42.51997 
64 ,11.6943 ,0.71113 ,4.31978 ,42.38566 
65 ,11.8867 ,0.71301 ,4.31978 ,42.38566 
66 ,12.0629 ,0.71484 ,4.28213 ,42.01630 
67 ,12.2549 ,0.71672 ,4.24449 ,41.64694 
68 ,12.4309 ,0.71850 ,4.26160 ,41.81483 
69 ,12.6068 ,0.72022 ,4.24449 ,41.64694 
70 ,12.7832 ,0.72201 ,4.22053 ,41.41189 
71 ,12.9911 ,0.72400 ,4.18289 ,41.04253 
72 ,13.1673 ,0.72583 ,4.18631 ,41.07611 
73 ,13.3593 ,0.72782 ,4.14867 ,40.70674 
74 ,13.5514 ,0.72971 ,4.14525 ,40.67317 
75 ,13.7274 ,0.73147 ,4.12129 ,40.43812 
76 ,13.9036 ,0.73319 ,4.11103 ,40.33738 
77 ,14.0956 ,0.73513 ,4.08023 ,40.03518 
78 ,14.2713 ,0.73694 ,4.07338 ,39.96802 
79 ,14.4477 ,0.73863 ,4.07680 ,40.00160 
80 ,14.6558 ,0.74069 ,4.03916 ,39.63224 
81 ,14.8320 ,0.74254 ,4.02205 ,39.46435 
82 ,15.0238 ,0.74442 ,4.00494 ,39.29646 
83 ,15.2000 ,0.74614 ,3.96045 ,38.85994 
84 ,15.3920 ,0.74800 ,3.97756 ,39.02783 
85 ,15.5678 ,0.74984 ,3.96729 ,38.92709 
86 ,15.7445 ,0.75168 ,3.91938 ,38.45700 
87 ,15.9682 ,0.75375 ,3.91596 ,38.42342 
88 ,16.1444 ,0.75560 ,3.89201 ,38.18837 
89 ,16.3365 ,0.75755 ,3.87147 ,37.98690 
90 ,16.5124 ,0.75930 ,3.88174 ,38.08764 
91 ,16.6882 ,0.76103 ,3.85094 ,37.78543 
92 ,16.8647 ,0.76281 ,3.83041 ,37.58396 
93 ,17.0407 ,0.76462 ,3.80645 ,37.34891 
94 ,17.2329 ,0.76650 ,3.81672 ,37.44965 
95 ,17.4089 ,0.76823 ,3.79961 ,37.28176 
96 ,17.5849 ,0.77003 ,3.77565 ,37.04671 
97 ,17.7606 ,0.77178 ,3.72774 ,36.57661 
98 ,17.9374 ,0.77354 ,3.72432 ,36.54303 
99 ,18.1292 ,0.77545 ,3.71748 ,36.47588 
100 ,18.3054 ,0.77723 ,3.71063 ,36.40872 
101 ,18.4813 ,0.77901 ,3.68325 ,36.14010 
102 ,18.6573 ,0.78071 ,3.66272 ,35.93863 
103 ,18.8334 ,0.78247 ,3.64903 ,35.80431 
104 ,19.0416 ,0.78444 ,3.63192 ,35.63642 
105 ,19.2176 ,0.78635 ,3.59086 ,35.23348 
106 ,19.4098 ,0.78825 ,3.60112 ,35.33422 
107 ,19.5858 ,0.79002 ,3.60797 ,35.40137 
108 ,19.7619 ,0.79177 ,3.57032 ,35.03201 
109 ,19.9540 ,0.79365 ,3.54295 ,34.76338 
110 ,20.1461 ,0.79564 ,3.53268 ,34.66265 
111 ,20.3221 ,0.79746 ,3.50872 ,34.42760 
112 ,20.4982 ,0.79913 ,3.48819 ,34.22613 
113 ,20.6743 ,0.80091 ,3.48135 ,34.15898 
114 ,20.8341 ,0.80262 ,3.48135 ,34.15898 
115 ,21.0104 ,0.80429 ,3.45397 ,33.89035 
116 ,21.2022 ,0.80622 ,3.44028 ,33.75604 
117 ,21.3785 ,0.80800 ,3.41290 ,33.48741 
118 ,21.5705 ,0.80988 ,3.41290 ,33.48741 
119 ,21.7467 ,0.81161 ,3.39921 ,33.35310 
120 ,21.9543 ,0.81368 ,3.36157 ,32.98374 
121 ,22.1308 ,0.81546 ,3.36157 ,32.98374 
122 ,22.3065 ,0.81716 ,3.34788 ,32.84942 
123 ,22.4830 ,0.81897 ,3.32393 ,32.61437 
124 ,22.6912 ,0.82107 ,3.30682 ,32.44648 
125 ,22.8832 ,0.82295 ,3.27602 ,32.14428 
126 ,23.0432 ,0.82467 ,3.27259 ,32.11070 
127 ,23.2193 ,0.82632 ,3.26575 ,32.04354 
128 ,23.4115 ,0.82814 ,3.24864 ,31.87565 
129 ,23.5874 ,0.83002 ,3.24522 ,31.84207 
130 ,23.7955 ,0.83205 ,3.23153 ,31.70776 
131 ,23.9716 ,0.83384 ,3.21100 ,31.50629 
132 ,24.1477 ,0.83560 ,3.19046 ,31.30482 
133 ,24.3239 ,0.83738 ,3.16309 ,31.03619 
134 ,24.5319 ,0.83939 ,3.15966 ,31.00262 
135 ,24.7239 ,0.84130 ,3.12544 ,30.66683 
136 ,24.8998 ,0.84312 ,3.11175 ,30.53252 
137 ,25.0759 ,0.84492 ,3.11860 ,30.59968 
138 ,25.2678 ,0.84683 ,3.09464 ,30.36463 
139 ,25.4440 ,0.84853 ,3.07411 ,30.16316 
140 ,25.6202 ,0.85034 ,3.05700 ,29.99527 
141 ,25.8123 ,0.85228 ,3.05015 ,29.92811 
142 ,25.9885 ,0.85404 ,3.04673 ,29.89453 
143 ,26.1961 ,0.85599 ,2.99540 ,29.39086 
144 ,26.3724 ,0.85783 ,3.00224 ,29.45801 
145 ,26.5647 ,0.85975 ,2.97487 ,29.18939 
146 ,26.7410 ,0.86158 ,2.96460 ,29.08865 
147 ,26.9164 ,0.86328 ,2.96460 ,29.08865 
148 ,27.0924 ,0.86503 ,2.95433 ,28.98792 
149 ,27.2684 ,0.86679 ,2.93038 ,28.75287 
150 ,27.4450 ,0.86862 ,2.89616 ,28.41709 
151 ,27.6850 ,0.87090 ,2.87220 ,28.18204 
152 ,27.8611 ,0.87276 ,2.87220 ,28.18204 
153 ,28.0374 ,0.87455 ,2.85167 ,27.98057 
154 ,28.2293 ,0.87644 ,2.85509 ,28.01415 
155 ,28.4054 ,0.87816 ,2.82429 ,27.71194 
156 ,28.5814 ,0.87994 ,2.79691 ,27.44332 
157 ,28.7575 ,0.88170 ,2.79691 ,27.44332 
158 ,28.9495 ,0.88354 ,2.78665 ,27.34258 
159 ,29.1257 ,0.88539 ,2.76269 ,27.10753 
160 ,29.3016 ,0.88714 ,2.75243 ,27.00680 
161 ,29.4778 ,0.88891 ,2.74216 ,26.90606 
162 ,29.6697 ,0.89080 ,2.72847 ,26.77175 
163 ,29.8460 ,0.89258 ,2.68740 ,26.36881 
164 ,30.0220 ,0.89439 ,2.67714 ,26.26807 
165 ,30.1982 ,0.89612 ,2.68398 ,26.33523 
166 ,30.3899 ,0.89804 ,2.66687 ,26.16734 
167 ,30.5662 ,0.89979 ,2.64976 ,25.99945 
168 ,30.7424 ,0.90156 ,2.62581 ,25.76440 
169 ,30.9184 ,0.90333 ,2.62238 ,25.73082 
170 ,31.1104 ,0.90519 ,2.61212 ,25.63009 
171 ,31.2865 ,0.90695 ,2.59501 ,25.46220 
172 ,31.4782 ,0.90879 ,2.58132 ,25.32788 
173 ,31.6547 ,0.91065 ,2.57789 ,25.29430 
174 ,31.8467 ,0.91258 ,2.52998 ,24.82421 
175 ,32.0225 ,0.91435 ,2.53683 ,24.89136 
176 ,32.1989 ,0.91604 ,2.52998 ,24.82421 
177 ,32.3907 ,0.91793 ,2.51630 ,24.68989 
178 ,32.5826 ,0.91994 ,2.48207 ,24.35411 
179 ,32.7590 ,0.92166 ,2.47181 ,24.25338 
180 ,32.9354 ,0.92346 ,2.46496 ,24.18622 
181 ,33.1113 ,0.92523 ,2.45127 ,24.05191 
182 ,33.2875 ,0.92701 ,2.42048 ,23.74970 
183 ,33.4635 ,0.92877 ,2.42048 ,23.74970 
184 ,33.6714 ,0.93068 ,2.40679 ,23.61539 
185 ,33.8475 ,0.93256 ,2.37256 ,23.27961 
186 ,34.0237 ,0.93435 ,2.35203 ,23.07814 
187 ,34.2158 ,0.93620 ,2.35545 ,23.11171 
188 ,34.4237 ,0.93827 ,2.33492 ,22.91024 
189 ,34.5999 ,0.94009 ,2.31097 ,22.67520 
190 ,34.7599 ,0.94180 ,2.31781 ,22.74235 
191 ,34.9520 ,0.94358 ,2.29385 ,22.50731 
192 ,35.1282 ,0.94539 ,2.26648 ,22.23868 
193 ,35.3203 ,0.94731 ,2.26648 ,22.23868 
194 ,35.5283 ,0.94939 ,2.23568 ,21.93647 
195 ,35.7039 ,0.95111 ,2.22541 ,21.83574 
196 ,35.8804 ,0.95291 ,2.21172 ,21.70143 
197 ,36.0724 ,0.95482 ,2.21857 ,21.76858 
198 ,36.2482 ,0.95659 ,2.19119 ,21.49996 
199 ,36.4410 ,0.95852 ,2.17066 ,21.29849 
200 ,36.6165 ,0.96027 ,2.17066 ,21.29849 
201 ,36.8244 ,0.96234 ,2.14328 ,21.02986 
202 ,37.0007 ,0.96414 ,2.12617 ,20.86197 
203 ,37.1768 ,0.96583 ,2.11590 ,20.76123 
204 ,37.3689 ,0.96769 ,2.10221 ,20.62692 
205 ,37.5451 ,0.96957 ,2.07826 ,20.39187 
206 ,37.7531 ,0.97158 ,2.06799 ,20.29114 
207 ,37.9293 ,0.97340 ,2.05430 ,20.15682 
208 ,38.1054 ,0.97515 ,2.04746 ,20.08967 
209 ,38.2814 ,0.97694 ,2.01324 ,19.75388 
210 ,38.4575 ,0.97866 ,2.02008 ,19.82104 
211 ,38.6494 ,0.98053 ,1.98586 ,19.48526 
212 ,38.8257 ,0.98232 ,1.97217 ,19.35094 
213 ,38.9856 ,0.98407 ,1.95164 ,19.14948 
214 ,39.1616 ,0.98573 ,1.95848 ,19.21663 
215 ,39.3377 ,0.98745 ,1.95506 ,19.18305 
216 ,39.5135 ,0.98921 ,1.94479 ,19.08232 
217 ,39.6897 ,0.99096 ,1.91742 ,18.81369 
218 ,39.8660 ,0.99276 ,1.91057 ,18.74654 
219 ,40.0580 ,0.99464 ,1.89004 ,18.54507 
220 ,40.2341 ,0.99639 ,1.88319 ,18.47791 
221 ,40.4103 ,0.99816 ,1.86608 ,18.31002 
222 ,40.6022 ,1.00007 ,1.85240 ,18.17570 
223 ,40.7782 ,1.00187 ,1.84213 ,18.07497 
224 ,40.9544 ,1.00361 ,1.82844 ,17.94066 
225 ,41.1466 ,1.00549 ,1.79422 ,17.60487 
226 ,41.3546 ,1.00756 ,1.79764 ,17.63845 
227 ,41.5308 ,1.00942 ,1.77369 ,17.40340 
228 ,41.7067 ,1.01116 ,1.75657 ,17.23551 
229 ,41.8829 ,1.01290 ,1.74631 ,17.13478 
230 ,42.0745 ,1.01488 ,1.72920 ,16.96689 
231 ,42.2508 ,1.01662 ,1.72920 ,16.96689 
232 ,42.4427 ,1.01847 ,1.69498 ,16.63110 
233 ,42.6187 ,1.02022 ,1.68813 ,16.56395 
234 ,42.7949 ,1.02201 ,1.68813 ,16.56395 
235 ,42.9873 ,1.02396 ,1.65049 ,16.19458 
236 ,43.1629 ,1.02570 ,1.64364 ,16.12743 
237 ,43.3393 ,1.02745 ,1.62653 ,15.95954 
238 ,43.5315 ,1.02934 ,1.62311 ,15.92596 
239 ,43.7234 ,1.03131 ,1.59573 ,15.65733 
240 ,43.8995 ,1.03304 ,1.58547 ,15.55660 
241 ,44.0756 ,1.03482 ,1.58204 ,15.52302 
242 ,44.2356 ,1.03653 ,1.56151 ,15.32155 
243 ,44.3957 ,1.03812 ,1.54098 ,15.12008 
244 ,44.6039 ,1.04004 ,1.51702 ,14.88503 
245 ,44.7799 ,1.04186 ,1.51702 ,14.88503 
246 ,44.9560 ,1.04364 ,1.52387 ,14.95219 
247 ,45.1483 ,1.04555 ,1.48622 ,14.58283 
248 ,45.3241 ,1.04731 ,1.47938 ,14.51567 
249 ,45.5002 ,1.04903 ,1.46569 ,14.38136 
250 ,45.6764 ,1.05081 ,1.45542 ,14.28062 
251 ,45.8843 ,1.05287 ,1.43489 ,14.07915 
252 ,46.0604 ,1.05470 ,1.41436 ,13.87768 
253 ,46.2367 ,1.05642 ,1.42462 ,13.97842 
254 ,46.4284 ,1.05838 ,1.38356 ,13.57548 
255 ,46.6047 ,1.06011 ,1.38014 ,13.54190 
256 ,46.7968 ,1.06206 ,1.37329 ,13.47474 
257 ,46.9726 ,1.06374 ,1.35960 ,13.34043 
258 ,47.1490 ,1.06555 ,1.33907 ,13.13896 
259 ,47.3250 ,1.06737 ,1.32880 ,13.03822 
260 ,47.5172 ,1.06926 ,1.32538 ,13.00465 
261 ,47.7091 ,1.07116 ,1.29116 ,12.66886 
262 ,47.8853 ,1.07286 ,1.27405 ,12.50097 
263 ,48.0774 ,1.07469 ,1.28089 ,12.56813 
264 ,48.2534 ,1.07664 ,1.27405 ,12.50097 
265 ,48.4291 ,1.07837 ,1.23641 ,12.13161 
266 ,48.6053 ,1.08009 ,1.22272 ,11.99730 
267 ,48.8134 ,1.08209 ,1.22956 ,12.06445 
268 ,48.9895 ,1.08393 ,1.19534 ,11.72867 
269 ,49.1817 ,1.08586 ,1.19192 ,11.69509 
270 ,49.3736 ,1.08780 ,1.17823 ,11.56078 
271 ,49.5498 ,1.08965 ,1.15427 ,11.32573 
272 ,49.7259 ,1.09132 ,1.13716 ,11.15784 
273 ,49.9019 ,1.09302 ,1.13716 ,11.15784 
274 ,50.0781 ,1.09486 ,1.12347 ,11.02353 
275 ,50.2703 ,1.09675 ,1.09267 ,10.72132 
276 ,50.4462 ,1.09855 ,1.08583 ,10.65416 
277 ,50.6383 ,1.10043 ,1.08241 ,10.62059 
278 ,50.8143 ,1.10222 ,1.08241 ,10.62059 
279 ,50.9904 ,1.10395 ,1.04819 ,10.28480 
280 ,51.1825 ,1.10591 ,1.04134 ,10.21765 
281 ,51.3581 ,1.10764 ,1.02765 ,10.08333 
282 ,51.5347 ,1.10938 ,1.02423 ,10.04976 
283 ,51.7106 ,1.11118 ,0.99343 ,9.74755 
284 ,51.9028 ,1.11305 ,1.00028 ,9.81471 
285 ,52.0949 ,1.11488 ,0.95237 ,9.34461 
286 ,52.2708 ,1.11671 ,0.95921 ,9.41177 
287 ,52.4629 ,1.11857 ,0.94552 ,9.27745 
288 ,52.6549 ,1.12063 ,0.93183 ,9.14314 
289 ,52.8471 ,1.12248 ,0.91130 ,8.94167 
290 ,53.0233 ,1.12430 ,0.90446 ,8.87451 
291 ,53.1993 ,1.12606 ,0.90103 ,8.84094 
292 ,53.3754 ,1.12780 ,0.88734 ,8.70662 
293 ,53.5512 ,1.12953 ,0.85997 ,8.43800 
294 ,53.7432 ,1.13134 ,0.84286 ,8.27011 
295 ,53.9195 ,1.13322 ,0.84970 ,8.33726 
296 ,54.0957 ,1.13498 ,0.83601 ,8.20295 
297 ,54.2717 ,1.13675 ,0.82232 ,8.06864 
298 ,54.4479 ,1.13850 ,0.77441 ,7.59854 
299 ,54.6400 ,1.14045 ,0.79152 ,7.76643 
300 ,54.8157 ,1.14214 ,0.78810 ,7.73285 
301 ,54.9921 ,1.14395 ,0.77441 ,7.59854 
302 ,55.1840 ,1.14587 ,0.74361 ,7.29633 
303 ,55.3602 ,1.14762 ,0.74704 ,7.32991 
304 ,55.5363 ,1.14937 ,0.72650 ,7.12844 
305 ,55.7284 ,1.15128 ,0.69570 ,6.82624 
306 ,55.9041 ,1.15306 ,0.68886 ,6.75908 
307 ,56.0965 ,1.15485 ,0.69228 ,6.79266 
308 ,56.2724 ,1.15680 ,0.66833 ,6.55761 
309 ,56.4486 ,1.15860 ,0.66148 ,6.49046 
310 ,56.6248 ,1.16026 ,0.63753 ,6.25541 
311 ,56.8327 ,1.16230 ,0.62726 ,6.15467 
312 ,57.0088 ,1.16411 ,0.61015 ,5.98678 
313 ,57.1850 ,1.16587 ,0.59988 ,5.88605 
314 ,57.3610 ,1.16765 ,0.59646 ,5.85247 
315 ,57.5372 ,1.16940 ,0.60330 ,5.91962 
316 ,57.7292 ,1.17131 ,0.55882 ,5.48311 
317 ,57.9054 ,1.17308 ,0.55197 ,5.41595 
318 ,58.0652 ,1.17479 ,0.55197 ,5.41595 
319 ,58.2413 ,1.17638 ,0.54513 ,5.34879 
320 ,58.4174 ,1.17817 ,0.53144 ,5.21448 
321 ,58.5935 ,1.17989 ,0.51433 ,5.04659 
322 ,58.7854 ,1.18182 ,0.49722 ,4.87870 
323 ,58.9616 ,1.18368 ,0.50064 ,4.91228 
324 ,59.1537 ,1.18555 ,0.47668 ,4.67723 
325 ,59.3299 ,1.18731 ,0.45957 ,4.50934 
326 ,59.5058 ,1.18909 ,0.44588 ,4.37502 
327 ,59.6819 ,1.19084 ,0.44246 ,4.34144 
328 ,59.8736 ,1.19266 ,0.44246 ,4.34144 
329 ,60.0500 ,1.19450 ,0.41851 ,4.10640 
330 ,60.2101 ,1.19622 ,0.39455 ,3.87135 
331 ,60.3859 ,1.19791 ,0.39113 ,3.83777 
332 ,60.5623 ,1.19961 ,0.38429 ,3.77061 
333 ,60.7544 ,1.20157 ,0.38086 ,3.73703 
334 ,60.9464 ,1.20346 ,0.34664 ,3.40125 
335 ,61.1384 ,1.20536 ,0.35691 ,3.50199 
336 ,61.3146 ,1.20712 ,0.34664 ,3.40125 
337 ,61.5228 ,1.20907 ,0.32269 ,3.16620 
338 ,61.7147 ,1.21110 ,0.31584 ,3.09905 
339 ,61.9230 ,1.21312 ,0.28847 ,2.83042 
340 ,62.1145 ,1.21514 ,0.27820 ,2.72969 
341 ,62.2905 ,1.21690 ,0.28504 ,2.79684 
342 ,62.4670 ,1.21863 ,0.25767 ,2.52822 
343 ,62.6592 ,1.22056 ,0.25424 ,2.49464 
344 ,62.8512 ,1.22238 ,0.26109 ,2.56179 
345 ,63.0433 ,1.22443 ,0.23713 ,2.32675 
346 ,63.2194 ,1.22617 ,0.22344 ,2.19243 
347 ,63.3955 ,1.22795 ,0.21660 ,2.12528 
348 ,63.6035 ,1.22990 ,0.19264 ,1.89023 
349 ,63.7796 ,1.23178 ,0.17553 ,1.72234 
350 ,63.9718 ,1.23368 ,0.18238 ,1.78949 
351 ,64.1478 ,1.23548 ,0.14816 ,1.45371 
352 ,64.3398 ,1.23738 ,0.16527 ,1.62160 
353 ,64.5159 ,1.23913 ,0.13447 ,1.31940 
354 ,64.7079 ,1.24104 ,0.12762 ,1.25224 
355 ,64.8842 ,1.24283 ,0.11393 ,1.11793 
356 ,65.0604 ,1.24462 ,0.10367 ,1.01719 
357 ,65.2523 ,1.24647 ,0.08998 ,0.88288 
358 ,65.4763 ,1.24864 ,0.08656 ,0.84930 
359 ,65.6523 ,1.25052 ,0.07287 ,0.71499 
360 ,65.8285 ,1.25226 ,0.05576 ,0.54710 
361 ,66.0048 ,1.25402 ,0.04549 ,0.44636 
362 ,66.1966 ,1.25595 ,0.05234 ,0.51352 
363 ,66.3728 ,1.25771 ,0.04207 ,0.41278 
364 ,66.5648 ,1.25962 ,0.01811 ,0.17773 
365 ,66.7408 ,1.26140 ,0.02154 ,0.21131 
366 ,66.9170 ,1.26315 ,0.00785 ,0.07700 
367 ,67.0927 ,1.26494 ,-0.01269 ,-0.12447 
368 ,67.2691 ,1.26669 ,-0.03322 ,-0.32594 
369 ,67.4452 ,1.26844 ,-0.03664 ,-0.35952 
370 ,67.6371 ,1.27033 ,-0.03664 ,-0.35952 
371 ,67.8134 ,1.27210 ,-0.04348 ,-0.42667 
372 ,68.0213 ,1.27402 ,-0.05375 ,-0.52741 
373 ,68.1975 ,1.27594 ,-0.06402 ,-0.62814 
374 ,68.3736 ,1.27771 ,-0.07771 ,-0.76246 
375 ,68.5817 ,1.27975 ,-0.08113 ,-0.79604 
376 ,68.7577 ,1.28159 ,-0.09140 ,-0.89677 
377 ,68.9340 ,1.28344 ,-0.11193 ,-1.09824 
378 ,69.1099 ,1.28505 ,-0.12904 ,-1.26613 
379 ,69.2855 ,1.28686 ,-0.13246 ,-1.29971 
380 ,69.4457 ,1.28854 ,-0.14615 ,-1.43402 
381 ,69.6221 ,1.29018 ,-0.15299 ,-1.50118 
382 ,69.8141 ,1.29202 ,-0.15642 ,-1.53476 
383 ,70.0222 ,1.29412 ,-0.16326 ,-1.60191 
384 ,70.1982 ,1.29593 ,-0.18037 ,-1.76981 
385 ,70.3744 ,1.29769 ,-0.18722 ,-1.83696 
386 ,70.5504 ,1.29947 ,-0.20775 ,-2.03843 
387 ,70.7262 ,1.30117 ,-0.21802 ,-2.13917 
388 ,70.9025 ,1.30298 ,-0.22828 ,-2.23990 
389 ,71.1426 ,1.30514 ,-0.24881 ,-2.44137 
390 ,71.3183 ,1.30718 ,-0.23513 ,-2.30706 
391 ,71.4947 ,1.30886 ,-0.24539 ,-2.40779 
392 ,71.6709 ,1.31068 ,-0.26593 ,-2.60926 
393 ,71.8309 ,1.31238 ,-0.27277 ,-2.67642 
394 ,72.0070 ,1.31399 ,-0.28988 ,-2.84431 
395 ,72.1990 ,1.31597 ,-0.28304 ,-2.77716 
396 ,72.3912 ,1.31775 ,-0.29330 ,-2.87789 
397 ,72.5993 ,1.31986 ,-0.29330 ,-2.87789 
398 ,72.7755 ,1.32173 ,-0.30699 ,-3.01220 
399 ,72.9514 ,1.32348 ,-0.31726 ,-3.11294 
400 ,73.1435 ,1.32537 ,-0.34806 ,-3.41514 
401 ,73.3196 ,1.32710 ,-0.33437 ,-3.28083 
402 ,73.5116 ,1.32909 ,-0.34464 ,-3.38156 
403 ,73.6876 ,1.33081 ,-0.36517 ,-3.58303 
404 ,73.8638 ,1.33261 ,-0.36859 ,-3.61661 
405 ,74.0557 ,1.33445 ,-0.38570 ,-3.78450 
406 ,74.2480 ,1.33635 ,-0.39255 ,-3.85166 
407 ,74.4240 ,1.33818 ,-0.39597 ,-3.88524 
408 ,74.6001 ,1.33995 ,-0.39939 ,-3.91882 
409 ,74.7761 ,1.34172 ,-0.40281 ,-3.95240 
410 ,74.9520 ,1.34343 ,-0.42335 ,-4.15387 
411 ,75.1284 ,1.34527 ,-0.41308 ,-4.05313 
412 ,75.3364 ,1.34723 ,-0.44388 ,-4.35534 
413 ,75.5285 ,1.34926 ,-0.45757 ,-4.48965 
414 ,75.7205 ,1.35108 ,-0.44388 ,-4.35534 
415 ,75.9126 ,1.35306 ,-0.45414 ,-4.45607 
416 ,76.1047 ,1.35494 ,-0.46783 ,-4.59038 
417 ,76.3128 ,1.35696 ,-0.48152 ,-4.72470 
418 ,76.4888 ,1.35884 ,-0.49179 ,-4.82543 
419 ,76.6809 ,1.36079 ,-0.49521 ,-4.85901 
420 ,76.8569 ,1.36252 ,-0.49863 ,-4.89259 
421 ,77.0490 ,1.36446 ,-0.51917 ,-5.09406 
422 ,77.2251 ,1.36627 ,-0.51574 ,-5.06048 
423 ,77.4172 ,1.36806 ,-0.52259 ,-5.12764 
424 ,77.5933 ,1.36984 ,-0.53628 ,-5.26195 
425 ,77.7854 ,1.37181 ,-0.56365 ,-5.53058 
426 ,77.9616 ,1.37360 ,-0.57050 ,-5.59773 
427 ,78.1532 ,1.37547 ,-0.56365 ,-5.53058 
428 ,78.3295 ,1.37729 ,-0.57392 ,-5.63131 
429 ,78.5216 ,1.37918 ,-0.59788 ,-5.86636 
430 ,78.6975 ,1.38092 ,-0.57734 ,-5.66489 
431 ,78.8899 ,1.38283 ,-0.60814 ,-5.96709 
432 ,79.0817 ,1.38471 ,-0.61156 ,-6.00067 
433 ,79.2577 ,1.38646 ,-0.60472 ,-5.93352 
434 ,79.4342 ,1.38829 ,-0.62183 ,-6.10141 
435 ,79.6101 ,1.39003 ,-0.63210 ,-6.20214 
436 ,79.8020 ,1.39195 ,-0.65263 ,-6.40361 
437 ,79.9782 ,1.39370 ,-0.64921 ,-6.37003 
438 ,80.1703 ,1.39561 ,-0.65605 ,-6.43719 
439 ,80.3463 ,1.39745 ,-0.66974 ,-6.57150 
440 ,80.5223 ,1.39921 ,-0.66974 ,-6.57150 
441 ,80.6984 ,1.40089 ,-0.69370 ,-6.80655 
442 ,80.8746 ,1.40265 ,-0.69712 ,-6.84013 
443 ,81.0827 ,1.40457 ,-0.70396 ,-6.90729 
444 ,81.2748 ,1.40669 ,-0.70396 ,-6.90729 
445 ,81.4510 ,1.40847 ,-0.70396 ,-6.90729 
446 ,81.6428 ,1.41036 ,-0.73134 ,-7.17591 
447 ,81.8187 ,1.41208 ,-0.72792 ,-7.14233 
448 ,82.0109 ,1.41393 ,-0.73134 ,-7.17591 
449 ,82.1868 ,1.41580 ,-0.76556 ,-7.51170 
450 ,82.3627 ,1.41755 ,-0.76898 ,-7.54527 
451 ,82.5391 ,1.41932 ,-0.75872 ,-7.44454 
452 ,82.7313 ,1.42122 ,-0.76898 ,-7.54527 
453 ,82.9073 ,1.42300 ,-0.79636 ,-7.81390 
454 ,83.0834 ,1.42473 ,-0.80663 ,-7.91464 
455 ,83.2595 ,1.42650 ,-0.79294 ,-7.78032 
456 ,83.4512 ,1.42842 ,-0.79978 ,-7.84748 
457 ,83.6277 ,1.43024 ,-0.82032 ,-8.04895 
458 ,83.8197 ,1.43209 ,-0.82374 ,-8.08253 
459 ,83.9957 ,1.43383 ,-0.83401 ,-8.18326 
460 ,84.2039 ,1.43581 ,-0.84085 ,-8.25042 
461 ,84.3959 ,1.43789 ,-0.83743 ,-8.21684 
462 ,84.5719 ,1.43958 ,-0.84769 ,-8.31758 
463 ,84.7481 ,1.44139 ,-0.86823 ,-8.51904 
