Data stamp = , 02-04-2022 21:48:36 442

Calibration Values: 
Slope = , 26.54 , g/V 
Offset Voltage at no contact = , -0.501760 , V 

No , Time , Stage Position ,   Mass , Force 
   ,  (s) ,      (mm)      ,   (g)  , (mN)  

1 ,0.0000 ,0.59935 ,5.33616 ,52.35841 
2 ,0.2145 ,0.59939 ,5.34643 ,52.45915 
3 ,0.5505 ,0.60032 ,5.34643 ,52.45915 
4 ,0.7589 ,0.60191 ,5.33616 ,52.35841 
5 ,0.9669 ,0.60365 ,5.35669 ,52.55988 
6 ,1.1591 ,0.60573 ,5.33616 ,52.35841 
7 ,1.3669 ,0.60761 ,5.35327 ,52.52631 
8 ,1.5433 ,0.60954 ,5.34301 ,52.42557 
9 ,1.7353 ,0.61143 ,5.34985 ,52.49273 
10 ,1.9114 ,0.61327 ,5.32932 ,52.29126 
11 ,2.1034 ,0.61509 ,5.30536 ,52.05621 
12 ,2.2795 ,0.61694 ,5.28141 ,51.82116 
13 ,2.4717 ,0.61876 ,5.28141 ,51.82116 
14 ,2.6637 ,0.62070 ,5.25403 ,51.55254 
15 ,2.8558 ,0.62265 ,5.22665 ,51.28391 
16 ,3.0318 ,0.62445 ,5.24034 ,51.41822 
17 ,3.2078 ,0.62618 ,5.21639 ,51.18317 
18 ,3.3840 ,0.62797 ,5.17874 ,50.81381 
19 ,3.5755 ,0.62987 ,5.16505 ,50.67950 
20 ,3.7681 ,0.63169 ,5.17190 ,50.74666 
21 ,3.9438 ,0.63354 ,5.14110 ,50.44445 
22 ,4.1042 ,0.63528 ,5.10345 ,50.07509 
23 ,4.2803 ,0.63689 ,5.09661 ,50.00793 
24 ,4.4563 ,0.63864 ,5.08292 ,49.87362 
25 ,4.6322 ,0.64041 ,5.08634 ,49.90720 
26 ,4.8085 ,0.64220 ,5.06239 ,49.67215 
27 ,5.0012 ,0.64409 ,5.02132 ,49.26921 
28 ,5.1766 ,0.64584 ,5.01448 ,49.20205 
29 ,5.3529 ,0.64762 ,5.00763 ,49.13490 
30 ,5.5284 ,0.64938 ,4.99052 ,48.96701 
31 ,5.7044 ,0.65119 ,4.95972 ,48.66480 
32 ,5.8805 ,0.65291 ,4.94946 ,48.56407 
33 ,6.0566 ,0.65468 ,4.93577 ,48.42975 
34 ,6.2326 ,0.65640 ,4.92892 ,48.36260 
35 ,6.4249 ,0.65831 ,4.91523 ,48.22828 
36 ,6.6491 ,0.66040 ,4.88101 ,47.89250 
37 ,6.8572 ,0.66260 ,4.86390 ,47.72461 
38 ,7.0331 ,0.66443 ,4.85364 ,47.62387 
39 ,7.2096 ,0.66615 ,4.83310 ,47.42240 
40 ,7.4015 ,0.66806 ,4.80573 ,47.15378 
41 ,7.5778 ,0.66985 ,4.78177 ,46.91873 
42 ,7.7537 ,0.67174 ,4.78519 ,46.95231 
43 ,7.9137 ,0.67332 ,4.78177 ,46.91873 
44 ,8.1059 ,0.67511 ,4.73728 ,46.48221 
45 ,8.2981 ,0.67705 ,4.72702 ,46.38148 
46 ,8.4741 ,0.67881 ,4.70648 ,46.18001 
47 ,8.6661 ,0.68069 ,4.68937 ,46.01212 
48 ,8.8421 ,0.68246 ,4.66199 ,45.74349 
49 ,9.0183 ,0.68422 ,4.65515 ,45.67633 
50 ,9.2263 ,0.68630 ,4.63119 ,45.44128 
51 ,9.4025 ,0.68805 ,4.62435 ,45.37413 
52 ,9.5785 ,0.68988 ,4.59697 ,45.10550 
53 ,9.7547 ,0.69167 ,4.59013 ,45.03835 
54 ,9.9623 ,0.69361 ,4.56275 ,44.76972 
55 ,10.1388 ,0.69541 ,4.55249 ,44.66898 
56 ,10.3147 ,0.69721 ,4.54564 ,44.60183 
57 ,10.4910 ,0.69899 ,4.51484 ,44.29962 
58 ,10.6670 ,0.70073 ,4.51484 ,44.29962 
59 ,10.8748 ,0.70275 ,4.49431 ,44.09815 
60 ,11.0511 ,0.70464 ,4.48062 ,43.96384 
61 ,11.2271 ,0.70635 ,4.45666 ,43.72879 
62 ,11.4030 ,0.70812 ,4.43271 ,43.49374 
63 ,11.5794 ,0.70989 ,4.41902 ,43.35943 
64 ,11.7554 ,0.71167 ,4.39507 ,43.12438 
65 ,11.9474 ,0.71355 ,4.39164 ,43.09080 
66 ,12.1234 ,0.71527 ,4.36427 ,42.82218 
67 ,12.2996 ,0.71707 ,4.33004 ,42.48639 
68 ,12.5076 ,0.71898 ,4.32662 ,42.45282 
69 ,12.6837 ,0.72089 ,4.30609 ,42.25135 
70 ,12.8598 ,0.72266 ,4.29924 ,42.18419 
71 ,13.0357 ,0.72441 ,4.27529 ,41.94914 
72 ,13.2116 ,0.72630 ,4.26502 ,41.84841 
73 ,13.3881 ,0.72801 ,4.25818 ,41.78125 
74 ,13.5640 ,0.72971 ,4.22738 ,41.47905 
75 ,13.7402 ,0.73145 ,4.20342 ,41.24400 
76 ,13.9161 ,0.73321 ,4.18631 ,41.07611 
77 ,14.0924 ,0.73502 ,4.17605 ,40.97537 
78 ,14.2844 ,0.73681 ,4.17605 ,40.97537 
79 ,14.4605 ,0.73870 ,4.13156 ,40.53885 
80 ,14.6526 ,0.74061 ,4.15209 ,40.74032 
81 ,14.8607 ,0.74260 ,4.10076 ,40.23665 
82 ,15.0527 ,0.74448 ,4.08365 ,40.06876 
83 ,15.2282 ,0.74631 ,4.09734 ,40.20307 
84 ,15.4049 ,0.74812 ,4.05285 ,39.76655 
85 ,15.5970 ,0.75001 ,4.03574 ,39.59866 
86 ,15.7729 ,0.75181 ,4.02889 ,39.53150 
87 ,15.9490 ,0.75351 ,4.00494 ,39.29646 
88 ,16.1251 ,0.75526 ,3.98441 ,39.09499 
89 ,16.3007 ,0.75708 ,3.96387 ,38.89352 
90 ,16.4772 ,0.75882 ,3.94676 ,38.72562 
91 ,16.6532 ,0.76060 ,3.95018 ,38.75920 
92 ,16.8454 ,0.76252 ,3.91596 ,38.42342 
93 ,17.0374 ,0.76430 ,3.90570 ,38.32268 
94 ,17.2135 ,0.76616 ,3.89543 ,38.22195 
95 ,17.3895 ,0.76796 ,3.87832 ,38.05406 
96 ,17.5658 ,0.76972 ,3.86805 ,37.95332 
97 ,17.7418 ,0.77148 ,3.84410 ,37.71828 
98 ,17.9338 ,0.77336 ,3.82014 ,37.48323 
99 ,18.1100 ,0.77516 ,3.82699 ,37.55038 
100 ,18.3019 ,0.77699 ,3.76881 ,36.97955 
101 ,18.4781 ,0.77877 ,3.75854 ,36.87882 
102 ,18.6701 ,0.78077 ,3.77223 ,37.01313 
103 ,18.8462 ,0.78253 ,3.74828 ,36.77808 
104 ,19.0222 ,0.78428 ,3.72774 ,36.57661 
105 ,19.1985 ,0.78605 ,3.71063 ,36.40872 
106 ,19.3741 ,0.78777 ,3.68325 ,36.14010 
107 ,19.5505 ,0.78954 ,3.68668 ,36.17367 
108 ,19.7424 ,0.79147 ,3.66957 ,36.00578 
109 ,19.9187 ,0.79323 ,3.63192 ,35.63642 
110 ,20.1107 ,0.79514 ,3.62508 ,35.56926 
111 ,20.3188 ,0.79717 ,3.59428 ,35.26706 
112 ,20.4946 ,0.79903 ,3.58059 ,35.13275 
113 ,20.6705 ,0.80078 ,3.58743 ,35.19990 
114 ,20.8465 ,0.80252 ,3.57032 ,35.03201 
115 ,21.0226 ,0.80424 ,3.54637 ,34.79696 
116 ,21.1990 ,0.80603 ,3.51557 ,34.49476 
117 ,21.4071 ,0.80807 ,3.51215 ,34.46118 
118 ,21.5993 ,0.81002 ,3.49846 ,34.32687 
119 ,21.7754 ,0.81174 ,3.47792 ,34.12540 
120 ,21.9836 ,0.81383 ,3.47450 ,34.09182 
121 ,22.1596 ,0.81566 ,3.44028 ,33.75604 
122 ,22.3363 ,0.81743 ,3.41975 ,33.55457 
123 ,22.5119 ,0.81915 ,3.41633 ,33.52099 
124 ,22.6877 ,0.82094 ,3.40948 ,33.45383 
125 ,22.8639 ,0.82262 ,3.39237 ,33.28594 
126 ,23.0559 ,0.82458 ,3.35815 ,32.95016 
127 ,23.2480 ,0.82646 ,3.35815 ,32.95016 
128 ,23.4397 ,0.82842 ,3.33762 ,32.74869 
129 ,23.5998 ,0.83011 ,3.31708 ,32.54722 
130 ,23.7761 ,0.83178 ,3.30339 ,32.41290 
131 ,23.9681 ,0.83371 ,3.29655 ,32.34575 
132 ,24.1444 ,0.83547 ,3.28971 ,32.27859 
133 ,24.3204 ,0.83723 ,3.26917 ,32.07712 
134 ,24.5126 ,0.83916 ,3.25206 ,31.90923 
135 ,24.6882 ,0.84094 ,3.23837 ,31.77492 
136 ,24.8647 ,0.84266 ,3.23153 ,31.70776 
137 ,25.0408 ,0.84445 ,3.19731 ,31.37198 
138 ,25.2168 ,0.84618 ,3.17677 ,31.17051 
139 ,25.3768 ,0.84787 ,3.16651 ,31.06977 
140 ,25.5526 ,0.84954 ,3.16309 ,31.03619 
141 ,25.7289 ,0.85127 ,3.15282 ,30.93546 
142 ,25.9050 ,0.85305 ,3.13913 ,30.80115 
143 ,26.0811 ,0.85477 ,3.12544 ,30.66683 
144 ,26.2573 ,0.85658 ,3.10149 ,30.43178 
145 ,26.4333 ,0.85837 ,3.07411 ,30.16316 
146 ,26.6252 ,0.86025 ,3.08095 ,30.23031 
147 ,26.8015 ,0.86198 ,3.05700 ,29.99527 
148 ,26.9775 ,0.86379 ,3.03304 ,29.76022 
149 ,27.1537 ,0.86557 ,3.03304 ,29.76022 
150 ,27.3297 ,0.86732 ,3.01593 ,29.59233 
151 ,27.5218 ,0.86921 ,2.99882 ,29.42444 
152 ,27.6980 ,0.87105 ,2.97487 ,29.18939 
153 ,27.8898 ,0.87283 ,2.97144 ,29.15581 
154 ,28.0659 ,0.87466 ,2.96118 ,29.05507 
155 ,28.2579 ,0.87662 ,2.92353 ,28.68571 
156 ,28.4342 ,0.87835 ,2.89958 ,28.45066 
157 ,28.6101 ,0.88015 ,2.89616 ,28.41709 
158 ,28.7861 ,0.88188 ,2.89616 ,28.41709 
159 ,28.9621 ,0.88364 ,2.87562 ,28.21562 
160 ,29.1544 ,0.88549 ,2.84825 ,27.94699 
161 ,29.3464 ,0.88752 ,2.83114 ,27.77910 
162 ,29.5226 ,0.88924 ,2.82771 ,27.74552 
163 ,29.7146 ,0.89114 ,2.79349 ,27.40974 
164 ,29.8908 ,0.89293 ,2.78665 ,27.34258 
165 ,30.0664 ,0.89472 ,2.79007 ,27.37616 
166 ,30.2589 ,0.89648 ,2.77296 ,27.20827 
167 ,30.4509 ,0.89854 ,2.74558 ,26.93964 
168 ,30.6271 ,0.90026 ,2.75243 ,27.00680 
169 ,30.8190 ,0.90215 ,2.70794 ,26.57028 
170 ,30.9951 ,0.90392 ,2.69083 ,26.40239 
171 ,31.1711 ,0.90567 ,2.68398 ,26.33523 
172 ,31.3469 ,0.90746 ,2.67372 ,26.23450 
173 ,31.5233 ,0.90922 ,2.66003 ,26.10018 
174 ,31.7153 ,0.91118 ,2.62581 ,25.76440 
175 ,31.9075 ,0.91307 ,2.64292 ,25.93229 
176 ,32.0836 ,0.91481 ,2.61896 ,25.69724 
177 ,32.2437 ,0.91655 ,2.61212 ,25.63009 
178 ,32.4358 ,0.91830 ,2.57105 ,25.22715 
179 ,32.6118 ,0.92011 ,2.55736 ,25.09283 
180 ,32.7880 ,0.92189 ,2.55394 ,25.05926 
181 ,32.9637 ,0.92367 ,2.54710 ,24.99210 
182 ,33.1401 ,0.92537 ,2.51972 ,24.72347 
183 ,33.3482 ,0.92743 ,2.51972 ,24.72347 
184 ,33.5402 ,0.92940 ,2.48892 ,24.42127 
185 ,33.7163 ,0.93113 ,2.47865 ,24.32053 
186 ,33.9083 ,0.93308 ,2.46496 ,24.18622 
187 ,34.0844 ,0.93483 ,2.46496 ,24.18622 
188 ,34.2602 ,0.93655 ,2.44443 ,23.98475 
189 ,34.4364 ,0.93836 ,2.42048 ,23.74970 
190 ,34.6288 ,0.94033 ,2.41363 ,23.68255 
191 ,34.8045 ,0.94203 ,2.40336 ,23.58181 
192 ,34.9967 ,0.94391 ,2.37599 ,23.31318 
193 ,35.1728 ,0.94571 ,2.33834 ,22.94382 
194 ,35.3486 ,0.94741 ,2.33834 ,22.94382 
195 ,35.5251 ,0.94925 ,2.34177 ,22.97740 
196 ,35.7170 ,0.95116 ,2.30754 ,22.64162 
197 ,35.8931 ,0.95289 ,2.29385 ,22.50731 
198 ,36.0693 ,0.95467 ,2.28017 ,22.37299 
199 ,36.2454 ,0.95643 ,2.28017 ,22.37299 
200 ,36.4374 ,0.95831 ,2.24937 ,22.07079 
201 ,36.6134 ,0.96003 ,2.23226 ,21.90290 
202 ,36.7896 ,0.96187 ,2.21857 ,21.76858 
203 ,36.9656 ,0.96363 ,2.22541 ,21.83574 
204 ,37.1417 ,0.96538 ,2.20488 ,21.63427 
205 ,37.3178 ,0.96715 ,2.18092 ,21.39922 
206 ,37.5255 ,0.96916 ,2.16723 ,21.26491 
207 ,37.7178 ,0.97101 ,2.16381 ,21.23133 
208 ,37.8939 ,0.97285 ,2.13301 ,20.92912 
209 ,38.0861 ,0.97486 ,2.12275 ,20.82839 
210 ,38.2620 ,0.97656 ,2.10906 ,20.69408 
211 ,38.4383 ,0.97833 ,2.09879 ,20.59334 
212 ,38.6142 ,0.98012 ,2.07484 ,20.35829 
213 ,38.8064 ,0.98203 ,2.06115 ,20.22398 
214 ,38.9825 ,0.98381 ,2.06799 ,20.29114 
215 ,39.1584 ,0.98554 ,2.03719 ,19.98893 
216 ,39.3506 ,0.98745 ,2.02350 ,19.85462 
217 ,39.5427 ,0.98929 ,1.99955 ,19.61957 
218 ,39.7348 ,0.99124 ,1.98586 ,19.48526 
219 ,39.9268 ,0.99322 ,1.97902 ,19.41810 
220 ,40.1189 ,0.99515 ,1.95164 ,19.14948 
221 ,40.3110 ,0.99701 ,1.95506 ,19.18305 
222 ,40.4870 ,0.99882 ,1.94822 ,19.11590 
223 ,40.6790 ,1.00073 ,1.92426 ,18.88085 
224 ,40.8552 ,1.00252 ,1.88319 ,18.47791 
225 ,41.0473 ,1.00443 ,1.88662 ,18.51149 
226 ,41.2233 ,1.00617 ,1.89688 ,18.61222 
227 ,41.3995 ,1.00791 ,1.86951 ,18.34360 
228 ,41.5756 ,1.00972 ,1.83871 ,18.04139 
229 ,41.7355 ,1.01144 ,1.82160 ,17.87350 
230 ,41.9116 ,1.01303 ,1.81133 ,17.77276 
231 ,42.1038 ,1.01488 ,1.80791 ,17.73919 
232 ,42.3117 ,1.01691 ,1.79422 ,17.60487 
233 ,42.4879 ,1.01885 ,1.77711 ,17.43698 
234 ,42.6799 ,1.02074 ,1.77026 ,17.36983 
235 ,42.8399 ,1.02246 ,1.73946 ,17.06762 
236 ,43.0161 ,1.02406 ,1.73262 ,17.00046 
237 ,43.2081 ,1.02597 ,1.71551 ,16.83257 
238 ,43.4001 ,1.02791 ,1.69840 ,16.66468 
239 ,43.5761 ,1.02969 ,1.68471 ,16.53037 
240 ,43.7523 ,1.03147 ,1.67444 ,16.42963 
241 ,43.9284 ,1.03325 ,1.65391 ,16.22816 
242 ,44.1203 ,1.03517 ,1.65733 ,16.26174 
243 ,44.2963 ,1.03691 ,1.63680 ,16.06027 
244 ,44.4726 ,1.03864 ,1.61969 ,15.89238 
245 ,44.6647 ,1.04053 ,1.61284 ,15.82522 
246 ,44.8406 ,1.04237 ,1.59916 ,15.69091 
247 ,45.0328 ,1.04427 ,1.57178 ,15.42228 
248 ,45.2248 ,1.04620 ,1.56836 ,15.38871 
249 ,45.4012 ,1.04792 ,1.55124 ,15.22081 
250 ,45.5931 ,1.04978 ,1.54098 ,15.12008 
251 ,45.8012 ,1.05180 ,1.52387 ,14.95219 
252 ,45.9608 ,1.05364 ,1.49649 ,14.68356 
253 ,46.1373 ,1.05527 ,1.49307 ,14.64998 
254 ,46.3292 ,1.05727 ,1.47938 ,14.51567 
255 ,46.5214 ,1.05909 ,1.45542 ,14.28062 
256 ,46.6977 ,1.06088 ,1.45200 ,14.24704 
257 ,46.8736 ,1.06267 ,1.42462 ,13.97842 
258 ,47.0497 ,1.06441 ,1.41778 ,13.91126 
259 ,47.2259 ,1.06617 ,1.42120 ,13.94484 
260 ,47.4021 ,1.06798 ,1.40751 ,13.81053 
261 ,47.5780 ,1.06977 ,1.38014 ,13.54190 
262 ,47.7699 ,1.07167 ,1.35276 ,13.27327 
263 ,47.9460 ,1.07339 ,1.35618 ,13.30685 
264 ,48.1381 ,1.07525 ,1.34591 ,13.20612 
265 ,48.3141 ,1.07705 ,1.31512 ,12.90391 
266 ,48.5224 ,1.07898 ,1.31169 ,12.87033 
267 ,48.7140 ,1.08108 ,1.28774 ,12.63528 
268 ,48.8905 ,1.08283 ,1.26720 ,12.43381 
269 ,49.0665 ,1.08457 ,1.26378 ,12.40024 
270 ,49.2586 ,1.08645 ,1.25009 ,12.26592 
271 ,49.4507 ,1.08836 ,1.22956 ,12.06445 
272 ,49.6428 ,1.09037 ,1.22956 ,12.06445 
273 ,49.8189 ,1.09215 ,1.22956 ,12.06445 
274 ,49.9950 ,1.09388 ,1.19192 ,11.69509 
275 ,50.1708 ,1.09562 ,1.18507 ,11.62794 
276 ,50.3470 ,1.09739 ,1.16112 ,11.39289 
277 ,50.5231 ,1.09913 ,1.16796 ,11.46004 
278 ,50.6994 ,1.10091 ,1.15085 ,11.29215 
279 ,50.8754 ,1.10264 ,1.13374 ,11.12426 
280 ,51.0514 ,1.10445 ,1.10636 ,10.85563 
281 ,51.2271 ,1.10614 ,1.09952 ,10.78848 
282 ,51.4037 ,1.10793 ,1.08925 ,10.68774 
283 ,51.5797 ,1.10970 ,1.08241 ,10.62059 
284 ,51.7557 ,1.11152 ,1.06530 ,10.45270 
285 ,51.9317 ,1.11319 ,1.04134 ,10.21765 
286 ,52.1079 ,1.11500 ,1.02765 ,10.08333 
287 ,52.2836 ,1.11676 ,1.03108 ,10.11691 
288 ,52.4596 ,1.11854 ,1.01396 ,9.94902 
289 ,52.6521 ,1.12036 ,0.99001 ,9.71397 
290 ,52.8281 ,1.12219 ,0.97290 ,9.54608 
291 ,53.0046 ,1.12389 ,0.97632 ,9.57966 
292 ,53.1802 ,1.12570 ,0.95921 ,9.41177 
293 ,53.3560 ,1.12755 ,0.93183 ,9.14314 
294 ,53.5324 ,1.12924 ,0.92499 ,9.07598 
295 ,53.7244 ,1.13112 ,0.93525 ,9.17672 
296 ,53.9007 ,1.13293 ,0.91472 ,8.97525 
297 ,54.0766 ,1.13472 ,0.89077 ,8.74020 
298 ,54.2687 ,1.13656 ,0.89077 ,8.74020 
299 ,54.4607 ,1.13848 ,0.87708 ,8.60589 
300 ,54.6369 ,1.14030 ,0.86339 ,8.47158 
301 ,54.8128 ,1.14205 ,0.83943 ,8.23653 
302 ,54.9889 ,1.14377 ,0.81890 ,8.03506 
303 ,55.1812 ,1.14565 ,0.81890 ,8.03506 
304 ,55.3731 ,1.14758 ,0.78810 ,7.73285 
305 ,55.5332 ,1.14933 ,0.77784 ,7.63212 
306 ,55.7094 ,1.15100 ,0.77784 ,7.63212 
307 ,55.9014 ,1.15290 ,0.77099 ,7.56496 
308 ,56.0775 ,1.15465 ,0.76072 ,7.46423 
309 ,56.2695 ,1.15654 ,0.74019 ,7.26276 
310 ,56.4458 ,1.15836 ,0.70939 ,6.96055 
311 ,56.6377 ,1.16029 ,0.71624 ,7.02771 
312 ,56.8139 ,1.16202 ,0.70597 ,6.92697 
313 ,57.0060 ,1.16396 ,0.68886 ,6.75908 
314 ,57.1976 ,1.16580 ,0.68201 ,6.69193 
315 ,57.3741 ,1.16762 ,0.66490 ,6.52403 
316 ,57.5659 ,1.16953 ,0.64095 ,6.28899 
317 ,57.7743 ,1.17148 ,0.65464 ,6.42330 
318 ,57.9822 ,1.17365 ,0.62384 ,6.12109 
319 ,58.1584 ,1.17548 ,0.62042 ,6.08752 
320 ,58.3502 ,1.17730 ,0.58277 ,5.71815 
321 ,58.5425 ,1.17935 ,0.58277 ,5.71815 
322 ,58.7185 ,1.18106 ,0.57251 ,5.61742 
323 ,58.8947 ,1.18286 ,0.56566 ,5.55026 
324 ,59.0703 ,1.18456 ,0.53828 ,5.28164 
325 ,59.2469 ,1.18632 ,0.53486 ,5.24806 
326 ,59.4225 ,1.18810 ,0.51775 ,5.08017 
327 ,59.5991 ,1.18986 ,0.52117 ,5.11375 
328 ,59.7907 ,1.19181 ,0.48695 ,4.77796 
329 ,59.9832 ,1.19368 ,0.49722 ,4.87870 
330 ,60.1592 ,1.19550 ,0.48695 ,4.77796 
331 ,60.3513 ,1.19744 ,0.46642 ,4.57649 
332 ,60.5272 ,1.19916 ,0.44588 ,4.37502 
333 ,60.7193 ,1.20097 ,0.44246 ,4.34144 
334 ,60.8952 ,1.20283 ,0.44246 ,4.34144 
335 ,61.0876 ,1.20468 ,0.41166 ,4.03924 
336 ,61.2638 ,1.20654 ,0.39455 ,3.87135 
337 ,61.4557 ,1.20845 ,0.40482 ,3.97208 
338 ,61.6478 ,1.21030 ,0.37402 ,3.66988 
339 ,61.8396 ,1.21222 ,0.37402 ,3.66988 
340 ,62.0158 ,1.21400 ,0.36375 ,3.56914 
341 ,62.1921 ,1.21583 ,0.32953 ,3.23336 
342 ,62.3682 ,1.21755 ,0.30900 ,3.03189 
343 ,62.5601 ,1.21945 ,0.32953 ,3.23336 
344 ,62.7363 ,1.22126 ,0.32269 ,3.16620 
345 ,62.9123 ,1.22299 ,0.30215 ,2.96473 
346 ,63.0884 ,1.22474 ,0.27820 ,2.72969 
347 ,63.2646 ,1.22652 ,0.27478 ,2.69611 
348 ,63.4725 ,1.22849 ,0.28162 ,2.76326 
349 ,63.6488 ,1.23035 ,0.25082 ,2.46106 
350 ,63.8408 ,1.23225 ,0.25082 ,2.46106 
351 ,64.0167 ,1.23403 ,0.23029 ,2.25959 
352 ,64.1926 ,1.23580 ,0.21660 ,2.12528 
353 ,64.3849 ,1.23760 ,0.20976 ,2.05812 
354 ,64.5611 ,1.23945 ,0.19949 ,1.95738 
355 ,64.7371 ,1.24121 ,0.18580 ,1.82307 
356 ,64.9129 ,1.24297 ,0.17553 ,1.72234 
357 ,65.0893 ,1.24475 ,0.17553 ,1.72234 
358 ,65.2972 ,1.24668 ,0.14473 ,1.42013 
359 ,65.4892 ,1.24879 ,0.15158 ,1.48729 
360 ,65.6813 ,1.25055 ,0.11393 ,1.11793 
361 ,65.8896 ,1.25271 ,0.12078 ,1.18508 
362 ,66.0813 ,1.25469 ,0.10367 ,1.01719 
363 ,66.2578 ,1.25640 ,0.10709 ,1.05077 
364 ,66.4496 ,1.25825 ,0.07287 ,0.71499 
365 ,66.6259 ,1.26012 ,0.06260 ,0.61425 
366 ,66.8178 ,1.26198 ,0.07287 ,0.71499 
367 ,66.9939 ,1.26379 ,0.04891 ,0.47994 
368 ,67.1700 ,1.26557 ,0.04207 ,0.41278 
369 ,67.3458 ,1.26733 ,0.02154 ,0.21131 
370 ,67.5222 ,1.26906 ,0.01811 ,0.17773 
371 ,67.6984 ,1.27080 ,0.01127 ,0.11058 
372 ,67.8744 ,1.27264 ,0.00785 ,0.07700 
373 ,68.0505 ,1.27437 ,-0.02637 ,-0.25878 
374 ,68.2423 ,1.27628 ,-0.04006 ,-0.39310 
375 ,68.4507 ,1.27829 ,-0.04348 ,-0.42667 
376 ,68.6267 ,1.28011 ,-0.05375 ,-0.52741 
377 ,68.8027 ,1.28186 ,-0.06402 ,-0.62814 
378 ,68.9787 ,1.28360 ,-0.07086 ,-0.69530 
379 ,69.1546 ,1.28539 ,-0.06744 ,-0.66172 
380 ,69.3310 ,1.28718 ,-0.07771 ,-0.76246 
381 ,69.5230 ,1.28915 ,-0.09482 ,-0.93035 
382 ,69.6990 ,1.29081 ,-0.10851 ,-1.06466 
383 ,69.8911 ,1.29268 ,-0.10851 ,-1.06466 
384 ,70.0672 ,1.29453 ,-0.13246 ,-1.29971 
385 ,70.2430 ,1.29631 ,-0.14957 ,-1.46760 
386 ,70.4194 ,1.29807 ,-0.15984 ,-1.56834 
387 ,70.6116 ,1.29994 ,-0.15299 ,-1.50118 
388 ,70.7875 ,1.30170 ,-0.16668 ,-1.63549 
389 ,70.9798 ,1.30361 ,-0.18722 ,-1.83696 
390 ,71.1718 ,1.30546 ,-0.20433 ,-2.00485 
391 ,71.3476 ,1.30730 ,-0.20433 ,-2.00485 
392 ,71.5240 ,1.30907 ,-0.22144 ,-2.17275 
393 ,71.7001 ,1.31088 ,-0.22144 ,-2.17275 
394 ,71.8759 ,1.31257 ,-0.22486 ,-2.20632 
395 ,72.0522 ,1.31438 ,-0.22828 ,-2.23990 
396 ,72.2280 ,1.31613 ,-0.25566 ,-2.50853 
397 ,72.4042 ,1.31798 ,-0.26593 ,-2.60926 
398 ,72.5803 ,1.31958 ,-0.28304 ,-2.77716 
399 ,72.7564 ,1.32139 ,-0.28304 ,-2.77716 
400 ,72.9324 ,1.32318 ,-0.28304 ,-2.77716 
401 ,73.1084 ,1.32489 ,-0.30699 ,-3.01220 
402 ,73.2848 ,1.32668 ,-0.32068 ,-3.14652 
403 ,73.4604 ,1.32842 ,-0.32068 ,-3.14652 
404 ,73.6367 ,1.33021 ,-0.32410 ,-3.18010 
405 ,73.8129 ,1.33193 ,-0.32752 ,-3.21367 
406 ,74.0208 ,1.33400 ,-0.34806 ,-3.41514 
407 ,74.1972 ,1.33578 ,-0.34806 ,-3.41514 
408 ,74.3731 ,1.33761 ,-0.35832 ,-3.51588 
409 ,74.5490 ,1.33935 ,-0.38570 ,-3.78450 
410 ,74.7573 ,1.34126 ,-0.37886 ,-3.71735 
411 ,74.9332 ,1.34318 ,-0.38570 ,-3.78450 
412 ,75.1254 ,1.34513 ,-0.40281 ,-3.95240 
413 ,75.3173 ,1.34700 ,-0.40623 ,-3.98597 
414 ,75.4775 ,1.34871 ,-0.40281 ,-3.95240 
415 ,75.6536 ,1.35035 ,-0.42335 ,-4.15387 
416 ,75.8297 ,1.35215 ,-0.43019 ,-4.22102 
417 ,76.0056 ,1.35387 ,-0.43703 ,-4.28818 
418 ,76.1979 ,1.35570 ,-0.45072 ,-4.42249 
419 ,76.3740 ,1.35755 ,-0.46099 ,-4.52323 
420 ,76.5656 ,1.35940 ,-0.47810 ,-4.69112 
421 ,76.7421 ,1.36126 ,-0.48837 ,-4.79185 
422 ,76.9501 ,1.36321 ,-0.48494 ,-4.75828 
423 ,77.1260 ,1.36503 ,-0.49179 ,-4.82543 
424 ,77.3023 ,1.36684 ,-0.51232 ,-5.02690 
425 ,77.4784 ,1.36857 ,-0.52259 ,-5.12764 
426 ,77.6700 ,1.37051 ,-0.50206 ,-4.92617 
427 ,77.8462 ,1.37226 ,-0.52943 ,-5.19479 
428 ,78.0224 ,1.37401 ,-0.54312 ,-5.32911 
429 ,78.1988 ,1.37582 ,-0.53628 ,-5.26195 
430 ,78.3907 ,1.37775 ,-0.54997 ,-5.39626 
431 ,78.5668 ,1.37949 ,-0.56708 ,-5.56415 
432 ,78.7428 ,1.38130 ,-0.56365 ,-5.53058 
433 ,78.9189 ,1.38293 ,-0.59103 ,-5.79920 
434 ,79.0951 ,1.38475 ,-0.57734 ,-5.66489 
435 ,79.2870 ,1.38665 ,-0.60472 ,-5.93352 
436 ,79.4632 ,1.38844 ,-0.61156 ,-6.00067 
437 ,79.6553 ,1.39035 ,-0.61499 ,-6.03425 
438 ,79.8312 ,1.39213 ,-0.62183 ,-6.10141 
439 ,80.0073 ,1.39388 ,-0.61841 ,-6.06783 
440 ,80.2155 ,1.39589 ,-0.63210 ,-6.20214 
441 ,80.3915 ,1.39775 ,-0.64236 ,-6.30288 
442 ,80.6155 ,1.39982 ,-0.65605 ,-6.43719 
443 ,80.7915 ,1.40175 ,-0.66632 ,-6.53793 
444 ,80.9837 ,1.40352 ,-0.68685 ,-6.73940 
445 ,81.1599 ,1.40539 ,-0.69712 ,-6.84013 
446 ,81.3514 ,1.40728 ,-0.69712 ,-6.84013 
447 ,81.5114 ,1.40902 ,-0.70054 ,-6.87371 
448 ,81.6715 ,1.41062 ,-0.70396 ,-6.90729 
449 ,81.8479 ,1.41231 ,-0.72450 ,-7.10876 
450 ,82.0402 ,1.41422 ,-0.73476 ,-7.20949 
451 ,82.2482 ,1.41626 ,-0.72450 ,-7.10876 
452 ,82.4243 ,1.41800 ,-0.75187 ,-7.37738 
453 ,82.6006 ,1.41979 ,-0.75187 ,-7.37738 
454 ,82.7763 ,1.42161 ,-0.77583 ,-7.61243 
455 ,82.9682 ,1.42346 ,-0.77583 ,-7.61243 
456 ,83.1607 ,1.42530 ,-0.76898 ,-7.54527 
457 ,83.3527 ,1.42733 ,-0.78952 ,-7.74674 
458 ,83.5124 ,1.42905 ,-0.78952 ,-7.74674 
459 ,83.6724 ,1.43061 ,-0.79636 ,-7.81390 
460 ,83.8490 ,1.43233 ,-0.80321 ,-7.88106 
461 ,84.0407 ,1.43421 ,-0.82716 ,-8.11611 
462 ,84.2170 ,1.43595 ,-0.83743 ,-8.21684 
463 ,84.3932 ,1.43773 ,-0.82716 ,-8.11611 
