Data stamp = , 03-04-2022 08:17:07 080

Calibration Values: 
Slope = , 26.54 , g/V 
Offset Voltage at no contact = , -0.501760 , V 

No , Time , Stage Position ,   Mass , Force 
   ,  (s) ,      (mm)      ,   (g)  , (mN)  

1 ,0.0000 ,0.64940 ,4.79204 ,47.01946 
2 ,0.2274 ,0.64952 ,4.79888 ,47.08662 
3 ,0.5796 ,0.65046 ,4.78519 ,46.95231 
4 ,0.7557 ,0.65195 ,4.79204 ,47.01946 
5 ,0.9316 ,0.65348 ,4.80573 ,47.15378 
6 ,1.0917 ,0.65517 ,4.79546 ,47.05304 
7 ,1.2518 ,0.65672 ,4.80573 ,47.15378 
8 ,1.4119 ,0.65832 ,4.79204 ,47.01946 
9 ,1.5719 ,0.65997 ,4.79888 ,47.08662 
10 ,1.7320 ,0.66160 ,4.79888 ,47.08662 
11 ,1.8921 ,0.66322 ,4.76808 ,46.78442 
12 ,2.0841 ,0.66497 ,4.74070 ,46.51579 
13 ,2.2441 ,0.66670 ,4.73386 ,46.44863 
14 ,2.4043 ,0.66830 ,4.72359 ,46.34790 
15 ,2.5804 ,0.66991 ,4.70648 ,46.18001 
16 ,2.7565 ,0.67169 ,4.69964 ,46.11285 
17 ,2.9165 ,0.67343 ,4.70648 ,46.18001 
18 ,3.0765 ,0.67502 ,4.69279 ,46.04569 
19 ,3.2366 ,0.67664 ,4.67568 ,45.87780 
20 ,3.3967 ,0.67822 ,4.64831 ,45.60918 
21 ,3.5568 ,0.67985 ,4.63119 ,45.44128 
22 ,3.7329 ,0.68145 ,4.62093 ,45.34055 
23 ,3.9090 ,0.68320 ,4.61408 ,45.27339 
24 ,4.0690 ,0.68492 ,4.59013 ,45.03835 
25 ,4.2291 ,0.68657 ,4.57302 ,44.87045 
26 ,4.3891 ,0.68819 ,4.54906 ,44.63541 
27 ,4.5493 ,0.68974 ,4.55591 ,44.70256 
28 ,4.7253 ,0.69141 ,4.53195 ,44.46751 
29 ,4.9016 ,0.69311 ,4.50800 ,44.23247 
30 ,5.0934 ,0.69514 ,4.50457 ,44.19889 
31 ,5.2698 ,0.69684 ,4.48404 ,43.99742 
32 ,5.4458 ,0.69858 ,4.46009 ,43.76237 
33 ,5.6219 ,0.70034 ,4.42929 ,43.46016 
34 ,5.7981 ,0.70208 ,4.42929 ,43.46016 
35 ,5.9740 ,0.70388 ,4.42244 ,43.39301 
36 ,6.1501 ,0.70560 ,4.39164 ,43.09080 
37 ,6.3263 ,0.70740 ,4.37795 ,42.95649 
38 ,6.5182 ,0.70929 ,4.35400 ,42.72144 
39 ,6.6944 ,0.71105 ,4.35058 ,42.68786 
40 ,6.8865 ,0.71299 ,4.31978 ,42.38566 
41 ,7.0626 ,0.71477 ,4.29582 ,42.15061 
42 ,7.2383 ,0.71651 ,4.28898 ,42.08345 
43 ,7.4148 ,0.71828 ,4.28898 ,42.08345 
44 ,7.5909 ,0.72003 ,4.25818 ,41.78125 
45 ,7.7830 ,0.72199 ,4.23422 ,41.54620 
46 ,7.9751 ,0.72379 ,4.23080 ,41.51262 
47 ,8.1671 ,0.72582 ,4.19658 ,41.17684 
48 ,8.3590 ,0.72764 ,4.17947 ,41.00895 
49 ,8.5351 ,0.72945 ,4.17947 ,41.00895 
50 ,8.7111 ,0.73118 ,4.15894 ,40.80748 
51 ,8.8873 ,0.73302 ,4.14525 ,40.67317 
52 ,9.0634 ,0.73477 ,4.11103 ,40.33738 
53 ,9.2391 ,0.73653 ,4.10760 ,40.30380 
54 ,9.3991 ,0.73822 ,4.09734 ,40.20307 
55 ,9.5756 ,0.73986 ,4.08365 ,40.06876 
56 ,9.7516 ,0.74160 ,4.06996 ,39.93444 
57 ,9.9277 ,0.74338 ,4.04600 ,39.69940 
58 ,10.1040 ,0.74513 ,4.01863 ,39.43077 
59 ,10.2798 ,0.74695 ,4.00836 ,39.33003 
60 ,10.4720 ,0.74880 ,4.00494 ,39.29646 
61 ,10.6637 ,0.75074 ,3.97072 ,38.96067 
62 ,10.8401 ,0.75255 ,3.95018 ,38.75920 
63 ,11.0321 ,0.75433 ,3.95361 ,38.79278 
64 ,11.2083 ,0.75621 ,3.91938 ,38.45700 
65 ,11.4002 ,0.75805 ,3.91254 ,38.38984 
66 ,11.5765 ,0.75990 ,3.89543 ,38.22195 
67 ,11.7684 ,0.76179 ,3.86463 ,37.91975 
68 ,11.9446 ,0.76356 ,3.85094 ,37.78543 
69 ,12.1366 ,0.76548 ,3.85094 ,37.78543 
70 ,12.3127 ,0.76723 ,3.82699 ,37.55038 
71 ,12.4885 ,0.76898 ,3.80303 ,37.31534 
72 ,12.6649 ,0.77080 ,3.77908 ,37.08029 
73 ,12.8569 ,0.77264 ,3.79276 ,37.21460 
74 ,13.0330 ,0.77441 ,3.78250 ,37.11387 
75 ,13.2092 ,0.77622 ,3.73117 ,36.61019 
76 ,13.4012 ,0.77809 ,3.72090 ,36.50946 
77 ,13.5768 ,0.77989 ,3.71063 ,36.40872 
78 ,13.7533 ,0.78164 ,3.70721 ,36.37514 
79 ,13.9451 ,0.78349 ,3.68668 ,36.17367 
80 ,14.1213 ,0.78529 ,3.66614 ,35.97220 
81 ,14.2972 ,0.78704 ,3.64219 ,35.73716 
82 ,14.4736 ,0.78881 ,3.63534 ,35.67000 
83 ,14.6494 ,0.79059 ,3.62166 ,35.53569 
84 ,14.8258 ,0.79239 ,3.58401 ,35.16632 
85 ,15.0179 ,0.79430 ,3.58059 ,35.13275 
86 ,15.1939 ,0.79602 ,3.58059 ,35.13275 
87 ,15.3699 ,0.79782 ,3.53952 ,34.72981 
88 ,15.5459 ,0.79954 ,3.52584 ,34.59549 
89 ,15.7217 ,0.80138 ,3.52241 ,34.56192 
90 ,15.8983 ,0.80303 ,3.50188 ,34.36045 
91 ,16.1062 ,0.80499 ,3.47108 ,34.05824 
92 ,16.2984 ,0.80708 ,3.46081 ,33.95751 
93 ,16.4745 ,0.80884 ,3.46424 ,33.99108 
94 ,16.6664 ,0.81069 ,3.43686 ,33.72246 
95 ,16.8586 ,0.81269 ,3.41633 ,33.52099 
96 ,17.0506 ,0.81456 ,3.39237 ,33.28594 
97 ,17.2264 ,0.81635 ,3.37868 ,33.15163 
98 ,17.4187 ,0.81817 ,3.36499 ,33.01731 
99 ,17.5948 ,0.82005 ,3.35815 ,32.95016 
100 ,17.7710 ,0.82180 ,3.32735 ,32.64795 
101 ,17.9789 ,0.82384 ,3.32393 ,32.61437 
102 ,18.1872 ,0.82591 ,3.29655 ,32.34575 
103 ,18.3790 ,0.82788 ,3.28628 ,32.24501 
104 ,18.5554 ,0.82964 ,3.27602 ,32.14428 
105 ,18.7313 ,0.83143 ,3.25891 ,31.97639 
106 ,18.9071 ,0.83318 ,3.23495 ,31.74134 
107 ,19.0995 ,0.83495 ,3.21442 ,31.53987 
108 ,19.2916 ,0.83700 ,3.21784 ,31.57345 
109 ,19.4677 ,0.83877 ,3.19388 ,31.33840 
110 ,19.6598 ,0.84069 ,3.18704 ,31.27124 
111 ,19.8679 ,0.84267 ,3.15282 ,30.93546 
112 ,20.0438 ,0.84455 ,3.13913 ,30.80115 
113 ,20.2359 ,0.84642 ,3.13229 ,30.73399 
114 ,20.4281 ,0.84824 ,3.12202 ,30.63325 
115 ,20.6202 ,0.85029 ,3.10149 ,30.43178 
116 ,20.7961 ,0.85203 ,3.09122 ,30.33105 
117 ,20.9724 ,0.85381 ,3.07753 ,30.19674 
118 ,21.1645 ,0.85573 ,3.04331 ,29.86095 
119 ,21.3565 ,0.85767 ,3.03647 ,29.79380 
120 ,21.5325 ,0.85935 ,3.00909 ,29.52517 
121 ,21.7246 ,0.86127 ,3.00224 ,29.45801 
122 ,21.9006 ,0.86308 ,2.99882 ,29.42444 
123 ,22.0604 ,0.86477 ,2.97829 ,29.22297 
124 ,22.2367 ,0.86646 ,2.96802 ,29.12223 
125 ,22.4126 ,0.86821 ,2.94749 ,28.92076 
126 ,22.5889 ,0.86991 ,2.92011 ,28.65213 
127 ,22.7650 ,0.87174 ,2.90300 ,28.48424 
128 ,22.9409 ,0.87347 ,2.90985 ,28.55140 
129 ,23.1329 ,0.87535 ,2.87905 ,28.24919 
130 ,23.3093 ,0.87719 ,2.86878 ,28.14846 
131 ,23.5014 ,0.87908 ,2.86878 ,28.14846 
132 ,23.7091 ,0.88111 ,2.83798 ,27.84625 
133 ,23.8855 ,0.88291 ,2.82771 ,27.74552 
134 ,24.0616 ,0.88471 ,2.80718 ,27.54405 
135 ,24.2376 ,0.88647 ,2.79691 ,27.44332 
136 ,24.4138 ,0.88819 ,2.77638 ,27.24185 
137 ,24.5898 ,0.88998 ,2.75243 ,27.00680 
138 ,24.7658 ,0.89173 ,2.74216 ,26.90606 
139 ,24.9419 ,0.89347 ,2.73531 ,26.83891 
140 ,25.1180 ,0.89520 ,2.72505 ,26.73817 
141 ,25.2941 ,0.89697 ,2.71136 ,26.60386 
142 ,25.4862 ,0.89890 ,2.68056 ,26.30165 
143 ,25.6621 ,0.90067 ,2.66345 ,26.13376 
144 ,25.8383 ,0.90243 ,2.65660 ,26.06661 
145 ,26.0144 ,0.90418 ,2.64976 ,25.99945 
146 ,26.1905 ,0.90599 ,2.62238 ,25.73082 
147 ,26.3665 ,0.90784 ,2.61896 ,25.69724 
148 ,26.5588 ,0.90962 ,2.59501 ,25.46220 
149 ,26.7507 ,0.91157 ,2.56763 ,25.19357 
150 ,26.9268 ,0.91333 ,2.55736 ,25.09283 
151 ,27.1189 ,0.91518 ,2.55394 ,25.05926 
152 ,27.2950 ,0.91696 ,2.52998 ,24.82421 
153 ,27.4711 ,0.91878 ,2.51972 ,24.72347 
154 ,27.6632 ,0.92072 ,2.49576 ,24.48842 
155 ,27.8393 ,0.92244 ,2.50261 ,24.55558 
156 ,28.0152 ,0.92432 ,2.45812 ,24.11906 
157 ,28.2074 ,0.92609 ,2.44101 ,23.95117 
158 ,28.3831 ,0.92800 ,2.44785 ,24.01833 
159 ,28.5593 ,0.92967 ,2.43759 ,23.91759 
160 ,28.7516 ,0.93149 ,2.40679 ,23.61539 
161 ,28.9600 ,0.93358 ,2.39994 ,23.54823 
162 ,29.1518 ,0.93546 ,2.37599 ,23.31318 
163 ,29.3279 ,0.93733 ,2.35545 ,23.11171 
164 ,29.5039 ,0.93907 ,2.35203 ,23.07814 
165 ,29.6640 ,0.94078 ,2.34519 ,23.01098 
166 ,29.8401 ,0.94243 ,2.32808 ,22.84309 
167 ,30.0481 ,0.94439 ,2.31439 ,22.70877 
168 ,30.2240 ,0.94626 ,2.27674 ,22.33941 
169 ,30.4003 ,0.94805 ,2.28359 ,22.40657 
170 ,30.5923 ,0.94993 ,2.25963 ,22.17152 
171 ,30.7684 ,0.95173 ,2.24252 ,22.00363 
172 ,30.9441 ,0.95349 ,2.23568 ,21.93647 
173 ,31.1204 ,0.95524 ,2.21857 ,21.76858 
174 ,31.2967 ,0.95705 ,2.20146 ,21.60069 
175 ,31.4725 ,0.95878 ,2.18777 ,21.46638 
176 ,31.6488 ,0.96057 ,2.16039 ,21.19775 
177 ,31.8249 ,0.96225 ,2.15697 ,21.16417 
178 ,32.0169 ,0.96422 ,2.14328 ,21.02986 
179 ,32.1927 ,0.96592 ,2.11248 ,20.72766 
180 ,32.3691 ,0.96772 ,2.10906 ,20.69408 
181 ,32.5450 ,0.96951 ,2.08510 ,20.45903 
182 ,32.7212 ,0.97120 ,2.09879 ,20.59334 
183 ,32.8972 ,0.97301 ,2.07826 ,20.39187 
184 ,33.0732 ,0.97471 ,2.04746 ,20.08967 
185 ,33.2495 ,0.97655 ,2.02693 ,19.88820 
186 ,33.4253 ,0.97825 ,2.02350 ,19.85462 
187 ,33.6016 ,0.98006 ,2.01666 ,19.78746 
188 ,33.7775 ,0.98185 ,1.99955 ,19.61957 
189 ,33.9537 ,0.98353 ,1.98586 ,19.48526 
190 ,34.1458 ,0.98537 ,1.95848 ,19.21663 
191 ,34.3380 ,0.98744 ,1.96533 ,19.28379 
192 ,34.5139 ,0.98917 ,1.95164 ,19.14948 
193 ,34.7058 ,0.99108 ,1.91742 ,18.81369 
194 ,34.8821 ,0.99281 ,1.93111 ,18.94801 
195 ,35.0742 ,0.99474 ,1.89004 ,18.54507 
196 ,35.2503 ,0.99652 ,1.87635 ,18.41075 
197 ,35.4423 ,0.99844 ,1.89004 ,18.54507 
198 ,35.6184 ,1.00017 ,1.85240 ,18.17570 
199 ,35.7784 ,1.00189 ,1.83528 ,18.00781 
200 ,35.9545 ,1.00350 ,1.83871 ,18.04139 
201 ,36.1468 ,1.00551 ,1.81817 ,17.83992 
202 ,36.3228 ,1.00723 ,1.81133 ,17.77276 
203 ,36.4986 ,1.00902 ,1.79080 ,17.57129 
204 ,36.6748 ,1.01077 ,1.77026 ,17.36983 
205 ,36.8668 ,1.01262 ,1.76000 ,17.26909 
206 ,37.0592 ,1.01456 ,1.74631 ,17.13478 
207 ,37.2509 ,1.01651 ,1.71893 ,16.86615 
208 ,37.4269 ,1.01829 ,1.71551 ,16.83257 
209 ,37.6031 ,1.02004 ,1.70524 ,16.73184 
210 ,37.7794 ,1.02179 ,1.69498 ,16.63110 
211 ,37.9552 ,1.02361 ,1.67786 ,16.46321 
212 ,38.1315 ,1.02530 ,1.64364 ,16.12743 
213 ,38.3234 ,1.02724 ,1.65733 ,16.26174 
214 ,38.4997 ,1.02898 ,1.63680 ,16.06027 
215 ,38.6918 ,1.03090 ,1.60600 ,15.75807 
216 ,38.8678 ,1.03272 ,1.59231 ,15.62375 
217 ,39.0435 ,1.03450 ,1.59231 ,15.62375 
218 ,39.2197 ,1.03621 ,1.57862 ,15.48944 
219 ,39.3960 ,1.03800 ,1.55809 ,15.28797 
220 ,39.5879 ,1.03988 ,1.54098 ,15.12008 
221 ,39.7641 ,1.04167 ,1.54782 ,15.18724 
222 ,39.9561 ,1.04346 ,1.51360 ,14.85145 
223 ,40.1323 ,1.04529 ,1.50676 ,14.78430 
224 ,40.3083 ,1.04708 ,1.47938 ,14.51567 
225 ,40.4844 ,1.04881 ,1.48280 ,14.54925 
226 ,40.6765 ,1.05077 ,1.46569 ,14.38136 
227 ,40.8683 ,1.05259 ,1.44516 ,14.17989 
228 ,41.0446 ,1.05443 ,1.44516 ,14.17989 
229 ,41.2363 ,1.05633 ,1.41778 ,13.91126 
230 ,41.4128 ,1.05813 ,1.40409 ,13.77695 
231 ,41.6050 ,1.05996 ,1.40067 ,13.74337 
232 ,41.7805 ,1.06183 ,1.37671 ,13.50832 
233 ,41.9567 ,1.06349 ,1.35960 ,13.34043 
234 ,42.1331 ,1.06533 ,1.34249 ,13.17254 
235 ,42.3252 ,1.06719 ,1.34591 ,13.20612 
236 ,42.5012 ,1.06902 ,1.32538 ,13.00465 
237 ,42.6771 ,1.07075 ,1.31169 ,12.87033 
238 ,42.8532 ,1.07250 ,1.27405 ,12.50097 
239 ,43.0456 ,1.07441 ,1.29800 ,12.73602 
240 ,43.2372 ,1.07635 ,1.27405 ,12.50097 
241 ,43.4296 ,1.07818 ,1.25009 ,12.26592 
242 ,43.6214 ,1.08021 ,1.24667 ,12.23235 
243 ,43.7977 ,1.08196 ,1.21587 ,11.93014 
244 ,43.9738 ,1.08371 ,1.19876 ,11.76225 
245 ,44.1500 ,1.08553 ,1.19192 ,11.69509 
246 ,44.3418 ,1.08734 ,1.19192 ,11.69509 
247 ,44.5180 ,1.08917 ,1.16796 ,11.46004 
248 ,44.7260 ,1.09124 ,1.16112 ,11.39289 
249 ,44.9021 ,1.09296 ,1.14743 ,11.25857 
250 ,45.0782 ,1.09473 ,1.13374 ,11.12426 
251 ,45.2703 ,1.09659 ,1.10979 ,10.88921 
252 ,45.4622 ,1.09859 ,1.10979 ,10.88921 
253 ,45.6384 ,1.10037 ,1.08925 ,10.68774 
254 ,45.8305 ,1.10225 ,1.06530 ,10.45270 
255 ,46.0066 ,1.10403 ,1.06187 ,10.41912 
256 ,46.2307 ,1.10611 ,1.05161 ,10.31838 
257 ,46.4064 ,1.10806 ,1.04134 ,10.21765 
258 ,46.5832 ,1.10986 ,1.01739 ,9.98260 
259 ,46.7749 ,1.11174 ,1.00028 ,9.81471 
260 ,46.9510 ,1.11353 ,1.00028 ,9.81471 
261 ,47.1269 ,1.11521 ,0.98659 ,9.68039 
262 ,47.3030 ,1.11698 ,0.96948 ,9.51250 
263 ,47.4627 ,1.11870 ,0.95579 ,9.37819 
264 ,47.6389 ,1.12041 ,0.94210 ,9.24388 
265 ,47.8153 ,1.12222 ,0.92499 ,9.07598 
266 ,47.9915 ,1.12389 ,0.90446 ,8.87451 
267 ,48.1676 ,1.12564 ,0.90788 ,8.90809 
268 ,48.3436 ,1.12740 ,0.89419 ,8.77378 
269 ,48.5192 ,1.12915 ,0.87708 ,8.60589 
270 ,48.6957 ,1.13092 ,0.85997 ,8.43800 
271 ,48.8878 ,1.13286 ,0.85997 ,8.43800 
272 ,49.0639 ,1.13462 ,0.83943 ,8.23653 
273 ,49.2556 ,1.13650 ,0.81548 ,8.00148 
274 ,49.4319 ,1.13823 ,0.79152 ,7.76643 
275 ,49.6079 ,1.14001 ,0.79152 ,7.76643 
276 ,49.7839 ,1.14178 ,0.79495 ,7.80001 
277 ,49.9601 ,1.14354 ,0.77099 ,7.56496 
278 ,50.1363 ,1.14529 ,0.76415 ,7.49780 
279 ,50.3122 ,1.14708 ,0.74019 ,7.26276 
280 ,50.4884 ,1.14886 ,0.73335 ,7.19560 
281 ,50.6485 ,1.15055 ,0.72650 ,7.12844 
282 ,50.8245 ,1.15215 ,0.71624 ,7.02771 
283 ,51.0004 ,1.15393 ,0.72308 ,7.09486 
284 ,51.1763 ,1.15574 ,0.68886 ,6.75908 
285 ,51.3528 ,1.15746 ,0.67859 ,6.65835 
286 ,51.5289 ,1.15924 ,0.66490 ,6.52403 
287 ,51.7208 ,1.16115 ,0.65464 ,6.42330 
288 ,51.8970 ,1.16287 ,0.63068 ,6.18825 
289 ,52.0730 ,1.16469 ,0.62384 ,6.12109 
290 ,52.2490 ,1.16644 ,0.60673 ,5.95320 
291 ,52.4251 ,1.16819 ,0.60330 ,5.91962 
292 ,52.6011 ,1.16992 ,0.58962 ,5.78531 
293 ,52.7769 ,1.17169 ,0.57935 ,5.68458 
294 ,52.9370 ,1.17342 ,0.55197 ,5.41595 
295 ,53.1292 ,1.17521 ,0.56224 ,5.51668 
296 ,53.3215 ,1.17720 ,0.56224 ,5.51668 
297 ,53.4974 ,1.17896 ,0.53144 ,5.21448 
298 ,53.6736 ,1.18071 ,0.51091 ,5.01301 
299 ,53.8495 ,1.18244 ,0.49722 ,4.87870 
300 ,54.0417 ,1.18429 ,0.49380 ,4.84512 
301 ,54.2179 ,1.18614 ,0.48353 ,4.74438 
302 ,54.4098 ,1.18805 ,0.47326 ,4.64365 
303 ,54.5860 ,1.18982 ,0.47668 ,4.67723 
304 ,54.7619 ,1.19155 ,0.44931 ,4.40860 
305 ,54.9379 ,1.19332 ,0.44246 ,4.34144 
306 ,55.1301 ,1.19525 ,0.41166 ,4.03924 
307 ,55.3063 ,1.19697 ,0.41509 ,4.07282 
308 ,55.4984 ,1.19884 ,0.41509 ,4.07282 
309 ,55.6744 ,1.20072 ,0.38429 ,3.77061 
310 ,55.8503 ,1.20245 ,0.39113 ,3.83777 
311 ,56.0428 ,1.20435 ,0.37402 ,3.66988 
312 ,56.2185 ,1.20614 ,0.35691 ,3.50199 
313 ,56.4107 ,1.20793 ,0.34322 ,3.36767 
314 ,56.5867 ,1.20982 ,0.32953 ,3.23336 
315 ,56.7629 ,1.21154 ,0.32269 ,3.16620 
316 ,56.9387 ,1.21337 ,0.32953 ,3.23336 
317 ,57.1471 ,1.21527 ,0.28847 ,2.83042 
318 ,57.3549 ,1.21739 ,0.26793 ,2.62895 
319 ,57.5472 ,1.21933 ,0.26793 ,2.62895 
320 ,57.7231 ,1.22118 ,0.26793 ,2.62895 
321 ,57.9154 ,1.22299 ,0.25767 ,2.52822 
322 ,58.0912 ,1.22494 ,0.22687 ,2.22601 
323 ,58.2674 ,1.22664 ,0.22687 ,2.22601 
324 ,58.4432 ,1.22834 ,0.20976 ,2.05812 
325 ,58.6191 ,1.23009 ,0.19949 ,1.95738 
326 ,58.7952 ,1.23188 ,0.20291 ,1.99096 
327 ,58.9552 ,1.23359 ,0.17211 ,1.68876 
328 ,59.1314 ,1.23523 ,0.18238 ,1.78949 
329 ,59.3399 ,1.23729 ,0.16185 ,1.58802 
330 ,59.5159 ,1.23910 ,0.15842 ,1.55445 
331 ,59.6919 ,1.24085 ,0.14473 ,1.42013 
332 ,59.8681 ,1.24258 ,0.15158 ,1.48729 
333 ,60.0602 ,1.24450 ,0.13105 ,1.28582 
334 ,60.2363 ,1.24633 ,0.12762 ,1.25224 
335 ,60.4122 ,1.24806 ,0.09340 ,0.91646 
336 ,60.6042 ,1.24999 ,0.09682 ,0.95004 
337 ,60.8123 ,1.25198 ,0.07287 ,0.71499 
338 ,61.0045 ,1.25392 ,0.06945 ,0.68141 
339 ,61.1802 ,1.25571 ,0.06945 ,0.68141 
340 ,61.3567 ,1.25748 ,0.04891 ,0.47994 
341 ,61.5326 ,1.25923 ,0.03865 ,0.37920 
342 ,61.7088 ,1.26098 ,0.01811 ,0.17773 
343 ,61.8849 ,1.26275 ,0.02496 ,0.24489 
344 ,62.0930 ,1.26481 ,-0.00584 ,-0.05731 
345 ,62.2689 ,1.26662 ,-0.02637 ,-0.25878 
346 ,62.4447 ,1.26838 ,-0.00584 ,-0.05731 
347 ,62.6212 ,1.27011 ,-0.02295 ,-0.22520 
348 ,62.7972 ,1.27192 ,-0.02980 ,-0.29236 
349 ,62.9733 ,1.27367 ,-0.05375 ,-0.52741 
350 ,63.1654 ,1.27554 ,-0.04348 ,-0.42667 
351 ,63.3254 ,1.27724 ,-0.05033 ,-0.49383 
352 ,63.5015 ,1.27889 ,-0.06402 ,-0.62814 
353 ,63.6936 ,1.28090 ,-0.07771 ,-0.76246 
354 ,63.8696 ,1.28261 ,-0.09482 ,-0.93035 
355 ,64.0458 ,1.28441 ,-0.10166 ,-0.99751 
356 ,64.2218 ,1.28615 ,-0.10166 ,-0.99751 
357 ,64.4136 ,1.28800 ,-0.12562 ,-1.23255 
358 ,64.6060 ,1.28988 ,-0.12219 ,-1.19898 
359 ,64.7820 ,1.29170 ,-0.13588 ,-1.33329 
360 ,64.9578 ,1.29348 ,-0.13931 ,-1.36687 
361 ,65.1502 ,1.29530 ,-0.14273 ,-1.40045 
362 ,65.3423 ,1.29734 ,-0.15642 ,-1.53476 
363 ,65.5342 ,1.29918 ,-0.18379 ,-1.80338 
364 ,65.7263 ,1.30106 ,-0.19748 ,-1.93770 
365 ,65.9024 ,1.30291 ,-0.18037 ,-1.76981 
366 ,66.0786 ,1.30469 ,-0.19406 ,-1.90412 
367 ,66.2546 ,1.30644 ,-0.19748 ,-1.93770 
368 ,66.4622 ,1.30846 ,-0.22144 ,-2.17275 
369 ,66.6388 ,1.31027 ,-0.22144 ,-2.17275 
370 ,66.8470 ,1.31224 ,-0.24539 ,-2.40779 
371 ,67.0230 ,1.31415 ,-0.25908 ,-2.54211 
372 ,67.2309 ,1.31614 ,-0.27961 ,-2.74358 
373 ,67.4071 ,1.31791 ,-0.25908 ,-2.54211 
374 ,67.5831 ,1.31982 ,-0.27619 ,-2.71000 
375 ,67.7590 ,1.32148 ,-0.27277 ,-2.67642 
376 ,67.9353 ,1.32324 ,-0.29673 ,-2.91147 
377 ,68.1271 ,1.32508 ,-0.31041 ,-3.04578 
378 ,68.3034 ,1.32694 ,-0.32068 ,-3.14652 
379 ,68.4795 ,1.32866 ,-0.32068 ,-3.14652 
380 ,68.6877 ,1.33070 ,-0.33437 ,-3.28083 
381 ,68.8796 ,1.33267 ,-0.33095 ,-3.24725 
382 ,69.0557 ,1.33444 ,-0.35832 ,-3.51588 
383 ,69.2317 ,1.33616 ,-0.37201 ,-3.65019 
384 ,69.4078 ,1.33796 ,-0.37201 ,-3.65019 
385 ,69.5837 ,1.33974 ,-0.38570 ,-3.78450 
386 ,69.7755 ,1.34167 ,-0.38570 ,-3.78450 
387 ,69.9518 ,1.34340 ,-0.39255 ,-3.85166 
388 ,70.1278 ,1.34515 ,-0.40623 ,-3.98597 
389 ,70.3043 ,1.34696 ,-0.42677 ,-4.18744 
390 ,70.4802 ,1.34871 ,-0.41650 ,-4.08671 
391 ,70.6564 ,1.35047 ,-0.41308 ,-4.05313 
392 ,70.8323 ,1.35219 ,-0.42677 ,-4.18744 
393 ,71.0246 ,1.35407 ,-0.44730 ,-4.38891 
394 ,71.2166 ,1.35594 ,-0.46099 ,-4.52323 
395 ,71.4087 ,1.35798 ,-0.47810 ,-4.69112 
396 ,71.5847 ,1.35968 ,-0.48494 ,-4.75828 
397 ,71.7768 ,1.36161 ,-0.48837 ,-4.79185 
398 ,71.9529 ,1.36338 ,-0.49521 ,-4.85901 
399 ,72.1291 ,1.36518 ,-0.49863 ,-4.89259 
400 ,72.3051 ,1.36697 ,-0.51574 ,-5.06048 
401 ,72.4972 ,1.36881 ,-0.51574 ,-5.06048 
402 ,72.7213 ,1.37092 ,-0.54654 ,-5.36268 
403 ,72.8973 ,1.37283 ,-0.53285 ,-5.22837 
404 ,73.0894 ,1.37475 ,-0.55681 ,-5.46342 
405 ,73.2814 ,1.37668 ,-0.56708 ,-5.56415 
406 ,73.4574 ,1.37841 ,-0.56023 ,-5.49700 
407 ,73.6334 ,1.38022 ,-0.58419 ,-5.73205 
408 ,73.8095 ,1.38195 ,-0.59445 ,-5.83278 
409 ,73.9858 ,1.38370 ,-0.58761 ,-5.76562 
410 ,74.1778 ,1.38564 ,-0.59103 ,-5.79920 
411 ,74.3540 ,1.38736 ,-0.59445 ,-5.83278 
412 ,74.5299 ,1.38918 ,-0.61499 ,-6.03425 
413 ,74.7058 ,1.39089 ,-0.63552 ,-6.23572 
414 ,74.8819 ,1.39274 ,-0.63894 ,-6.26930 
415 ,75.0741 ,1.39460 ,-0.63552 ,-6.23572 
416 ,75.2662 ,1.39644 ,-0.64579 ,-6.33646 
417 ,75.4422 ,1.39825 ,-0.65947 ,-6.47077 
418 ,75.6183 ,1.40004 ,-0.66632 ,-6.53793 
419 ,75.7944 ,1.40179 ,-0.68001 ,-6.67224 
420 ,75.9702 ,1.40357 ,-0.69370 ,-6.80655 
421 ,76.1467 ,1.40538 ,-0.68685 ,-6.73940 
422 ,76.3388 ,1.40727 ,-0.70054 ,-6.87371 
423 ,76.5148 ,1.40899 ,-0.69712 ,-6.84013 
424 ,76.6909 ,1.41074 ,-0.71081 ,-6.97444 
425 ,76.8991 ,1.41272 ,-0.72450 ,-7.10876 
426 ,77.0910 ,1.41481 ,-0.71765 ,-7.04160 
427 ,77.2671 ,1.41653 ,-0.75530 ,-7.41096 
428 ,77.4431 ,1.41825 ,-0.75872 ,-7.44454 
429 ,77.6193 ,1.42007 ,-0.75187 ,-7.37738 
430 ,77.8274 ,1.42196 ,-0.77925 ,-7.64601 
431 ,78.0034 ,1.42390 ,-0.78952 ,-7.74674 
432 ,78.1794 ,1.42566 ,-0.78952 ,-7.74674 
433 ,78.3876 ,1.42765 ,-0.77925 ,-7.64601 
434 ,78.5793 ,1.42964 ,-0.79636 ,-7.81390 
435 ,78.7559 ,1.43139 ,-0.79978 ,-7.84748 
436 ,78.9477 ,1.43335 ,-0.82032 ,-8.04895 
437 ,79.1237 ,1.43510 ,-0.83743 ,-8.21684 
438 ,79.3159 ,1.43693 ,-0.83401 ,-8.18326 
439 ,79.5081 ,1.43880 ,-0.83743 ,-8.21684 
440 ,79.6840 ,1.44069 ,-0.84769 ,-8.31758 
441 ,79.9083 ,1.44279 ,-0.86481 ,-8.48547 
442 ,80.1002 ,1.44480 ,-0.87507 ,-8.58620 
443 ,80.2603 ,1.44654 ,-0.85796 ,-8.41831 
444 ,80.4364 ,1.44823 ,-0.87849 ,-8.61978 
445 ,80.6285 ,1.45008 ,-0.90587 ,-8.88841 
446 ,80.8046 ,1.45193 ,-0.89218 ,-8.75409 
447 ,80.9965 ,1.45384 ,-0.90245 ,-8.85483 
448 ,81.1728 ,1.45556 ,-0.90245 ,-8.85483 
449 ,81.3487 ,1.45734 ,-0.91956 ,-9.02272 
450 ,81.5408 ,1.45926 ,-0.94009 ,-9.22419 
451 ,81.7169 ,1.46101 ,-0.91956 ,-9.02272 
452 ,81.9089 ,1.46295 ,-0.95036 ,-9.32492 
453 ,82.0848 ,1.46464 ,-0.96063 ,-9.42566 
454 ,82.3088 ,1.46675 ,-0.98116 ,-9.62713 
455 ,82.5013 ,1.46872 ,-0.97774 ,-9.59355 
456 ,82.6771 ,1.47063 ,-0.97089 ,-9.52639 
457 ,82.8534 ,1.47250 ,-0.97774 ,-9.59355 
458 ,83.0294 ,1.47416 ,-0.98116 ,-9.62713 
459 ,83.2054 ,1.47586 ,-0.99485 ,-9.76144 
460 ,83.4136 ,1.47789 ,-0.99827 ,-9.79502 
461 ,83.6057 ,1.47989 ,-1.01880 ,-9.99649 
462 ,83.7816 ,1.48165 ,-1.02907 ,-10.09723 
