Data stamp = , 01-04-2022 15:55:46 724

Calibration Values: 
Slope = , 26.54 , g/V 
Offset Voltage at no contact = , -0.501760 , V 

No , Time , Stage Position ,   Mass , Force 
   ,  (s) ,      (mm)      ,   (g)  , (mN)  

1 ,0.0000 ,0.64940 ,5.15821 ,50.61234 
2 ,0.2065 ,0.64947 ,5.17532 ,50.78023 
3 ,0.4949 ,0.65019 ,5.17532 ,50.78023 
4 ,0.6708 ,0.65138 ,5.20270 ,51.04886 
5 ,0.8629 ,0.65288 ,5.17874 ,50.81381 
6 ,1.0549 ,0.65472 ,5.18216 ,50.84739 
7 ,1.2308 ,0.65640 ,5.17874 ,50.81381 
8 ,1.4232 ,0.65836 ,5.16848 ,50.71308 
9 ,1.5991 ,0.66019 ,5.15136 ,50.54519 
10 ,1.7913 ,0.66205 ,5.16848 ,50.71308 
11 ,1.9833 ,0.66400 ,5.13768 ,50.41087 
12 ,2.1595 ,0.66575 ,5.12056 ,50.24298 
13 ,2.3354 ,0.66755 ,5.11030 ,50.14225 
14 ,2.5115 ,0.66927 ,5.11030 ,50.14225 
15 ,2.6875 ,0.67104 ,5.09661 ,50.00793 
16 ,2.8801 ,0.67297 ,5.05212 ,49.57142 
17 ,3.0559 ,0.67476 ,5.04870 ,49.53784 
18 ,3.2479 ,0.67666 ,5.05212 ,49.57142 
19 ,3.4399 ,0.67855 ,5.00763 ,49.13490 
20 ,3.6157 ,0.68031 ,4.99737 ,49.03416 
21 ,3.7922 ,0.68206 ,4.99394 ,49.00058 
22 ,3.9841 ,0.68399 ,4.95288 ,48.59764 
23 ,4.1599 ,0.68581 ,4.95288 ,48.59764 
24 ,4.3363 ,0.68749 ,4.92892 ,48.36260 
25 ,4.5285 ,0.68938 ,4.90155 ,48.09397 
26 ,4.7202 ,0.69138 ,4.88444 ,47.92608 
27 ,4.8965 ,0.69310 ,4.87075 ,47.79177 
28 ,5.0885 ,0.69496 ,4.84679 ,47.55672 
29 ,5.2810 ,0.69696 ,4.82284 ,47.32167 
30 ,5.4726 ,0.69888 ,4.82968 ,47.38883 
31 ,5.6488 ,0.70066 ,4.79546 ,47.05304 
32 ,5.8250 ,0.70238 ,4.76466 ,46.75084 
33 ,6.0010 ,0.70419 ,4.74413 ,46.54937 
34 ,6.1769 ,0.70597 ,4.72017 ,46.31432 
35 ,6.3532 ,0.70769 ,4.71333 ,46.24716 
36 ,6.5289 ,0.70942 ,4.70648 ,46.18001 
37 ,6.7052 ,0.71120 ,4.67911 ,45.91138 
38 ,6.8818 ,0.71295 ,4.65857 ,45.70991 
39 ,7.0575 ,0.71474 ,4.64488 ,45.57560 
40 ,7.2656 ,0.71669 ,4.63119 ,45.44128 
41 ,7.4576 ,0.71871 ,4.59013 ,45.03835 
42 ,7.6496 ,0.72056 ,4.57644 ,44.90403 
43 ,7.8418 ,0.72245 ,4.56275 ,44.76972 
44 ,8.0498 ,0.72457 ,4.54564 ,44.60183 
45 ,8.2420 ,0.72646 ,4.55591 ,44.70256 
46 ,8.4175 ,0.72834 ,4.50800 ,44.23247 
47 ,8.5942 ,0.73009 ,4.50800 ,44.23247 
48 ,8.8022 ,0.73209 ,4.48062 ,43.96384 
49 ,9.0101 ,0.73410 ,4.46351 ,43.79595 
50 ,9.1862 ,0.73601 ,4.46009 ,43.76237 
51 ,9.3626 ,0.73774 ,4.43271 ,43.49374 
52 ,9.5544 ,0.73970 ,4.40191 ,43.19154 
53 ,9.7304 ,0.74146 ,4.39507 ,43.12438 
54 ,9.9226 ,0.74335 ,4.38138 ,42.99007 
55 ,10.0985 ,0.74509 ,4.33689 ,42.55355 
56 ,10.2748 ,0.74687 ,4.34373 ,42.62071 
57 ,10.4508 ,0.74866 ,4.31978 ,42.38566 
58 ,10.6430 ,0.75057 ,4.30267 ,42.21777 
59 ,10.8350 ,0.75245 ,4.29240 ,42.11703 
60 ,11.0270 ,0.75437 ,4.28213 ,42.01630 
61 ,11.2032 ,0.75618 ,4.27529 ,41.94914 
62 ,11.3792 ,0.75796 ,4.23080 ,41.51262 
63 ,11.5551 ,0.75966 ,4.22053 ,41.41189 
64 ,11.7313 ,0.76147 ,4.20685 ,41.27758 
65 ,11.9233 ,0.76334 ,4.18974 ,41.10968 
66 ,12.0995 ,0.76514 ,4.17262 ,40.94179 
67 ,12.2917 ,0.76708 ,4.16236 ,40.84106 
68 ,12.4676 ,0.76882 ,4.14525 ,40.67317 
69 ,12.6917 ,0.77090 ,4.11787 ,40.40454 
70 ,12.8676 ,0.77277 ,4.10418 ,40.27023 
71 ,13.0758 ,0.77476 ,4.06654 ,39.90087 
72 ,13.2515 ,0.77672 ,4.06654 ,39.90087 
73 ,13.4118 ,0.77835 ,4.04943 ,39.73297 
74 ,13.5878 ,0.77997 ,4.03916 ,39.63224 
75 ,13.7642 ,0.78175 ,4.02205 ,39.46435 
76 ,13.9400 ,0.78357 ,3.98783 ,39.12856 
77 ,14.1162 ,0.78527 ,3.98098 ,39.06141 
78 ,14.2922 ,0.78707 ,3.96729 ,38.92709 
79 ,14.4683 ,0.78879 ,3.96045 ,38.85994 
80 ,14.6603 ,0.79067 ,3.90912 ,38.35626 
81 ,14.8365 ,0.79246 ,3.90227 ,38.28911 
82 ,15.0604 ,0.79453 ,3.88174 ,38.08764 
83 ,15.2366 ,0.79650 ,3.86121 ,37.88617 
84 ,15.4286 ,0.79839 ,3.86121 ,37.88617 
85 ,15.6047 ,0.80015 ,3.85094 ,37.78543 
86 ,15.7804 ,0.80189 ,3.81672 ,37.44965 
87 ,15.9729 ,0.80378 ,3.80645 ,37.34891 
88 ,16.1488 ,0.80572 ,3.79276 ,37.21460 
89 ,16.3251 ,0.80737 ,3.77565 ,37.04671 
90 ,16.5171 ,0.80932 ,3.75854 ,36.87882 
91 ,16.7251 ,0.81130 ,3.72432 ,36.54303 
92 ,16.9172 ,0.81330 ,3.71748 ,36.47588 
93 ,17.1252 ,0.81530 ,3.71063 ,36.40872 
94 ,17.3014 ,0.81711 ,3.69694 ,36.27441 
95 ,17.4934 ,0.81900 ,3.65246 ,35.83789 
96 ,17.6852 ,0.82090 ,3.62850 ,35.60284 
97 ,17.8612 ,0.82269 ,3.63192 ,35.63642 
98 ,18.0375 ,0.82451 ,3.62508 ,35.56926 
99 ,18.2298 ,0.82641 ,3.59428 ,35.26706 
100 ,18.4056 ,0.82815 ,3.57717 ,35.09917 
101 ,18.5821 ,0.82992 ,3.57375 ,35.06559 
102 ,18.7740 ,0.83186 ,3.54637 ,34.79696 
103 ,18.9499 ,0.83359 ,3.51215 ,34.46118 
104 ,19.1258 ,0.83533 ,3.50530 ,34.39402 
105 ,19.3022 ,0.83713 ,3.50188 ,34.36045 
106 ,19.4942 ,0.83901 ,3.46766 ,34.02466 
107 ,19.6703 ,0.84083 ,3.46081 ,33.95751 
108 ,19.8464 ,0.84257 ,3.45055 ,33.85677 
109 ,20.0383 ,0.84448 ,3.43686 ,33.72246 
110 ,20.2144 ,0.84640 ,3.40606 ,33.42025 
111 ,20.3905 ,0.84798 ,3.38895 ,33.25236 
112 ,20.5826 ,0.84981 ,3.38895 ,33.25236 
113 ,20.7584 ,0.85164 ,3.35815 ,32.95016 
114 ,20.9508 ,0.85365 ,3.34446 ,32.81584 
115 ,21.1269 ,0.85534 ,3.32735 ,32.64795 
116 ,21.3029 ,0.85717 ,3.32393 ,32.61437 
117 ,21.4949 ,0.85901 ,3.29997 ,32.37933 
118 ,21.6709 ,0.86082 ,3.26917 ,32.07712 
119 ,21.8472 ,0.86261 ,3.26233 ,32.00996 
120 ,22.0391 ,0.86446 ,3.25548 ,31.94281 
121 ,22.2153 ,0.86627 ,3.23837 ,31.77492 
122 ,22.4073 ,0.86816 ,3.20757 ,31.47271 
123 ,22.5838 ,0.86987 ,3.20757 ,31.47271 
124 ,22.7594 ,0.87169 ,3.19046 ,31.30482 
125 ,22.9356 ,0.87341 ,3.18020 ,31.20409 
126 ,23.1115 ,0.87522 ,3.14255 ,30.83472 
127 ,23.3039 ,0.87713 ,3.13571 ,30.76757 
128 ,23.5119 ,0.87915 ,3.11175 ,30.53252 
129 ,23.7037 ,0.88106 ,3.11518 ,30.56610 
130 ,23.8958 ,0.88300 ,3.08095 ,30.23031 
131 ,24.0719 ,0.88479 ,3.06726 ,30.09600 
132 ,24.2321 ,0.88649 ,3.03647 ,29.79380 
133 ,24.4083 ,0.88813 ,3.03647 ,29.79380 
134 ,24.6002 ,0.89000 ,3.02278 ,29.65948 
135 ,24.7924 ,0.89202 ,2.99882 ,29.42444 
136 ,24.9683 ,0.89377 ,2.99198 ,29.35728 
137 ,25.1443 ,0.89551 ,2.98171 ,29.25654 
138 ,25.3365 ,0.89742 ,2.97144 ,29.15581 
139 ,25.5282 ,0.89931 ,2.91669 ,28.61856 
140 ,25.6886 ,0.90106 ,2.92353 ,28.68571 
141 ,25.8648 ,0.90272 ,2.90985 ,28.55140 
142 ,26.0568 ,0.90460 ,2.89958 ,28.45066 
143 ,26.2490 ,0.90654 ,2.85509 ,28.01415 
144 ,26.4408 ,0.90845 ,2.86536 ,28.11488 
145 ,26.6173 ,0.91029 ,2.85851 ,28.04772 
146 ,26.8092 ,0.91215 ,2.81745 ,27.64479 
147 ,26.9853 ,0.91395 ,2.79691 ,27.44332 
148 ,27.1612 ,0.91571 ,2.79349 ,27.40974 
149 ,27.3370 ,0.91743 ,2.78322 ,27.30900 
150 ,27.5133 ,0.91927 ,2.77638 ,27.24185 
151 ,27.7051 ,0.92107 ,2.73189 ,26.80533 
152 ,27.8976 ,0.92291 ,2.72847 ,26.77175 
153 ,28.0895 ,0.92494 ,2.72163 ,26.70459 
154 ,28.2655 ,0.92667 ,2.68398 ,26.33523 
155 ,28.4413 ,0.92848 ,2.66345 ,26.13376 
156 ,28.6176 ,0.93018 ,2.66345 ,26.13376 
157 ,28.7938 ,0.93205 ,2.63607 ,25.86514 
158 ,28.9699 ,0.93378 ,2.62581 ,25.76440 
159 ,29.1781 ,0.93577 ,2.61212 ,25.63009 
160 ,29.3540 ,0.93763 ,2.60527 ,25.56293 
161 ,29.5141 ,0.93935 ,2.58132 ,25.32788 
162 ,29.6901 ,0.94100 ,2.57789 ,25.29430 
163 ,29.8823 ,0.94279 ,2.54710 ,24.99210 
164 ,30.0586 ,0.94464 ,2.54025 ,24.92494 
165 ,30.2344 ,0.94642 ,2.52656 ,24.79063 
166 ,30.4106 ,0.94814 ,2.50261 ,24.55558 
167 ,30.5866 ,0.94999 ,2.47865 ,24.32053 
168 ,30.7625 ,0.95168 ,2.45812 ,24.11906 
169 ,30.9385 ,0.95342 ,2.44785 ,24.01833 
170 ,31.1149 ,0.95522 ,2.44443 ,23.98475 
171 ,31.3068 ,0.95712 ,2.40679 ,23.61539 
172 ,31.4830 ,0.95890 ,2.38968 ,23.44750 
173 ,31.6591 ,0.96063 ,2.39310 ,23.48108 
174 ,31.8511 ,0.96254 ,2.38625 ,23.41392 
175 ,32.0433 ,0.96438 ,2.34861 ,23.04456 
176 ,32.2353 ,0.96640 ,2.34519 ,23.01098 
177 ,32.4115 ,0.96820 ,2.33834 ,22.94382 
178 ,32.5873 ,0.96993 ,2.31097 ,22.67520 
179 ,32.7795 ,0.97187 ,2.27674 ,22.33941 
180 ,32.9718 ,0.97379 ,2.27674 ,22.33941 
181 ,33.1474 ,0.97554 ,2.26648 ,22.23868 
182 ,33.3238 ,0.97729 ,2.22541 ,21.83574 
183 ,33.5160 ,0.97922 ,2.23910 ,21.97005 
184 ,33.6915 ,0.98098 ,2.22199 ,21.80216 
185 ,33.8679 ,0.98271 ,2.18092 ,21.39922 
186 ,34.0603 ,0.98461 ,2.17066 ,21.29849 
187 ,34.2360 ,0.98642 ,2.14670 ,21.06344 
188 ,34.4444 ,0.98847 ,2.13301 ,20.92912 
189 ,34.6204 ,0.99026 ,2.11248 ,20.72766 
190 ,34.7962 ,0.99204 ,2.09879 ,20.59334 
191 ,34.9724 ,0.99376 ,2.11248 ,20.72766 
192 ,35.1485 ,0.99548 ,2.09195 ,20.52619 
193 ,35.3245 ,0.99729 ,2.06115 ,20.22398 
194 ,35.5002 ,0.99904 ,2.04061 ,20.02251 
195 ,35.6763 ,1.00077 ,2.03719 ,19.98893 
196 ,35.8523 ,1.00258 ,2.03719 ,19.98893 
197 ,36.0288 ,1.00431 ,2.00639 ,19.68673 
198 ,36.2371 ,1.00641 ,1.98244 ,19.45168 
199 ,36.4131 ,1.00819 ,1.98586 ,19.48526 
200 ,36.5890 ,1.00996 ,1.97902 ,19.41810 
201 ,36.7813 ,1.01176 ,1.93795 ,19.01516 
202 ,36.9894 ,1.01383 ,1.93453 ,18.98158 
203 ,37.1815 ,1.01590 ,1.90031 ,18.64580 
204 ,37.3574 ,1.01759 ,1.89346 ,18.57864 
205 ,37.5334 ,1.01931 ,1.89688 ,18.61222 
206 ,37.7095 ,1.02108 ,1.86951 ,18.34360 
207 ,37.9013 ,1.02303 ,1.84897 ,18.14213 
208 ,38.0780 ,1.02482 ,1.82502 ,17.90708 
209 ,38.2854 ,1.02676 ,1.83186 ,17.97423 
210 ,38.4620 ,1.02864 ,1.80106 ,17.67203 
211 ,38.6379 ,1.03043 ,1.77711 ,17.43698 
212 ,38.8141 ,1.03214 ,1.77369 ,17.40340 
213 ,38.9900 ,1.03390 ,1.76684 ,17.33625 
214 ,39.1982 ,1.03587 ,1.73946 ,17.06762 
215 ,39.3903 ,1.03795 ,1.72920 ,16.96689 
216 ,39.5826 ,1.03983 ,1.71209 ,16.79899 
217 ,39.7582 ,1.04163 ,1.68813 ,16.56395 
218 ,39.9344 ,1.04333 ,1.67444 ,16.42963 
219 ,40.1106 ,1.04508 ,1.67444 ,16.42963 
220 ,40.3023 ,1.04706 ,1.65049 ,16.19458 
221 ,40.4784 ,1.04880 ,1.64022 ,16.09385 
222 ,40.6545 ,1.05055 ,1.62995 ,15.99311 
223 ,40.8308 ,1.05236 ,1.61969 ,15.89238 
224 ,41.0067 ,1.05406 ,1.59231 ,15.62375 
225 ,41.1828 ,1.05584 ,1.59573 ,15.65733 
226 ,41.3427 ,1.05756 ,1.55467 ,15.25439 
227 ,41.5192 ,1.05924 ,1.55124 ,15.22081 
228 ,41.7112 ,1.06113 ,1.54098 ,15.12008 
229 ,41.8872 ,1.06294 ,1.54098 ,15.12008 
230 ,42.0796 ,1.06486 ,1.51360 ,14.85145 
231 ,42.2551 ,1.06655 ,1.48622 ,14.58283 
232 ,42.4315 ,1.06836 ,1.48965 ,14.61640 
233 ,42.6076 ,1.07006 ,1.47596 ,14.48209 
234 ,42.7838 ,1.07184 ,1.47253 ,14.44851 
235 ,42.9757 ,1.07374 ,1.43831 ,14.11273 
236 ,43.1518 ,1.07550 ,1.44174 ,14.14631 
237 ,43.3439 ,1.07737 ,1.42462 ,13.97842 
238 ,43.5203 ,1.07919 ,1.40409 ,13.77695 
239 ,43.7121 ,1.08110 ,1.38356 ,13.57548 
240 ,43.8881 ,1.08293 ,1.38014 ,13.54190 
241 ,44.0804 ,1.08480 ,1.36303 ,13.37401 
242 ,44.2718 ,1.08662 ,1.34591 ,13.20612 
243 ,44.4481 ,1.08850 ,1.33565 ,13.10538 
244 ,44.6403 ,1.09043 ,1.31169 ,12.87033 
245 ,44.8323 ,1.09220 ,1.29116 ,12.66886 
246 ,45.0245 ,1.09432 ,1.29458 ,12.70244 
247 ,45.2005 ,1.09602 ,1.28774 ,12.63528 
248 ,45.3766 ,1.09777 ,1.26378 ,12.40024 
249 ,45.5686 ,1.09961 ,1.24667 ,12.23235 
250 ,45.7605 ,1.10156 ,1.23298 ,12.09803 
251 ,45.9369 ,1.10334 ,1.20903 ,11.86298 
252 ,46.1289 ,1.10531 ,1.19192 ,11.69509 
253 ,46.3050 ,1.10703 ,1.19534 ,11.72867 
254 ,46.4971 ,1.10894 ,1.17481 ,11.52720 
255 ,46.6892 ,1.11088 ,1.16796 ,11.46004 
256 ,46.8653 ,1.11267 ,1.16112 ,11.39289 
257 ,47.0413 ,1.11442 ,1.14743 ,11.25857 
258 ,47.2174 ,1.11618 ,1.13716 ,11.15784 
259 ,47.3932 ,1.11792 ,1.10636 ,10.85563 
260 ,47.5695 ,1.11965 ,1.09267 ,10.72132 
261 ,47.7613 ,1.12165 ,1.10294 ,10.82206 
262 ,47.9378 ,1.12335 ,1.07214 ,10.51985 
263 ,48.1297 ,1.12526 ,1.04476 ,10.25123 
264 ,48.3055 ,1.12704 ,1.05161 ,10.31838 
265 ,48.4816 ,1.12882 ,1.04134 ,10.21765 
266 ,48.6580 ,1.13060 ,1.02423 ,10.04976 
267 ,48.8501 ,1.13245 ,1.00028 ,9.81471 
268 ,49.0261 ,1.13427 ,0.99685 ,9.78113 
269 ,49.2021 ,1.13600 ,0.99001 ,9.71397 
270 ,49.3785 ,1.13777 ,0.98659 ,9.68039 
271 ,49.5539 ,1.13950 ,0.95579 ,9.37819 
272 ,49.7304 ,1.14127 ,0.93525 ,9.17672 
273 ,49.9064 ,1.14303 ,0.94210 ,9.24388 
274 ,50.0826 ,1.14485 ,0.92157 ,9.04241 
275 ,50.2586 ,1.14657 ,0.91814 ,9.00883 
276 ,50.4346 ,1.14834 ,0.89419 ,8.77378 
277 ,50.6105 ,1.15011 ,0.87023 ,8.53873 
278 ,50.7868 ,1.15189 ,0.84970 ,8.33726 
279 ,50.9789 ,1.15374 ,0.85654 ,8.40442 
280 ,51.1550 ,1.15554 ,0.83259 ,8.16937 
281 ,51.3310 ,1.15733 ,0.82917 ,8.13579 
282 ,51.5231 ,1.15917 ,0.80521 ,7.90074 
283 ,51.6988 ,1.16097 ,0.80863 ,7.93432 
284 ,51.8752 ,1.16272 ,0.78468 ,7.69927 
285 ,52.0672 ,1.16456 ,0.76415 ,7.49780 
286 ,52.2434 ,1.16642 ,0.74361 ,7.29633 
287 ,52.4195 ,1.16816 ,0.74361 ,7.29633 
288 ,52.5956 ,1.16997 ,0.73335 ,7.19560 
289 ,52.7875 ,1.17186 ,0.70939 ,6.96055 
290 ,52.9636 ,1.17358 ,0.70255 ,6.89340 
291 ,53.1558 ,1.17542 ,0.69228 ,6.79266 
292 ,53.3479 ,1.17746 ,0.66490 ,6.52403 
293 ,53.5239 ,1.17921 ,0.65806 ,6.45688 
294 ,53.6998 ,1.18097 ,0.65806 ,6.45688 
295 ,53.8757 ,1.18273 ,0.65464 ,6.42330 
296 ,54.0682 ,1.18458 ,0.61699 ,6.05394 
297 ,54.2603 ,1.18660 ,0.61699 ,6.05394 
298 ,54.4362 ,1.18833 ,0.60673 ,5.95320 
299 ,54.6125 ,1.19009 ,0.59646 ,5.85247 
300 ,54.7883 ,1.19189 ,0.58962 ,5.78531 
301 ,54.9644 ,1.19355 ,0.55197 ,5.41595 
302 ,55.1565 ,1.19552 ,0.54513 ,5.34879 
303 ,55.3326 ,1.19729 ,0.54513 ,5.34879 
304 ,55.5088 ,1.19901 ,0.53144 ,5.21448 
305 ,55.6850 ,1.20084 ,0.49722 ,4.87870 
306 ,55.8609 ,1.20261 ,0.49722 ,4.87870 
307 ,56.0368 ,1.20438 ,0.50406 ,4.94585 
308 ,56.2290 ,1.20620 ,0.47668 ,4.67723 
309 ,56.4052 ,1.20801 ,0.45957 ,4.50934 
310 ,56.5972 ,1.20995 ,0.45615 ,4.47576 
311 ,56.7732 ,1.21172 ,0.43562 ,4.27429 
312 ,56.9493 ,1.21346 ,0.41509 ,4.07282 
313 ,57.1414 ,1.21534 ,0.41166 ,4.03924 
314 ,57.3335 ,1.21731 ,0.41509 ,4.07282 
315 ,57.5096 ,1.21909 ,0.39113 ,3.83777 
316 ,57.7017 ,1.22094 ,0.37060 ,3.63630 
317 ,57.8937 ,1.22285 ,0.37402 ,3.66988 
318 ,58.0699 ,1.22461 ,0.35349 ,3.46841 
319 ,58.2459 ,1.22640 ,0.33638 ,3.30052 
320 ,58.4219 ,1.22821 ,0.32611 ,3.19978 
321 ,58.5980 ,1.22994 ,0.33638 ,3.30052 
322 ,58.7741 ,1.23168 ,0.32269 ,3.16620 
323 ,58.9502 ,1.23346 ,0.29873 ,2.93116 
324 ,59.1098 ,1.23521 ,0.28162 ,2.76326 
325 ,59.2862 ,1.23677 ,0.26109 ,2.56179 
326 ,59.4623 ,1.23854 ,0.24398 ,2.39390 
327 ,59.6385 ,1.24037 ,0.24740 ,2.42748 
328 ,59.8142 ,1.24209 ,0.25082 ,2.46106 
329 ,59.9906 ,1.24388 ,0.23713 ,2.32675 
330 ,60.1826 ,1.24574 ,0.20976 ,2.05812 
331 ,60.3587 ,1.24751 ,0.20633 ,2.02454 
332 ,60.5667 ,1.24959 ,0.18922 ,1.85665 
333 ,60.7429 ,1.25141 ,0.17211 ,1.68876 
334 ,60.9189 ,1.25318 ,0.16869 ,1.65518 
335 ,61.0947 ,1.25490 ,0.15842 ,1.55445 
336 ,61.2710 ,1.25666 ,0.15842 ,1.55445 
337 ,61.4472 ,1.25842 ,0.13447 ,1.31940 
338 ,61.6231 ,1.26017 ,0.12078 ,1.18508 
339 ,61.7991 ,1.26195 ,0.11393 ,1.11793 
340 ,61.9916 ,1.26386 ,0.11393 ,1.11793 
341 ,62.1834 ,1.26568 ,0.09682 ,0.95004 
342 ,62.3594 ,1.26753 ,0.06945 ,0.68141 
343 ,62.5356 ,1.26931 ,0.07971 ,0.78214 
344 ,62.7116 ,1.27109 ,0.07287 ,0.71499 
345 ,62.8877 ,1.27280 ,0.05918 ,0.58067 
346 ,63.0798 ,1.27475 ,0.03180 ,0.31205 
347 ,63.2557 ,1.27650 ,0.03865 ,0.37920 
348 ,63.4480 ,1.27838 ,0.02154 ,0.21131 
349 ,63.6241 ,1.28016 ,0.00443 ,0.04342 
350 ,63.8002 ,1.28196 ,-0.00242 ,-0.02373 
351 ,63.9922 ,1.28386 ,-0.00926 ,-0.09089 
352 ,64.1843 ,1.28578 ,-0.02637 ,-0.25878 
353 ,64.3765 ,1.28768 ,-0.03664 ,-0.35952 
354 ,64.5523 ,1.28943 ,-0.04691 ,-0.46025 
355 ,64.7285 ,1.29123 ,-0.04006 ,-0.39310 
356 ,64.9206 ,1.29316 ,-0.07086 ,-0.69530 
357 ,65.0965 ,1.29483 ,-0.07428 ,-0.72888 
358 ,65.2726 ,1.29667 ,-0.07428 ,-0.72888 
359 ,65.4487 ,1.29842 ,-0.09482 ,-0.93035 
360 ,65.6246 ,1.30017 ,-0.11193 ,-1.09824 
361 ,65.8170 ,1.30212 ,-0.12562 ,-1.23255 
362 ,65.9930 ,1.30389 ,-0.12562 ,-1.23255 
363 ,66.1692 ,1.30558 ,-0.13246 ,-1.29971 
364 ,66.3611 ,1.30753 ,-0.14957 ,-1.46760 
365 ,66.5372 ,1.30925 ,-0.15642 ,-1.53476 
366 ,66.7134 ,1.31107 ,-0.15984 ,-1.56834 
367 ,66.9054 ,1.31292 ,-0.18722 ,-1.83696 
368 ,67.0974 ,1.31480 ,-0.20090 ,-1.97128 
369 ,67.2735 ,1.31665 ,-0.19406 ,-1.90412 
370 ,67.4492 ,1.31837 ,-0.19406 ,-1.90412 
371 ,67.6259 ,1.32020 ,-0.20775 ,-2.03843 
372 ,67.8338 ,1.32216 ,-0.23170 ,-2.27348 
373 ,68.0098 ,1.32409 ,-0.22144 ,-2.17275 
374 ,68.1860 ,1.32578 ,-0.22828 ,-2.23990 
375 ,68.3619 ,1.32757 ,-0.25566 ,-2.50853 
376 ,68.5536 ,1.32944 ,-0.25566 ,-2.50853 
377 ,68.7300 ,1.33120 ,-0.26935 ,-2.64284 
378 ,68.9062 ,1.33293 ,-0.27277 ,-2.67642 
379 ,69.0825 ,1.33476 ,-0.28988 ,-2.84431 
380 ,69.2583 ,1.33646 ,-0.31041 ,-3.04578 
381 ,69.4344 ,1.33826 ,-0.30357 ,-2.97863 
382 ,69.6102 ,1.33996 ,-0.31384 ,-3.07936 
383 ,69.8026 ,1.34181 ,-0.31384 ,-3.07936 
384 ,69.9786 ,1.34376 ,-0.33779 ,-3.31441 
385 ,70.1548 ,1.34544 ,-0.34806 ,-3.41514 
386 ,70.3468 ,1.34738 ,-0.34806 ,-3.41514 
387 ,70.5228 ,1.34916 ,-0.35832 ,-3.51588 
388 ,70.6985 ,1.35088 ,-0.37886 ,-3.71735 
389 ,70.8751 ,1.35264 ,-0.37886 ,-3.71735 
390 ,71.0670 ,1.35448 ,-0.37201 ,-3.65019 
391 ,71.2432 ,1.35630 ,-0.40623 ,-3.98597 
392 ,71.4192 ,1.35805 ,-0.41650 ,-4.08671 
393 ,71.5954 ,1.35986 ,-0.41308 ,-4.05313 
394 ,71.7713 ,1.36161 ,-0.43019 ,-4.22102 
395 ,71.9475 ,1.36334 ,-0.42335 ,-4.15387 
396 ,72.1395 ,1.36532 ,-0.44730 ,-4.38891 
397 ,72.3156 ,1.36707 ,-0.46783 ,-4.59038 
398 ,72.4917 ,1.36883 ,-0.44388 ,-4.35534 
399 ,72.6839 ,1.37074 ,-0.48152 ,-4.72470 
400 ,72.8759 ,1.37267 ,-0.47468 ,-4.65754 
401 ,73.0679 ,1.37459 ,-0.48837 ,-4.79185 
402 ,73.2597 ,1.37641 ,-0.51232 ,-5.02690 
403 ,73.4357 ,1.37822 ,-0.50548 ,-4.95975 
404 ,73.5957 ,1.37994 ,-0.51232 ,-5.02690 
405 ,73.7720 ,1.38163 ,-0.53970 ,-5.29553 
406 ,73.9481 ,1.38341 ,-0.53285 ,-5.22837 
407 ,74.1404 ,1.38528 ,-0.54997 ,-5.39626 
408 ,74.3164 ,1.38705 ,-0.56365 ,-5.53058 
409 ,74.4925 ,1.38880 ,-0.56708 ,-5.56415 
410 ,74.6848 ,1.39065 ,-0.55681 ,-5.46342 
411 ,74.8606 ,1.39249 ,-0.58419 ,-5.73205 
412 ,75.0368 ,1.39428 ,-0.60130 ,-5.89994 
413 ,75.2449 ,1.39624 ,-0.58761 ,-5.76562 
414 ,75.4369 ,1.39818 ,-0.60472 ,-5.93352 
415 ,75.6289 ,1.40023 ,-0.61156 ,-6.00067 
416 ,75.8050 ,1.40191 ,-0.61499 ,-6.03425 
417 ,75.9811 ,1.40379 ,-0.63894 ,-6.26930 
418 ,76.1571 ,1.40545 ,-0.64579 ,-6.33646 
419 ,76.3331 ,1.40718 ,-0.64579 ,-6.33646 
420 ,76.5096 ,1.40902 ,-0.64236 ,-6.30288 
421 ,76.7011 ,1.41091 ,-0.66290 ,-6.50435 
422 ,76.8781 ,1.41265 ,-0.69370 ,-6.80655 
423 ,77.0535 ,1.41441 ,-0.68685 ,-6.73940 
424 ,77.2296 ,1.41618 ,-0.68685 ,-6.73940 
425 ,77.4057 ,1.41791 ,-0.69370 ,-6.80655 
426 ,77.6136 ,1.41997 ,-0.70739 ,-6.94086 
427 ,77.7898 ,1.42177 ,-0.72107 ,-7.07518 
428 ,77.9659 ,1.42354 ,-0.70739 ,-6.94086 
429 ,78.1580 ,1.42540 ,-0.73476 ,-7.20949 
430 ,78.3500 ,1.42738 ,-0.74161 ,-7.27665 
431 ,78.5260 ,1.42912 ,-0.74503 ,-7.31023 
432 ,78.7021 ,1.43090 ,-0.74503 ,-7.31023 
433 ,78.8786 ,1.43265 ,-0.75530 ,-7.41096 
434 ,79.0544 ,1.43441 ,-0.76898 ,-7.54527 
435 ,79.2623 ,1.43645 ,-0.76898 ,-7.54527 
436 ,79.4383 ,1.43823 ,-0.77583 ,-7.61243 
437 ,79.6305 ,1.44015 ,-0.79294 ,-7.78032 
438 ,79.8067 ,1.44195 ,-0.78267 ,-7.67959 
439 ,79.9831 ,1.44375 ,-0.78952 ,-7.74674 
440 ,80.1585 ,1.44543 ,-0.80663 ,-7.91464 
441 ,80.3347 ,1.44724 ,-0.81347 ,-7.98179 
442 ,80.5109 ,1.44909 ,-0.81689 ,-8.01537 
443 ,80.6870 ,1.45073 ,-0.81005 ,-7.94821 
444 ,80.8634 ,1.45248 ,-0.82032 ,-8.04895 
445 ,81.0552 ,1.45439 ,-0.84427 ,-8.28400 
446 ,81.2310 ,1.45620 ,-0.84769 ,-8.31758 
447 ,81.4074 ,1.45795 ,-0.85112 ,-8.35115 
448 ,81.5993 ,1.45983 ,-0.86823 ,-8.51904 
449 ,81.7756 ,1.46159 ,-0.86823 ,-8.51904 
450 ,81.9515 ,1.46337 ,-0.88876 ,-8.72051 
451 ,82.1276 ,1.46509 ,-0.86481 ,-8.48547 
452 ,82.3032 ,1.46694 ,-0.90245 ,-8.85483 
453 ,82.4799 ,1.46865 ,-0.89903 ,-8.82125 
454 ,82.6554 ,1.47040 ,-0.91614 ,-8.98914 
455 ,82.8318 ,1.47215 ,-0.91956 ,-9.02272 
456 ,83.0238 ,1.47394 ,-0.91272 ,-8.95556 
457 ,83.2320 ,1.47614 ,-0.93667 ,-9.19061 
458 ,83.4079 ,1.47796 ,-0.92298 ,-9.05630 
459 ,83.6007 ,1.47983 ,-0.94694 ,-9.29135 
460 ,83.7761 ,1.48165 ,-0.96747 ,-9.49282 
461 ,83.9523 ,1.48347 ,-0.95036 ,-9.32492 
462 ,84.1282 ,1.48510 ,-0.97774 ,-9.59355 
