Data stamp = , 04-04-2022 05:48:00 532

Calibration Values: 
Slope = , 26.54 , g/V 
Offset Voltage at no contact = , -0.501760 , V 

No , Time , Stage Position ,   Mass , Force 
   ,  (s) ,      (mm)      ,   (g)  , (mN)  

1 ,0.0000 ,0.59943 ,5.15136 ,50.54519 
2 ,0.2096 ,0.59949 ,5.13768 ,50.41087 
3 ,0.5613 ,0.60047 ,5.14794 ,50.51161 
4 ,0.7532 ,0.60190 ,5.16163 ,50.64592 
5 ,0.9293 ,0.60350 ,5.14452 ,50.47803 
6 ,1.1217 ,0.60537 ,5.15479 ,50.57876 
7 ,1.3136 ,0.60719 ,5.14110 ,50.44445 
8 ,1.4897 ,0.60897 ,5.13083 ,50.34372 
9 ,1.6656 ,0.61076 ,5.13425 ,50.37729 
10 ,1.8417 ,0.61258 ,5.12399 ,50.27656 
11 ,2.0339 ,0.61452 ,5.10003 ,50.04151 
12 ,2.2258 ,0.61641 ,5.09661 ,50.00793 
13 ,2.4024 ,0.61824 ,5.06923 ,49.73931 
14 ,2.5943 ,0.62004 ,5.03501 ,49.40352 
15 ,2.7702 ,0.62190 ,5.01790 ,49.23563 
16 ,2.9460 ,0.62356 ,5.03159 ,49.36995 
17 ,3.1225 ,0.62538 ,5.01106 ,49.16848 
18 ,3.3147 ,0.62729 ,4.97683 ,48.83269 
19 ,3.5227 ,0.62934 ,4.97341 ,48.79911 
20 ,3.7149 ,0.63128 ,4.94261 ,48.49691 
21 ,3.9068 ,0.63329 ,4.92550 ,48.32902 
22 ,4.0829 ,0.63496 ,4.91523 ,48.22828 
23 ,4.2589 ,0.63675 ,4.89470 ,48.02681 
24 ,4.4350 ,0.63847 ,4.87759 ,47.85892 
25 ,4.6113 ,0.64029 ,4.86048 ,47.69103 
26 ,4.8031 ,0.64213 ,4.85706 ,47.65745 
27 ,4.9792 ,0.64393 ,4.82968 ,47.38883 
28 ,5.1554 ,0.64568 ,4.80573 ,47.15378 
29 ,5.3474 ,0.64755 ,4.79546 ,47.05304 
30 ,5.5234 ,0.64938 ,4.80230 ,47.12020 
31 ,5.6996 ,0.65118 ,4.76124 ,46.71726 
32 ,5.9077 ,0.65322 ,4.74413 ,46.54937 
33 ,6.0833 ,0.65508 ,4.71675 ,46.28074 
34 ,6.2597 ,0.65677 ,4.72017 ,46.31432 
35 ,6.4519 ,0.65855 ,4.68595 ,45.97854 
36 ,6.6440 ,0.66059 ,4.68595 ,45.97854 
37 ,6.8199 ,0.66233 ,4.66884 ,45.81065 
38 ,6.9961 ,0.66409 ,4.63804 ,45.50844 
39 ,7.1718 ,0.66588 ,4.62093 ,45.34055 
40 ,7.3481 ,0.66760 ,4.61751 ,45.30697 
41 ,7.5403 ,0.66957 ,4.58671 ,45.00477 
42 ,7.7163 ,0.67134 ,4.56617 ,44.80330 
43 ,7.8922 ,0.67303 ,4.55591 ,44.70256 
44 ,8.0844 ,0.67498 ,4.55249 ,44.66898 
45 ,8.2445 ,0.67668 ,4.54222 ,44.56825 
46 ,8.4206 ,0.67832 ,4.52169 ,44.36678 
47 ,8.5967 ,0.68011 ,4.49773 ,44.13173 
48 ,8.7724 ,0.68189 ,4.48062 ,43.96384 
49 ,8.9489 ,0.68359 ,4.47035 ,43.86310 
50 ,9.1249 ,0.68542 ,4.45666 ,43.72879 
51 ,9.2845 ,0.68711 ,4.43271 ,43.49374 
52 ,9.4611 ,0.68874 ,4.42244 ,43.39301 
53 ,9.6531 ,0.69062 ,4.39849 ,43.15796 
54 ,9.8289 ,0.69246 ,4.39164 ,43.09080 
55 ,10.0209 ,0.69428 ,4.36769 ,42.85576 
56 ,10.1973 ,0.69607 ,4.34373 ,42.62071 
57 ,10.3894 ,0.69799 ,4.34716 ,42.65429 
58 ,10.5653 ,0.69980 ,4.33689 ,42.55355 
59 ,10.7416 ,0.70154 ,4.31978 ,42.38566 
60 ,10.9176 ,0.70336 ,4.28556 ,42.04988 
61 ,11.0937 ,0.70509 ,4.26845 ,41.88198 
62 ,11.2858 ,0.70697 ,4.28213 ,42.01630 
63 ,11.4617 ,0.70872 ,4.24107 ,41.61336 
64 ,11.6700 ,0.71069 ,4.22053 ,41.41189 
65 ,11.8459 ,0.71257 ,4.21369 ,41.34473 
66 ,12.0380 ,0.71448 ,4.17947 ,41.00895 
67 ,12.2142 ,0.71627 ,4.16578 ,40.87464 
68 ,12.4379 ,0.71840 ,4.14525 ,40.67317 
69 ,12.6144 ,0.72028 ,4.13498 ,40.57243 
70 ,12.8223 ,0.72229 ,4.10418 ,40.27023 
71 ,12.9823 ,0.72407 ,4.09049 ,40.13591 
72 ,13.1582 ,0.72569 ,4.06996 ,39.93444 
73 ,13.3346 ,0.72745 ,4.06654 ,39.90087 
74 ,13.5263 ,0.72933 ,4.06312 ,39.86729 
75 ,13.7188 ,0.73123 ,4.01520 ,39.39719 
76 ,13.9107 ,0.73319 ,4.03232 ,39.56508 
77 ,14.0869 ,0.73497 ,4.00152 ,39.26288 
78 ,14.2789 ,0.73688 ,3.97414 ,38.99425 
79 ,14.4546 ,0.73866 ,3.97414 ,38.99425 
80 ,14.6147 ,0.74038 ,3.95703 ,38.82636 
81 ,14.7910 ,0.74201 ,3.94676 ,38.72562 
82 ,14.9832 ,0.74391 ,3.91938 ,38.45700 
83 ,15.1592 ,0.74571 ,3.90227 ,38.28911 
84 ,15.3354 ,0.74748 ,3.88858 ,38.15479 
85 ,15.5114 ,0.74923 ,3.87832 ,38.05406 
86 ,15.6870 ,0.75096 ,3.85436 ,37.81901 
87 ,15.8636 ,0.75277 ,3.83725 ,37.65112 
88 ,16.0556 ,0.75474 ,3.80645 ,37.34891 
89 ,16.2478 ,0.75660 ,3.81330 ,37.41607 
90 ,16.4238 ,0.75838 ,3.78592 ,37.14744 
91 ,16.5998 ,0.76013 ,3.77908 ,37.08029 
92 ,16.7756 ,0.76185 ,3.75512 ,36.84524 
93 ,16.9519 ,0.76358 ,3.75170 ,36.81166 
94 ,17.1280 ,0.76536 ,3.74143 ,36.71093 
95 ,17.3040 ,0.76711 ,3.72090 ,36.50946 
96 ,17.4803 ,0.76892 ,3.69010 ,36.20725 
97 ,17.6563 ,0.77068 ,3.68325 ,36.14010 
98 ,17.8163 ,0.77237 ,3.67299 ,36.03936 
99 ,17.9923 ,0.77401 ,3.65930 ,35.90505 
100 ,18.2165 ,0.77613 ,3.63192 ,35.63642 
101 ,18.3926 ,0.77801 ,3.64561 ,35.77073 
102 ,18.5846 ,0.77997 ,3.61481 ,35.46853 
103 ,18.7608 ,0.78170 ,3.57717 ,35.09917 
104 ,18.9368 ,0.78348 ,3.57375 ,35.06559 
105 ,19.1130 ,0.78523 ,3.57032 ,35.03201 
106 ,19.3049 ,0.78715 ,3.54979 ,34.83054 
107 ,19.4808 ,0.78887 ,3.51557 ,34.49476 
108 ,19.6570 ,0.79068 ,3.52241 ,34.56192 
109 ,19.8331 ,0.79243 ,3.50872 ,34.42760 
110 ,20.0095 ,0.79419 ,3.50872 ,34.42760 
111 ,20.2014 ,0.79613 ,3.45739 ,33.92393 
112 ,20.3772 ,0.79785 ,3.45739 ,33.92393 
113 ,20.5536 ,0.79964 ,3.45397 ,33.89035 
114 ,20.7456 ,0.80151 ,3.43344 ,33.68888 
115 ,20.9215 ,0.80333 ,3.43001 ,33.65530 
116 ,21.1138 ,0.80518 ,3.41975 ,33.55457 
117 ,21.2898 ,0.80696 ,3.38553 ,33.21878 
118 ,21.4658 ,0.80875 ,3.36499 ,33.01731 
119 ,21.6420 ,0.81056 ,3.34788 ,32.84942 
120 ,21.8340 ,0.81237 ,3.34446 ,32.81584 
121 ,21.9937 ,0.81413 ,3.32735 ,32.64795 
122 ,22.1700 ,0.81578 ,3.30339 ,32.41290 
123 ,22.3463 ,0.81754 ,3.29313 ,32.31217 
124 ,22.5382 ,0.81941 ,3.27602 ,32.14428 
125 ,22.7144 ,0.82123 ,3.27259 ,32.11070 
126 ,22.8902 ,0.82295 ,3.26917 ,32.07712 
127 ,23.0662 ,0.82471 ,3.22468 ,31.64060 
128 ,23.2425 ,0.82652 ,3.21442 ,31.53987 
129 ,23.4187 ,0.82830 ,3.20757 ,31.47271 
130 ,23.5948 ,0.83001 ,3.19046 ,31.30482 
131 ,23.7869 ,0.83184 ,3.17335 ,31.13693 
132 ,24.0110 ,0.83396 ,3.16651 ,31.06977 
133 ,24.2030 ,0.83604 ,3.12886 ,30.70041 
134 ,24.3787 ,0.83788 ,3.10491 ,30.46536 
135 ,24.5552 ,0.83965 ,3.11518 ,30.56610 
136 ,24.7313 ,0.84139 ,3.10491 ,30.46536 
137 ,24.9233 ,0.84330 ,3.07411 ,30.16316 
138 ,25.0994 ,0.84509 ,3.06384 ,30.06242 
139 ,25.2752 ,0.84683 ,3.05358 ,29.96169 
140 ,25.4516 ,0.84860 ,3.05015 ,29.92811 
141 ,25.6274 ,0.85035 ,3.03304 ,29.76022 
142 ,25.8037 ,0.85215 ,2.99198 ,29.35728 
143 ,25.9956 ,0.85395 ,2.99540 ,29.39086 
144 ,26.1718 ,0.85580 ,2.98855 ,29.32370 
145 ,26.3639 ,0.85768 ,2.95433 ,28.98792 
146 ,26.5719 ,0.85974 ,2.94407 ,28.88718 
147 ,26.7481 ,0.86153 ,2.92696 ,28.71929 
148 ,26.9241 ,0.86330 ,2.90642 ,28.51782 
149 ,27.1001 ,0.86513 ,2.89273 ,28.38351 
150 ,27.2920 ,0.86695 ,2.89273 ,28.38351 
151 ,27.4683 ,0.86876 ,2.87905 ,28.24919 
152 ,27.6604 ,0.87063 ,2.82771 ,27.74552 
153 ,27.8359 ,0.87251 ,2.82429 ,27.71194 
154 ,28.0127 ,0.87418 ,2.83114 ,27.77910 
155 ,28.2046 ,0.87612 ,2.80034 ,27.47689 
156 ,28.3965 ,0.87799 ,2.79691 ,27.44332 
157 ,28.5888 ,0.87982 ,2.77980 ,27.27542 
158 ,28.7808 ,0.88179 ,2.74900 ,26.97322 
159 ,28.9889 ,0.88386 ,2.74558 ,26.93964 
160 ,29.1809 ,0.88579 ,2.71136 ,26.60386 
161 ,29.3570 ,0.88764 ,2.71136 ,26.60386 
162 ,29.5331 ,0.88937 ,2.69767 ,26.46954 
163 ,29.7252 ,0.89127 ,2.66345 ,26.13376 
164 ,29.9172 ,0.89326 ,2.67372 ,26.23450 
165 ,30.1092 ,0.89506 ,2.65660 ,26.06661 
166 ,30.2850 ,0.89688 ,2.62238 ,25.73082 
167 ,30.4612 ,0.89863 ,2.60185 ,25.52935 
168 ,30.6374 ,0.90041 ,2.59501 ,25.46220 
169 ,30.8137 ,0.90221 ,2.58474 ,25.36146 
170 ,30.9897 ,0.90398 ,2.58474 ,25.36146 
171 ,31.1818 ,0.90581 ,2.56078 ,25.12641 
172 ,31.3577 ,0.90766 ,2.53683 ,24.89136 
173 ,31.5336 ,0.90941 ,2.54367 ,24.95852 
174 ,31.7101 ,0.91119 ,2.52314 ,24.75705 
175 ,31.9021 ,0.91300 ,2.51287 ,24.65632 
176 ,32.0942 ,0.91501 ,2.49234 ,24.45485 
177 ,32.2702 ,0.91674 ,2.47181 ,24.25338 
178 ,32.4463 ,0.91858 ,2.44785 ,24.01833 
179 ,32.6220 ,0.92026 ,2.43074 ,23.85044 
180 ,32.7984 ,0.92208 ,2.42390 ,23.78328 
181 ,32.9901 ,0.92384 ,2.41363 ,23.68255 
182 ,33.1664 ,0.92566 ,2.39652 ,23.51465 
183 ,33.3745 ,0.92776 ,2.38968 ,23.44750 
184 ,33.5665 ,0.92967 ,2.36572 ,23.21245 
185 ,33.7426 ,0.93144 ,2.34177 ,22.97740 
186 ,33.9189 ,0.93323 ,2.33150 ,22.87667 
187 ,34.0949 ,0.93504 ,2.33492 ,22.91024 
188 ,34.2710 ,0.93676 ,2.30754 ,22.64162 
189 ,34.4470 ,0.93848 ,2.29728 ,22.54088 
190 ,34.6231 ,0.94027 ,2.28359 ,22.40657 
191 ,34.7832 ,0.94195 ,2.27332 ,22.30584 
192 ,34.9593 ,0.94358 ,2.24594 ,22.03721 
193 ,35.1514 ,0.94547 ,2.24937 ,22.07079 
194 ,35.3435 ,0.94743 ,2.22883 ,21.86932 
195 ,35.5195 ,0.94926 ,2.21172 ,21.70143 
196 ,35.6954 ,0.95106 ,2.20146 ,21.60069 
197 ,35.8716 ,0.95278 ,2.19119 ,21.49996 
198 ,36.0476 ,0.95452 ,2.16381 ,21.23133 
199 ,36.2239 ,0.95627 ,2.14670 ,21.06344 
200 ,36.4161 ,0.95827 ,2.13301 ,20.92912 
201 ,36.5919 ,0.95995 ,2.13644 ,20.96270 
202 ,36.7681 ,0.96170 ,2.10221 ,20.62692 
203 ,36.9436 ,0.96346 ,2.08510 ,20.45903 
204 ,37.1363 ,0.96538 ,2.09879 ,20.59334 
205 ,37.3124 ,0.96718 ,2.07826 ,20.39187 
206 ,37.5043 ,0.96909 ,2.05430 ,20.15682 
207 ,37.6805 ,0.97083 ,2.03377 ,19.95535 
208 ,37.8726 ,0.97274 ,2.02350 ,19.85462 
209 ,38.0646 ,0.97462 ,1.99955 ,19.61957 
210 ,38.2566 ,0.97664 ,2.00639 ,19.68673 
211 ,38.4322 ,0.97834 ,1.98928 ,19.51884 
212 ,38.6084 ,0.98015 ,1.96533 ,19.28379 
213 ,38.7846 ,0.98187 ,1.93795 ,19.01516 
214 ,38.9605 ,0.98362 ,1.94137 ,19.04874 
215 ,39.1369 ,0.98540 ,1.93111 ,18.94801 
216 ,39.3132 ,0.98719 ,1.90715 ,18.71296 
217 ,39.5209 ,0.98911 ,1.90715 ,18.71296 
218 ,39.6972 ,0.99098 ,1.88319 ,18.47791 
219 ,39.8891 ,0.99289 ,1.86608 ,18.31002 
220 ,40.0653 ,0.99465 ,1.84213 ,18.07497 
221 ,40.2415 ,0.99637 ,1.83871 ,18.04139 
222 ,40.4334 ,0.99828 ,1.81817 ,17.83992 
223 ,40.6094 ,1.00009 ,1.81475 ,17.80634 
224 ,40.7856 ,1.00188 ,1.80106 ,17.67203 
225 ,40.9617 ,1.00363 ,1.78737 ,17.53772 
226 ,41.1377 ,1.00542 ,1.78053 ,17.47056 
227 ,41.3138 ,1.00717 ,1.76000 ,17.26909 
228 ,41.4895 ,1.00892 ,1.74973 ,17.16836 
229 ,41.6660 ,1.01067 ,1.73262 ,17.00046 
230 ,41.8579 ,1.01245 ,1.72235 ,16.89973 
231 ,42.0340 ,1.01442 ,1.70524 ,16.73184 
232 ,42.2101 ,1.01622 ,1.67444 ,16.42963 
233 ,42.3863 ,1.01786 ,1.66760 ,16.36248 
234 ,42.5625 ,1.01960 ,1.66418 ,16.32890 
235 ,42.7385 ,1.02137 ,1.66418 ,16.32890 
236 ,42.9145 ,1.02316 ,1.65049 ,16.19458 
237 ,43.0906 ,1.02488 ,1.62311 ,15.92596 
238 ,43.2825 ,1.02683 ,1.60942 ,15.79164 
239 ,43.4744 ,1.02880 ,1.60258 ,15.72449 
240 ,43.6508 ,1.03051 ,1.57862 ,15.48944 
241 ,43.8428 ,1.03245 ,1.56836 ,15.38871 
242 ,44.0190 ,1.03415 ,1.56836 ,15.38871 
243 ,44.1949 ,1.03594 ,1.53756 ,15.08650 
244 ,44.3711 ,1.03772 ,1.51702 ,14.88503 
245 ,44.5630 ,1.03966 ,1.51702 ,14.88503 
246 ,44.7553 ,1.04154 ,1.49307 ,14.64998 
247 ,44.9470 ,1.04351 ,1.47596 ,14.48209 
248 ,45.1394 ,1.04537 ,1.46569 ,14.38136 
249 ,45.3473 ,1.04747 ,1.46911 ,14.41493 
250 ,45.5235 ,1.04924 ,1.43489 ,14.07915 
251 ,45.6995 ,1.05097 ,1.43147 ,14.04557 
252 ,45.8757 ,1.05275 ,1.41094 ,13.84410 
253 ,46.0675 ,1.05466 ,1.39725 ,13.70979 
254 ,46.2599 ,1.05657 ,1.39040 ,13.64263 
255 ,46.4359 ,1.05836 ,1.38356 ,13.57548 
256 ,46.6120 ,1.06012 ,1.34934 ,13.23969 
257 ,46.7881 ,1.06184 ,1.33223 ,13.07180 
258 ,46.9641 ,1.06359 ,1.33907 ,13.13896 
259 ,47.1403 ,1.06539 ,1.32880 ,13.03822 
260 ,47.3323 ,1.06734 ,1.28774 ,12.63528 
261 ,47.5083 ,1.06906 ,1.28432 ,12.60171 
262 ,47.6844 ,1.07087 ,1.29800 ,12.73602 
263 ,47.8606 ,1.07260 ,1.27747 ,12.53455 
264 ,48.0362 ,1.07435 ,1.27063 ,12.46739 
265 ,48.2126 ,1.07608 ,1.23298 ,12.09803 
266 ,48.4046 ,1.07805 ,1.23298 ,12.09803 
267 ,48.5968 ,1.07993 ,1.21587 ,11.93014 
268 ,48.7887 ,1.08184 ,1.19876 ,11.76225 
269 ,48.9647 ,1.08369 ,1.19192 ,11.69509 
270 ,49.1569 ,1.08557 ,1.17138 ,11.49362 
271 ,49.3491 ,1.08750 ,1.15085 ,11.29215 
272 ,49.5249 ,1.08926 ,1.14058 ,11.19142 
273 ,49.7173 ,1.09114 ,1.12347 ,11.02353 
274 ,49.9249 ,1.09318 ,1.09267 ,10.72132 
275 ,50.1175 ,1.09503 ,1.10294 ,10.82206 
276 ,50.3094 ,1.09710 ,1.07899 ,10.58701 
277 ,50.4855 ,1.09881 ,1.08241 ,10.62059 
278 ,50.6612 ,1.10057 ,1.07214 ,10.51985 
279 ,50.8377 ,1.10235 ,1.04134 ,10.21765 
280 ,51.0456 ,1.10430 ,1.03108 ,10.11691 
281 ,51.2377 ,1.10633 ,1.02765 ,10.08333 
282 ,51.4142 ,1.10811 ,1.00712 ,9.88186 
283 ,51.6060 ,1.11005 ,0.99001 ,9.71397 
284 ,51.7820 ,1.11174 ,0.99343 ,9.74755 
285 ,51.9581 ,1.11349 ,0.98317 ,9.64682 
286 ,52.1343 ,1.11532 ,0.96263 ,9.44535 
287 ,52.3264 ,1.11726 ,0.94894 ,9.31103 
288 ,52.5026 ,1.11907 ,0.93183 ,9.14314 
289 ,52.6945 ,1.12086 ,0.90788 ,8.90809 
290 ,52.8866 ,1.12283 ,0.91472 ,8.97525 
291 ,53.0947 ,1.12481 ,0.89077 ,8.74020 
292 ,53.2866 ,1.12679 ,0.88734 ,8.70662 
293 ,53.4788 ,1.12876 ,0.86681 ,8.50515 
294 ,53.6868 ,1.13070 ,0.83943 ,8.23653 
295 ,53.8627 ,1.13255 ,0.84970 ,8.33726 
296 ,54.0391 ,1.13434 ,0.83259 ,8.16937 
297 ,54.2150 ,1.13612 ,0.80863 ,7.93432 
298 ,54.4232 ,1.13812 ,0.79837 ,7.83359 
299 ,54.6152 ,1.14010 ,0.77441 ,7.59854 
300 ,54.7912 ,1.14189 ,0.76415 ,7.49780 
301 ,54.9511 ,1.14355 ,0.75730 ,7.43065 
302 ,55.1274 ,1.14522 ,0.75730 ,7.43065 
303 ,55.3035 ,1.14701 ,0.74361 ,7.29633 
304 ,55.4956 ,1.14892 ,0.71624 ,7.02771 
305 ,55.7036 ,1.15087 ,0.71281 ,6.99413 
306 ,55.8797 ,1.15271 ,0.70597 ,6.92697 
307 ,56.0718 ,1.15463 ,0.68544 ,6.72550 
308 ,56.2799 ,1.15676 ,0.67175 ,6.59119 
309 ,56.4559 ,1.15855 ,0.64437 ,6.32256 
310 ,56.6321 ,1.16026 ,0.64095 ,6.28899 
311 ,56.8240 ,1.16209 ,0.65121 ,6.38972 
312 ,56.9999 ,1.16390 ,0.61699 ,6.05394 
313 ,57.1760 ,1.16569 ,0.60673 ,5.95320 
314 ,57.3520 ,1.16747 ,0.59304 ,5.81889 
315 ,57.5282 ,1.16925 ,0.58962 ,5.78531 
316 ,57.7041 ,1.17097 ,0.58277 ,5.71815 
317 ,57.8965 ,1.17288 ,0.55197 ,5.41595 
318 ,58.1047 ,1.17495 ,0.56224 ,5.51668 
319 ,58.2809 ,1.17677 ,0.54513 ,5.34879 
320 ,58.4565 ,1.17849 ,0.51433 ,5.04659 
321 ,58.6330 ,1.18026 ,0.51775 ,5.08017 
322 ,58.8247 ,1.18214 ,0.51091 ,5.01301 
323 ,59.0011 ,1.18393 ,0.49380 ,4.84512 
324 ,59.1771 ,1.18569 ,0.48011 ,4.71081 
325 ,59.3689 ,1.18757 ,0.47326 ,4.64365 
326 ,59.5450 ,1.18935 ,0.46300 ,4.54291 
327 ,59.7054 ,1.19113 ,0.45615 ,4.47576 
328 ,59.8815 ,1.19279 ,0.44588 ,4.37502 
329 ,60.0575 ,1.19451 ,0.43220 ,4.24071 
330 ,60.2335 ,1.19626 ,0.40482 ,3.97208 
331 ,60.4097 ,1.19801 ,0.39455 ,3.87135 
332 ,60.5858 ,1.19980 ,0.39797 ,3.90493 
333 ,60.7778 ,1.20165 ,0.36375 ,3.56914 
334 ,60.9539 ,1.20349 ,0.36033 ,3.53557 
335 ,61.1298 ,1.20527 ,0.35006 ,3.43483 
336 ,61.3217 ,1.20709 ,0.34664 ,3.40125 
337 ,61.5142 ,1.20901 ,0.31926 ,3.13263 
338 ,61.6901 ,1.21084 ,0.32611 ,3.19978 
339 ,61.8663 ,1.21258 ,0.31242 ,3.06547 
340 ,62.0423 ,1.21435 ,0.30558 ,2.99831 
341 ,62.2341 ,1.21626 ,0.28504 ,2.79684 
342 ,62.4109 ,1.21804 ,0.27478 ,2.69611 
343 ,62.6185 ,1.22005 ,0.25424 ,2.49464 
344 ,62.7947 ,1.22188 ,0.25082 ,2.46106 
345 ,62.9867 ,1.22375 ,0.24740 ,2.42748 
346 ,63.1629 ,1.22551 ,0.23371 ,2.29317 
347 ,63.3389 ,1.22731 ,0.22002 ,2.15885 
348 ,63.5152 ,1.22907 ,0.19607 ,1.92381 
349 ,63.7231 ,1.23107 ,0.21318 ,2.09170 
350 ,63.8991 ,1.23293 ,0.17896 ,1.75592 
351 ,64.0913 ,1.23475 ,0.19264 ,1.89023 
352 ,64.2990 ,1.23684 ,0.16527 ,1.62160 
353 ,64.4754 ,1.23865 ,0.15158 ,1.48729 
354 ,64.6991 ,1.24076 ,0.14131 ,1.38655 
355 ,64.8756 ,1.24265 ,0.12420 ,1.21866 
356 ,65.0517 ,1.24449 ,0.11051 ,1.08435 
357 ,65.2438 ,1.24636 ,0.11736 ,1.15151 
358 ,65.4195 ,1.24811 ,0.10025 ,0.98361 
359 ,65.5959 ,1.24990 ,0.06945 ,0.68141 
360 ,65.8038 ,1.25188 ,0.07971 ,0.78214 
361 ,65.9801 ,1.25370 ,0.07971 ,0.78214 
362 ,66.1719 ,1.25560 ,0.05576 ,0.54710 
363 ,66.3803 ,1.25767 ,0.04891 ,0.47994 
364 ,66.5560 ,1.25946 ,0.01811 ,0.17773 
365 ,66.7481 ,1.26137 ,0.04207 ,0.41278 
366 ,66.9241 ,1.26318 ,0.00785 ,0.07700 
367 ,67.1006 ,1.26488 ,0.00443 ,0.04342 
368 ,67.2925 ,1.26682 ,0.00443 ,0.04342 
369 ,67.4847 ,1.26869 ,-0.02637 ,-0.25878 
370 ,67.6767 ,1.27061 ,-0.02980 ,-0.29236 
371 ,67.8687 ,1.27258 ,-0.02295 ,-0.22520 
372 ,68.0608 ,1.27444 ,-0.06060 ,-0.59457 
373 ,68.2529 ,1.27640 ,-0.04348 ,-0.42667 
374 ,68.4290 ,1.27816 ,-0.05033 ,-0.49383 
375 ,68.6046 ,1.28001 ,-0.08797 ,-0.86319 
376 ,68.7811 ,1.28169 ,-0.09482 ,-0.93035 
377 ,68.9732 ,1.28355 ,-0.08797 ,-0.86319 
378 ,69.1492 ,1.28539 ,-0.09824 ,-0.96393 
379 ,69.3253 ,1.28714 ,-0.11535 ,-1.13182 
380 ,69.5014 ,1.28892 ,-0.13588 ,-1.33329 
381 ,69.6613 ,1.29064 ,-0.12904 ,-1.26613 
382 ,69.8376 ,1.29225 ,-0.13931 ,-1.36687 
383 ,70.0292 ,1.29413 ,-0.14615 ,-1.43402 
384 ,70.2218 ,1.29599 ,-0.16326 ,-1.60191 
385 ,70.4298 ,1.29813 ,-0.17353 ,-1.70265 
386 ,70.6060 ,1.29998 ,-0.18722 ,-1.83696 
387 ,70.7978 ,1.30179 ,-0.18379 ,-1.80338 
388 ,70.9740 ,1.30362 ,-0.18722 ,-1.83696 
389 ,71.1502 ,1.30536 ,-0.20433 ,-2.00485 
390 ,71.3583 ,1.30741 ,-0.21117 ,-2.07201 
391 ,71.5342 ,1.30928 ,-0.23513 ,-2.30706 
392 ,71.7103 ,1.31101 ,-0.22486 ,-2.20632 
393 ,71.8864 ,1.31278 ,-0.23855 ,-2.34064 
394 ,72.0465 ,1.31447 ,-0.27619 ,-2.71000 
395 ,72.2225 ,1.31607 ,-0.27619 ,-2.71000 
396 ,72.3983 ,1.31783 ,-0.27961 ,-2.74358 
397 ,72.5747 ,1.31964 ,-0.27961 ,-2.74358 
398 ,72.7504 ,1.32139 ,-0.28646 ,-2.81073 
399 ,72.9269 ,1.32314 ,-0.30699 ,-3.01220 
400 ,73.1189 ,1.32506 ,-0.32068 ,-3.14652 
401 ,73.3112 ,1.32696 ,-0.31384 ,-3.07936 
402 ,73.5027 ,1.32888 ,-0.34464 ,-3.38156 
403 ,73.6791 ,1.33068 ,-0.34464 ,-3.38156 
404 ,73.8551 ,1.33245 ,-0.33779 ,-3.31441 
405 ,74.0473 ,1.33438 ,-0.35490 ,-3.48230 
406 ,74.2393 ,1.33629 ,-0.37201 ,-3.65019 
407 ,74.4154 ,1.33807 ,-0.36517 ,-3.58303 
408 ,74.5915 ,1.33977 ,-0.37544 ,-3.68377 
409 ,74.7675 ,1.34156 ,-0.38912 ,-3.81808 
410 ,74.9592 ,1.34347 ,-0.39939 ,-3.91882 
411 ,75.1354 ,1.34522 ,-0.38912 ,-3.81808 
412 ,75.3119 ,1.34703 ,-0.41308 ,-4.05313 
413 ,75.5040 ,1.34891 ,-0.42677 ,-4.18744 
414 ,75.6800 ,1.35069 ,-0.44388 ,-4.35534 
415 ,75.8559 ,1.35250 ,-0.45072 ,-4.42249 
416 ,76.0481 ,1.35438 ,-0.44046 ,-4.32176 
417 ,76.2242 ,1.35610 ,-0.47126 ,-4.62396 
418 ,76.4003 ,1.35790 ,-0.47126 ,-4.62396 
419 ,76.5920 ,1.35972 ,-0.48152 ,-4.72470 
420 ,76.7684 ,1.36159 ,-0.48152 ,-4.72470 
421 ,76.9443 ,1.36330 ,-0.49863 ,-4.89259 
422 ,77.1205 ,1.36504 ,-0.50548 ,-4.95975 
423 ,77.3127 ,1.36695 ,-0.51232 ,-5.02690 
424 ,77.4887 ,1.36875 ,-0.52601 ,-5.16121 
425 ,77.6808 ,1.37063 ,-0.52601 ,-5.16121 
426 ,77.8729 ,1.37255 ,-0.53628 ,-5.26195 
427 ,78.0488 ,1.37439 ,-0.54654 ,-5.36268 
428 ,78.2250 ,1.37606 ,-0.55681 ,-5.46342 
429 ,78.4170 ,1.37799 ,-0.55681 ,-5.46342 
430 ,78.5932 ,1.37981 ,-0.57050 ,-5.59773 
431 ,78.7691 ,1.38157 ,-0.57734 ,-5.66489 
432 ,78.9453 ,1.38329 ,-0.60130 ,-5.89994 
433 ,79.1214 ,1.38510 ,-0.59788 ,-5.86636 
434 ,79.3135 ,1.38698 ,-0.60814 ,-5.96709 
435 ,79.5215 ,1.38904 ,-0.60814 ,-5.96709 
436 ,79.6977 ,1.39083 ,-0.62868 ,-6.16856 
437 ,79.8897 ,1.39277 ,-0.61841 ,-6.06783 
438 ,80.0652 ,1.39450 ,-0.64236 ,-6.30288 
439 ,80.2416 ,1.39628 ,-0.65605 ,-6.43719 
440 ,80.4336 ,1.39819 ,-0.64579 ,-6.33646 
441 ,80.6259 ,1.40011 ,-0.66632 ,-6.53793 
442 ,80.8019 ,1.40186 ,-0.68343 ,-6.70582 
443 ,80.9940 ,1.40377 ,-0.66290 ,-6.50435 
444 ,81.1701 ,1.40555 ,-0.69370 ,-6.80655 
445 ,81.3463 ,1.40730 ,-0.70054 ,-6.87371 
446 ,81.5222 ,1.40905 ,-0.72450 ,-7.10876 
447 ,81.7304 ,1.41110 ,-0.71765 ,-7.04160 
448 ,81.9066 ,1.41291 ,-0.73476 ,-7.20949 
449 ,82.0987 ,1.41488 ,-0.72107 ,-7.07518 
450 ,82.2908 ,1.41677 ,-0.75187 ,-7.37738 
451 ,82.4667 ,1.41858 ,-0.74161 ,-7.27665 
452 ,82.6588 ,1.42032 ,-0.75872 ,-7.44454 
453 ,82.8348 ,1.42217 ,-0.75872 ,-7.44454 
454 ,83.0112 ,1.42397 ,-0.77241 ,-7.57885 
455 ,83.2031 ,1.42587 ,-0.77583 ,-7.61243 
456 ,83.3792 ,1.42766 ,-0.78267 ,-7.67959 
457 ,83.5714 ,1.42954 ,-0.79978 ,-7.84748 
458 ,83.7632 ,1.43142 ,-0.79978 ,-7.84748 
459 ,83.9392 ,1.43321 ,-0.80663 ,-7.91464 
460 ,84.1315 ,1.43505 ,-0.83058 ,-8.14968 
461 ,84.3234 ,1.43700 ,-0.81689 ,-8.01537 
462 ,84.4992 ,1.43886 ,-0.83743 ,-8.21684 
463 ,84.6756 ,1.44059 ,-0.83743 ,-8.21684 
