Data stamp = , 02-04-2022 15:53:13 332

Calibration Values: 
Slope = , 26.54 , g/V 
Offset Voltage at no contact = , -0.501760 , V 

No , Time , Stage Position ,   Mass , Force 
   ,  (s) ,      (mm)      ,   (g)  , (mN)  

1 ,0.0000 ,0.64946 ,5.01790 ,49.23563 
2 ,0.2039 ,0.64953 ,5.02474 ,49.30279 
3 ,0.4922 ,0.65026 ,5.01790 ,49.23563 
4 ,0.6840 ,0.65145 ,5.02817 ,49.33637 
5 ,0.8763 ,0.65301 ,5.02817 ,49.33637 
6 ,1.0681 ,0.65491 ,5.03501 ,49.40352 
7 ,1.2443 ,0.65664 ,5.03501 ,49.40352 
8 ,1.4203 ,0.65838 ,5.02817 ,49.33637 
9 ,1.5967 ,0.66019 ,5.02132 ,49.26921 
10 ,1.7886 ,0.66212 ,5.03159 ,49.36995 
11 ,1.9647 ,0.66389 ,5.01106 ,49.16848 
12 ,2.1407 ,0.66559 ,5.00079 ,49.06774 
13 ,2.3329 ,0.66756 ,4.99737 ,49.03416 
14 ,2.5090 ,0.66934 ,4.99394 ,49.00058 
15 ,2.7008 ,0.67119 ,4.95972 ,48.66480 
16 ,2.8773 ,0.67301 ,4.95972 ,48.66480 
17 ,3.0532 ,0.67475 ,4.95630 ,48.63122 
18 ,3.2453 ,0.67664 ,4.92892 ,48.36260 
19 ,3.4208 ,0.67843 ,4.90497 ,48.12755 
20 ,3.5974 ,0.68020 ,4.89128 ,47.99324 
21 ,3.7895 ,0.68201 ,4.89128 ,47.99324 
22 ,3.9655 ,0.68389 ,4.88101 ,47.89250 
23 ,4.1412 ,0.68561 ,4.86390 ,47.72461 
24 ,4.3177 ,0.68743 ,4.85364 ,47.62387 
25 ,4.5095 ,0.68935 ,4.85364 ,47.62387 
26 ,4.7016 ,0.69122 ,4.82284 ,47.32167 
27 ,4.8777 ,0.69299 ,4.81257 ,47.22093 
28 ,5.0539 ,0.69470 ,4.80915 ,47.18736 
29 ,5.2461 ,0.69668 ,4.79546 ,47.05304 
30 ,5.4702 ,0.69877 ,4.76124 ,46.71726 
31 ,5.6621 ,0.70076 ,4.73044 ,46.41506 
32 ,5.8382 ,0.70263 ,4.71675 ,46.28074 
33 ,5.9983 ,0.70429 ,4.69964 ,46.11285 
34 ,6.1743 ,0.70597 ,4.69622 ,46.07927 
35 ,6.3504 ,0.70770 ,4.67226 ,45.84422 
36 ,6.5266 ,0.70944 ,4.65173 ,45.64275 
37 ,6.7344 ,0.71152 ,4.62777 ,45.40771 
38 ,6.9107 ,0.71334 ,4.60724 ,45.20624 
39 ,7.1026 ,0.71519 ,4.58671 ,45.00477 
40 ,7.2786 ,0.71699 ,4.55933 ,44.73614 
41 ,7.4546 ,0.71879 ,4.53880 ,44.53467 
42 ,7.6470 ,0.72057 ,4.52511 ,44.40036 
43 ,7.8229 ,0.72244 ,4.50800 ,44.23247 
44 ,8.0152 ,0.72430 ,4.48404 ,43.99742 
45 ,8.2231 ,0.72640 ,4.45324 ,43.69521 
46 ,8.3991 ,0.72827 ,4.44982 ,43.66163 
47 ,8.5753 ,0.72994 ,4.41902 ,43.35943 
48 ,8.7996 ,0.73201 ,4.39849 ,43.15796 
49 ,8.9755 ,0.73398 ,4.36427 ,42.82218 
50 ,9.1514 ,0.73573 ,4.38138 ,42.99007 
51 ,9.3272 ,0.73749 ,4.35400 ,42.72144 
52 ,9.5035 ,0.73920 ,4.33689 ,42.55355 
53 ,9.6956 ,0.74111 ,4.31293 ,42.31850 
54 ,9.8718 ,0.74290 ,4.30267 ,42.21777 
55 ,10.0480 ,0.74467 ,4.30267 ,42.21777 
56 ,10.2240 ,0.74644 ,4.26845 ,41.88198 
57 ,10.4161 ,0.74844 ,4.24449 ,41.64694 
58 ,10.5923 ,0.75013 ,4.23422 ,41.54620 
59 ,10.7843 ,0.75203 ,4.23080 ,41.51262 
60 ,10.9604 ,0.75383 ,4.18974 ,41.10968 
61 ,11.1523 ,0.75574 ,4.17262 ,40.94179 
62 ,11.3284 ,0.75751 ,4.16578 ,40.87464 
63 ,11.5046 ,0.75924 ,4.14867 ,40.70674 
64 ,11.6967 ,0.76111 ,4.11445 ,40.37096 
65 ,11.8726 ,0.76297 ,4.10760 ,40.30380 
66 ,12.0648 ,0.76485 ,4.10076 ,40.23665 
67 ,12.2565 ,0.76673 ,4.06996 ,39.93444 
68 ,12.4330 ,0.76853 ,4.04258 ,39.66582 
69 ,12.6249 ,0.77039 ,4.04943 ,39.73297 
70 ,12.8011 ,0.77221 ,4.01178 ,39.36361 
71 ,12.9930 ,0.77417 ,3.98441 ,39.09499 
72 ,13.1690 ,0.77586 ,3.98098 ,39.06141 
73 ,13.3612 ,0.77771 ,3.97072 ,38.96067 
74 ,13.5374 ,0.77957 ,3.92965 ,38.55773 
75 ,13.7134 ,0.78131 ,3.91938 ,38.45700 
76 ,13.8895 ,0.78310 ,3.91596 ,38.42342 
77 ,14.0817 ,0.78492 ,3.90227 ,38.28911 
78 ,14.2577 ,0.78677 ,3.86805 ,37.95332 
79 ,14.4654 ,0.78871 ,3.86121 ,37.88617 
80 ,14.6579 ,0.79062 ,3.83725 ,37.65112 
81 ,14.8340 ,0.79255 ,3.79276 ,37.21460 
82 ,15.0261 ,0.79444 ,3.79619 ,37.24818 
83 ,15.2019 ,0.79622 ,3.78592 ,37.14744 
84 ,15.4102 ,0.79819 ,3.77223 ,37.01313 
85 ,15.6022 ,0.80020 ,3.75512 ,36.84524 
86 ,15.7779 ,0.80198 ,3.72090 ,36.50946 
87 ,15.9544 ,0.80373 ,3.69694 ,36.27441 
88 ,16.1465 ,0.80561 ,3.69694 ,36.27441 
89 ,16.3385 ,0.80757 ,3.66957 ,36.00578 
90 ,16.5144 ,0.80926 ,3.63534 ,35.67000 
91 ,16.6907 ,0.81110 ,3.62850 ,35.60284 
92 ,16.8667 ,0.81285 ,3.62166 ,35.53569 
93 ,17.0590 ,0.81477 ,3.59770 ,35.30064 
94 ,17.2348 ,0.81655 ,3.58401 ,35.16632 
95 ,17.4269 ,0.81843 ,3.56348 ,34.96485 
96 ,17.6031 ,0.82020 ,3.56348 ,34.96485 
97 ,17.7948 ,0.82212 ,3.53610 ,34.69623 
98 ,17.9712 ,0.82387 ,3.50872 ,34.42760 
99 ,18.1634 ,0.82584 ,3.51899 ,34.52834 
100 ,18.3395 ,0.82760 ,3.49161 ,34.25971 
101 ,18.5156 ,0.82932 ,3.46766 ,34.02466 
102 ,18.6915 ,0.83108 ,3.44370 ,33.78961 
103 ,18.8674 ,0.83283 ,3.44713 ,33.82319 
104 ,19.0597 ,0.83476 ,3.42659 ,33.62172 
105 ,19.2519 ,0.83661 ,3.40606 ,33.42025 
106 ,19.4440 ,0.83853 ,3.39579 ,33.31952 
107 ,19.6199 ,0.84040 ,3.38895 ,33.25236 
108 ,19.7960 ,0.84213 ,3.35473 ,32.91658 
109 ,19.9717 ,0.84385 ,3.33419 ,32.71511 
110 ,20.1643 ,0.84579 ,3.32051 ,32.58080 
111 ,20.3561 ,0.84770 ,3.31708 ,32.54722 
112 ,20.5323 ,0.84946 ,3.28628 ,32.24501 
113 ,20.7083 ,0.85126 ,3.26917 ,32.07712 
114 ,20.8845 ,0.85298 ,3.27944 ,32.17786 
115 ,21.0762 ,0.85493 ,3.23495 ,31.74134 
116 ,21.2523 ,0.85666 ,3.21784 ,31.57345 
117 ,21.4286 ,0.85844 ,3.21100 ,31.50629 
118 ,21.6046 ,0.86016 ,3.19046 ,31.30482 
119 ,21.7808 ,0.86197 ,3.19388 ,31.33840 
120 ,21.9568 ,0.86373 ,3.15282 ,30.93546 
121 ,22.1326 ,0.86542 ,3.13913 ,30.80115 
122 ,22.3092 ,0.86723 ,3.11518 ,30.56610 
123 ,22.4853 ,0.86907 ,3.10833 ,30.49894 
124 ,22.6771 ,0.87089 ,3.08095 ,30.23031 
125 ,22.8691 ,0.87286 ,3.07069 ,30.12958 
126 ,23.0612 ,0.87469 ,3.06042 ,30.02884 
127 ,23.2535 ,0.87668 ,3.03989 ,29.82737 
128 ,23.4451 ,0.87863 ,3.02620 ,29.69306 
129 ,23.6374 ,0.88039 ,3.02278 ,29.65948 
130 ,23.8294 ,0.88251 ,2.98855 ,29.32370 
131 ,24.0057 ,0.88415 ,2.97144 ,29.15581 
132 ,24.1815 ,0.88595 ,2.96802 ,29.12223 
133 ,24.3579 ,0.88774 ,2.94064 ,28.85360 
134 ,24.5339 ,0.88953 ,2.93722 ,28.82003 
135 ,24.7100 ,0.89125 ,2.89616 ,28.41709 
136 ,24.9020 ,0.89318 ,2.89958 ,28.45066 
137 ,25.0781 ,0.89504 ,2.86878 ,28.14846 
138 ,25.2538 ,0.89670 ,2.86878 ,28.14846 
139 ,25.4302 ,0.89845 ,2.84482 ,27.91341 
140 ,25.6064 ,0.90017 ,2.83798 ,27.84625 
141 ,25.7824 ,0.90201 ,2.81745 ,27.64479 
142 ,25.9585 ,0.90370 ,2.80718 ,27.54405 
143 ,26.1342 ,0.90548 ,2.78665 ,27.34258 
144 ,26.3104 ,0.90724 ,2.76611 ,27.14111 
145 ,26.5024 ,0.90915 ,2.75243 ,27.00680 
146 ,26.7107 ,0.91123 ,2.73189 ,26.80533 
147 ,26.8869 ,0.91300 ,2.71136 ,26.60386 
148 ,27.0629 ,0.91475 ,2.70109 ,26.50312 
149 ,27.2389 ,0.91654 ,2.69767 ,26.46954 
150 ,27.4147 ,0.91822 ,2.66003 ,26.10018 
151 ,27.5910 ,0.92008 ,2.63949 ,25.89871 
152 ,27.7832 ,0.92193 ,2.63607 ,25.86514 
153 ,27.9592 ,0.92374 ,2.62238 ,25.73082 
154 ,28.1512 ,0.92565 ,2.59843 ,25.49577 
155 ,28.3436 ,0.92747 ,2.57447 ,25.26073 
156 ,28.5511 ,0.92954 ,2.55394 ,25.05926 
157 ,28.7435 ,0.93145 ,2.54367 ,24.95852 
158 ,28.9196 ,0.93333 ,2.51972 ,24.72347 
159 ,29.1115 ,0.93528 ,2.51287 ,24.65632 
160 ,29.2879 ,0.93700 ,2.49234 ,24.45485 
161 ,29.4638 ,0.93880 ,2.47523 ,24.28696 
162 ,29.6399 ,0.94050 ,2.48207 ,24.35411 
163 ,29.8479 ,0.94256 ,2.43759 ,23.91759 
164 ,30.0240 ,0.94431 ,2.43416 ,23.88402 
165 ,30.2001 ,0.94613 ,2.42732 ,23.81686 
166 ,30.3761 ,0.94791 ,2.42048 ,23.74970 
167 ,30.5357 ,0.94961 ,2.39310 ,23.48108 
168 ,30.7122 ,0.95126 ,2.38283 ,23.38034 
169 ,30.9044 ,0.95317 ,2.35545 ,23.11171 
170 ,31.0803 ,0.95489 ,2.33150 ,22.87667 
171 ,31.2565 ,0.95665 ,2.33492 ,22.91024 
172 ,31.4325 ,0.95843 ,2.32123 ,22.77593 
173 ,31.6243 ,0.96038 ,2.28359 ,22.40657 
174 ,31.8008 ,0.96212 ,2.28701 ,22.44015 
175 ,31.9929 ,0.96403 ,2.26990 ,22.27226 
176 ,32.1689 ,0.96581 ,2.25279 ,22.10437 
177 ,32.3450 ,0.96754 ,2.23226 ,21.90290 
178 ,32.5371 ,0.96935 ,2.21857 ,21.76858 
179 ,32.7127 ,0.97120 ,2.21172 ,21.70143 
180 ,32.8890 ,0.97302 ,2.19461 ,21.53353 
181 ,33.0973 ,0.97496 ,2.17750 ,21.36564 
182 ,33.2894 ,0.97700 ,2.15697 ,21.16417 
183 ,33.4654 ,0.97873 ,2.14670 ,21.06344 
184 ,33.6575 ,0.98057 ,2.11248 ,20.72766 
185 ,33.8336 ,0.98242 ,2.12275 ,20.82839 
186 ,34.0098 ,0.98417 ,2.10221 ,20.62692 
187 ,34.1858 ,0.98598 ,2.07826 ,20.39187 
188 ,34.3619 ,0.98773 ,2.05773 ,20.19040 
189 ,34.5376 ,0.98943 ,2.05773 ,20.19040 
190 ,34.7301 ,0.99128 ,2.03719 ,19.98893 
191 ,34.9060 ,0.99315 ,2.00982 ,19.72031 
192 ,35.0825 ,0.99494 ,1.98244 ,19.45168 
193 ,35.2742 ,0.99682 ,1.99613 ,19.58599 
194 ,35.4504 ,0.99862 ,1.98928 ,19.51884 
195 ,35.6266 ,1.00038 ,1.96533 ,19.28379 
196 ,35.8184 ,1.00223 ,1.94822 ,19.11590 
197 ,35.9946 ,1.00401 ,1.95506 ,19.18305 
198 ,36.2028 ,1.00606 ,1.91742 ,18.81369 
199 ,36.3789 ,1.00790 ,1.89004 ,18.54507 
200 ,36.5546 ,1.00966 ,1.89346 ,18.57864 
201 ,36.7468 ,1.01157 ,1.87635 ,18.41075 
202 ,36.9385 ,1.01341 ,1.85582 ,18.20928 
203 ,37.1151 ,1.01526 ,1.85240 ,18.17570 
204 ,37.2910 ,1.01701 ,1.84555 ,18.10855 
205 ,37.4672 ,1.01876 ,1.82160 ,17.87350 
206 ,37.6753 ,1.02078 ,1.79080 ,17.57129 
207 ,37.8512 ,1.02262 ,1.79422 ,17.60487 
208 ,38.0274 ,1.02434 ,1.78395 ,17.50414 
209 ,38.2033 ,1.02610 ,1.74289 ,17.10120 
210 ,38.3955 ,1.02809 ,1.75315 ,17.20193 
211 ,38.5716 ,1.02979 ,1.74289 ,17.10120 
212 ,38.7477 ,1.03157 ,1.71893 ,16.86615 
213 ,38.9237 ,1.03328 ,1.69840 ,16.66468 
214 ,39.1158 ,1.03523 ,1.68471 ,16.53037 
215 ,39.3079 ,1.03717 ,1.68129 ,16.49679 
216 ,39.4844 ,1.03893 ,1.65733 ,16.26174 
217 ,39.6600 ,1.04071 ,1.64022 ,16.09385 
218 ,39.8361 ,1.04246 ,1.64022 ,16.09385 
219 ,40.0121 ,1.04424 ,1.62995 ,15.99311 
220 ,40.1884 ,1.04599 ,1.61284 ,15.82522 
221 ,40.3804 ,1.04781 ,1.59231 ,15.62375 
222 ,40.5720 ,1.04979 ,1.58547 ,15.55660 
223 ,40.7320 ,1.05154 ,1.56493 ,15.35513 
224 ,40.9081 ,1.05311 ,1.56151 ,15.32155 
225 ,41.0842 ,1.05492 ,1.54782 ,15.18724 
226 ,41.2763 ,1.05676 ,1.52729 ,14.98577 
227 ,41.4523 ,1.05862 ,1.51702 ,14.88503 
228 ,41.6285 ,1.06034 ,1.51360 ,14.85145 
229 ,41.8044 ,1.06211 ,1.49649 ,14.68356 
230 ,41.9809 ,1.06388 ,1.46569 ,14.38136 
231 ,42.1732 ,1.06582 ,1.46569 ,14.38136 
232 ,42.3813 ,1.06786 ,1.43489 ,14.07915 
233 ,42.5729 ,1.06982 ,1.43489 ,14.07915 
234 ,42.7492 ,1.07154 ,1.43147 ,14.04557 
235 ,42.9413 ,1.07345 ,1.38698 ,13.60906 
236 ,43.1173 ,1.07527 ,1.38698 ,13.60906 
237 ,43.3093 ,1.07718 ,1.37671 ,13.50832 
238 ,43.4856 ,1.07896 ,1.35960 ,13.34043 
239 ,43.6618 ,1.08068 ,1.33565 ,13.10538 
240 ,43.8378 ,1.08248 ,1.33565 ,13.10538 
241 ,44.0140 ,1.08420 ,1.31512 ,12.90391 
242 ,44.2059 ,1.08614 ,1.31512 ,12.90391 
243 ,44.3815 ,1.08789 ,1.29116 ,12.66886 
244 ,44.5578 ,1.08970 ,1.28089 ,12.56813 
245 ,44.7502 ,1.09148 ,1.27063 ,12.46739 
246 ,44.9260 ,1.09334 ,1.26036 ,12.36666 
247 ,45.1022 ,1.09509 ,1.24325 ,12.19877 
248 ,45.2783 ,1.09684 ,1.22956 ,12.06445 
249 ,45.4545 ,1.09857 ,1.22956 ,12.06445 
250 ,45.6306 ,1.10034 ,1.21587 ,11.93014 
251 ,45.8064 ,1.10210 ,1.19534 ,11.72867 
252 ,45.9986 ,1.10404 ,1.17138 ,11.49362 
253 ,46.1747 ,1.10585 ,1.17138 ,11.49362 
254 ,46.3508 ,1.10754 ,1.15085 ,11.29215 
255 ,46.5266 ,1.10942 ,1.13374 ,11.12426 
256 ,46.7026 ,1.11108 ,1.10636 ,10.85563 
257 ,46.8787 ,1.11286 ,1.11321 ,10.92279 
258 ,47.0551 ,1.11459 ,1.10294 ,10.82206 
259 ,47.2472 ,1.11649 ,1.08925 ,10.68774 
260 ,47.4233 ,1.11825 ,1.06872 ,10.48627 
261 ,47.5993 ,1.12016 ,1.07214 ,10.51985 
262 ,47.7912 ,1.12192 ,1.05503 ,10.35196 
263 ,47.9675 ,1.12370 ,1.04134 ,10.21765 
264 ,48.1432 ,1.12548 ,1.02765 ,10.08333 
265 ,48.3196 ,1.12724 ,1.01396 ,9.94902 
266 ,48.4956 ,1.12904 ,1.00370 ,9.84829 
267 ,48.7037 ,1.13102 ,0.99685 ,9.78113 
268 ,48.8956 ,1.13293 ,0.97974 ,9.61324 
269 ,49.0720 ,1.13478 ,0.97290 ,9.54608 
270 ,49.2640 ,1.13670 ,0.95921 ,9.41177 
271 ,49.4401 ,1.13844 ,0.92841 ,9.10956 
272 ,49.6158 ,1.14023 ,0.92841 ,9.10956 
273 ,49.7923 ,1.14200 ,0.91814 ,9.00883 
274 ,49.9846 ,1.14389 ,0.90446 ,8.87451 
275 ,50.1603 ,1.14567 ,0.88734 ,8.70662 
276 ,50.3365 ,1.14739 ,0.88392 ,8.67305 
277 ,50.5606 ,1.14949 ,0.86339 ,8.47158 
278 ,50.7366 ,1.15140 ,0.84970 ,8.33726 
279 ,50.9127 ,1.15315 ,0.84628 ,8.30368 
280 ,51.0723 ,1.15488 ,0.82917 ,8.13579 
281 ,51.2323 ,1.15650 ,0.82232 ,8.06864 
282 ,51.3924 ,1.15809 ,0.80179 ,7.86717 
283 ,51.5688 ,1.15973 ,0.80179 ,7.86717 
284 ,51.7767 ,1.16185 ,0.77441 ,7.59854 
285 ,51.9531 ,1.16357 ,0.77784 ,7.63212 
286 ,52.1292 ,1.16533 ,0.77441 ,7.59854 
287 ,52.3213 ,1.16721 ,0.72308 ,7.09486 
288 ,52.4973 ,1.16899 ,0.71966 ,7.06129 
289 ,52.6735 ,1.17081 ,0.71966 ,7.06129 
290 ,52.8655 ,1.17269 ,0.69570 ,6.82624 
291 ,53.0415 ,1.17444 ,0.67859 ,6.65835 
292 ,53.2337 ,1.17638 ,0.68201 ,6.69193 
293 ,53.4099 ,1.17811 ,0.67517 ,6.62477 
294 ,53.5858 ,1.17992 ,0.65121 ,6.38972 
295 ,53.7619 ,1.18163 ,0.63753 ,6.25541 
296 ,53.9376 ,1.18355 ,0.62726 ,6.15467 
297 ,54.1141 ,1.18514 ,0.61357 ,6.02036 
298 ,54.3058 ,1.18711 ,0.60673 ,5.95320 
299 ,54.4821 ,1.18881 ,0.58619 ,5.75173 
300 ,54.6422 ,1.19055 ,0.57251 ,5.61742 
301 ,54.8023 ,1.19216 ,0.57251 ,5.61742 
302 ,54.9783 ,1.19381 ,0.56224 ,5.51668 
303 ,55.1544 ,1.19557 ,0.55539 ,5.44953 
304 ,55.3306 ,1.19738 ,0.54171 ,5.31522 
305 ,55.5066 ,1.19909 ,0.52117 ,5.11375 
306 ,55.6826 ,1.20085 ,0.50064 ,4.91228 
307 ,55.8584 ,1.20263 ,0.49037 ,4.81154 
308 ,56.0188 ,1.20432 ,0.50406 ,4.94585 
309 ,56.1948 ,1.20594 ,0.48011 ,4.71081 
310 ,56.3710 ,1.20773 ,0.48353 ,4.74438 
311 ,56.5630 ,1.20965 ,0.43562 ,4.27429 
312 ,56.7392 ,1.21143 ,0.42877 ,4.20713 
313 ,56.9312 ,1.21333 ,0.43220 ,4.24071 
314 ,57.1072 ,1.21508 ,0.41166 ,4.03924 
315 ,57.2993 ,1.21694 ,0.40824 ,4.00566 
316 ,57.4755 ,1.21878 ,0.39797 ,3.90493 
317 ,57.6675 ,1.22073 ,0.38429 ,3.77061 
318 ,57.8596 ,1.22263 ,0.36375 ,3.56914 
319 ,58.0357 ,1.22441 ,0.36033 ,3.53557 
320 ,58.2115 ,1.22611 ,0.34664 ,3.40125 
321 ,58.3879 ,1.22790 ,0.33980 ,3.33410 
322 ,58.5800 ,1.22983 ,0.31242 ,3.06547 
323 ,58.7560 ,1.23161 ,0.30900 ,3.03189 
324 ,58.9476 ,1.23344 ,0.30215 ,2.96473 
325 ,59.1399 ,1.23528 ,0.28504 ,2.79684 
326 ,59.3159 ,1.23719 ,0.27478 ,2.69611 
327 ,59.5083 ,1.23911 ,0.27135 ,2.66253 
328 ,59.6843 ,1.24098 ,0.24398 ,2.39390 
329 ,59.8604 ,1.24264 ,0.23029 ,2.25959 
330 ,60.0364 ,1.24437 ,0.23371 ,2.29317 
331 ,60.2123 ,1.24609 ,0.23029 ,2.25959 
332 ,60.4045 ,1.24800 ,0.19949 ,1.95738 
333 ,60.5807 ,1.24983 ,0.18238 ,1.78949 
334 ,60.7728 ,1.25162 ,0.18238 ,1.78949 
335 ,60.9649 ,1.25366 ,0.15842 ,1.55445 
336 ,61.1570 ,1.25547 ,0.15500 ,1.52087 
337 ,61.3490 ,1.25748 ,0.13789 ,1.35298 
338 ,61.5252 ,1.25923 ,0.13105 ,1.28582 
339 ,61.7009 ,1.26099 ,0.11051 ,1.08435 
340 ,61.8933 ,1.26290 ,0.11736 ,1.15151 
341 ,62.0693 ,1.26475 ,0.09340 ,0.91646 
342 ,62.2454 ,1.26647 ,0.08656 ,0.84930 
343 ,62.4210 ,1.26818 ,0.07629 ,0.74857 
344 ,62.5975 ,1.27000 ,0.06260 ,0.61425 
345 ,62.7735 ,1.27173 ,0.06260 ,0.61425 
346 ,62.9656 ,1.27358 ,0.03522 ,0.34563 
347 ,63.1416 ,1.27543 ,0.01811 ,0.17773 
348 ,63.3178 ,1.27720 ,0.02496 ,0.24489 
349 ,63.4938 ,1.27892 ,0.01811 ,0.17773 
350 ,63.6861 ,1.28081 ,-0.01953 ,-0.19163 
351 ,63.8621 ,1.28266 ,-0.01611 ,-0.15805 
352 ,64.0541 ,1.28449 ,-0.00926 ,-0.09089 
353 ,64.2301 ,1.28622 ,-0.02980 ,-0.29236 
354 ,64.4063 ,1.28804 ,-0.04348 ,-0.42667 
355 ,64.5982 ,1.28988 ,-0.06402 ,-0.62814 
356 ,64.7905 ,1.29188 ,-0.07086 ,-0.69530 
357 ,64.9825 ,1.29381 ,-0.07771 ,-0.76246 
358 ,65.1746 ,1.29569 ,-0.08113 ,-0.79604 
359 ,65.3666 ,1.29762 ,-0.10851 ,-1.06466 
360 ,65.5423 ,1.29938 ,-0.12219 ,-1.19898 
361 ,65.7189 ,1.30115 ,-0.12219 ,-1.19898 
362 ,65.8945 ,1.30295 ,-0.11877 ,-1.16540 
363 ,66.0709 ,1.30464 ,-0.12904 ,-1.26613 
364 ,66.2629 ,1.30655 ,-0.14615 ,-1.43402 
365 ,66.4552 ,1.30843 ,-0.17011 ,-1.66907 
366 ,66.6308 ,1.31027 ,-0.15984 ,-1.56834 
367 ,66.8072 ,1.31202 ,-0.18379 ,-1.80338 
368 ,66.9833 ,1.31380 ,-0.20090 ,-1.97128 
369 ,67.1594 ,1.31559 ,-0.20090 ,-1.97128 
370 ,67.3354 ,1.31734 ,-0.21117 ,-2.07201 
371 ,67.5275 ,1.31926 ,-0.22828 ,-2.23990 
372 ,67.7196 ,1.32116 ,-0.22486 ,-2.20632 
373 ,67.9117 ,1.32310 ,-0.24197 ,-2.37422 
374 ,68.1037 ,1.32498 ,-0.24881 ,-2.44137 
375 ,68.2799 ,1.32678 ,-0.26935 ,-2.64284 
376 ,68.4560 ,1.32858 ,-0.25908 ,-2.54211 
377 ,68.6320 ,1.33033 ,-0.27277 ,-2.67642 
378 ,68.8081 ,1.33209 ,-0.28988 ,-2.84431 
379 ,69.0000 ,1.33397 ,-0.30357 ,-2.97863 
380 ,69.1921 ,1.33575 ,-0.30015 ,-2.94505 
381 ,69.3681 ,1.33766 ,-0.32752 ,-3.21367 
382 ,69.5603 ,1.33955 ,-0.33779 ,-3.31441 
383 ,69.7201 ,1.34129 ,-0.33437 ,-3.28083 
384 ,69.8965 ,1.34295 ,-0.33437 ,-3.28083 
385 ,70.0884 ,1.34486 ,-0.35148 ,-3.44872 
386 ,70.2647 ,1.34662 ,-0.36859 ,-3.61661 
387 ,70.4407 ,1.34839 ,-0.38228 ,-3.75093 
388 ,70.6328 ,1.35024 ,-0.37201 ,-3.65019 
389 ,70.8248 ,1.35219 ,-0.37544 ,-3.68377 
390 ,71.0008 ,1.35394 ,-0.39255 ,-3.85166 
391 ,71.1929 ,1.35588 ,-0.39255 ,-3.85166 
392 ,71.3691 ,1.35770 ,-0.41308 ,-4.05313 
393 ,71.5771 ,1.35970 ,-0.40623 ,-3.98597 
394 ,71.7532 ,1.36147 ,-0.41650 ,-4.08671 
395 ,71.9293 ,1.36322 ,-0.43019 ,-4.22102 
396 ,72.1214 ,1.36519 ,-0.44046 ,-4.32176 
397 ,72.3135 ,1.36711 ,-0.44730 ,-4.38891 
398 ,72.4899 ,1.36888 ,-0.45414 ,-4.45607 
399 ,72.6653 ,1.37061 ,-0.47810 ,-4.69112 
400 ,72.8578 ,1.37241 ,-0.49179 ,-4.82543 
401 ,73.0498 ,1.37449 ,-0.48494 ,-4.75828 
402 ,73.2256 ,1.37621 ,-0.50548 ,-4.95975 
403 ,73.4018 ,1.37796 ,-0.51574 ,-5.06048 
404 ,73.6095 ,1.37998 ,-0.52943 ,-5.19479 
405 ,73.7861 ,1.38182 ,-0.53970 ,-5.29553 
406 ,73.9617 ,1.38353 ,-0.54654 ,-5.36268 
407 ,74.1382 ,1.38535 ,-0.53970 ,-5.29553 
408 ,74.3303 ,1.38726 ,-0.54997 ,-5.39626 
409 ,74.5224 ,1.38908 ,-0.56708 ,-5.56415 
410 ,74.7144 ,1.39115 ,-0.56023 ,-5.49700 
411 ,74.9066 ,1.39303 ,-0.58077 ,-5.69847 
412 ,75.0665 ,1.39478 ,-0.58761 ,-5.76562 
413 ,75.2426 ,1.39637 ,-0.59788 ,-5.86636 
414 ,75.4187 ,1.39806 ,-0.59788 ,-5.86636 
415 ,75.5946 ,1.39988 ,-0.61499 ,-6.03425 
416 ,75.7869 ,1.40175 ,-0.61156 ,-6.00067 
417 ,75.9630 ,1.40357 ,-0.64236 ,-6.30288 
418 ,76.1391 ,1.40538 ,-0.62525 ,-6.13499 
419 ,76.3310 ,1.40724 ,-0.63552 ,-6.23572 
420 ,76.5068 ,1.40900 ,-0.64921 ,-6.37003 
421 ,76.6830 ,1.41075 ,-0.66632 ,-6.53793 
422 ,76.8594 ,1.41255 ,-0.65947 ,-6.47077 
423 ,77.0354 ,1.41431 ,-0.67316 ,-6.60508 
424 ,77.2114 ,1.41606 ,-0.68343 ,-6.70582 
425 ,77.4036 ,1.41794 ,-0.69370 ,-6.80655 
426 ,77.5795 ,1.41972 ,-0.71081 ,-6.97444 
427 ,77.7557 ,1.42151 ,-0.70396 ,-6.90729 
428 ,77.9477 ,1.42342 ,-0.72450 ,-7.10876 
429 ,78.1399 ,1.42529 ,-0.73134 ,-7.17591 
430 ,78.3320 ,1.42718 ,-0.73476 ,-7.20949 
431 ,78.5240 ,1.42916 ,-0.75530 ,-7.41096 
432 ,78.6999 ,1.43093 ,-0.74161 ,-7.27665 
433 ,78.8922 ,1.43275 ,-0.74845 ,-7.34380 
434 ,79.0683 ,1.43461 ,-0.77925 ,-7.64601 
435 ,79.2599 ,1.43652 ,-0.77583 ,-7.61243 
436 ,79.4365 ,1.43829 ,-0.77583 ,-7.61243 
437 ,79.6125 ,1.44009 ,-0.78610 ,-7.71317 
438 ,79.8046 ,1.44199 ,-0.81689 ,-8.01537 
439 ,79.9645 ,1.44369 ,-0.81005 ,-7.94821 
440 ,80.1405 ,1.44531 ,-0.80321 ,-7.88106 
441 ,80.3163 ,1.44706 ,-0.81347 ,-7.98179 
442 ,80.4928 ,1.44887 ,-0.82716 ,-8.11611 
443 ,80.6689 ,1.45065 ,-0.85454 ,-8.38473 
444 ,80.8609 ,1.45251 ,-0.85112 ,-8.35115 
445 ,81.0371 ,1.45426 ,-0.84769 ,-8.31758 
446 ,81.2132 ,1.45604 ,-0.85454 ,-8.38473 
447 ,81.4050 ,1.45791 ,-0.88192 ,-8.65336 
448 ,81.5651 ,1.45965 ,-0.88192 ,-8.65336 
449 ,81.7411 ,1.46135 ,-0.87507 ,-8.58620 
450 ,81.9333 ,1.46323 ,-0.88876 ,-8.72051 
451 ,82.1092 ,1.46502 ,-0.89903 ,-8.82125 
452 ,82.2855 ,1.46677 ,-0.92298 ,-9.05630 
453 ,82.4614 ,1.46865 ,-0.90929 ,-8.92198 
454 ,82.6375 ,1.47027 ,-0.91272 ,-8.95556 
455 ,82.8137 ,1.47203 ,-0.91956 ,-9.02272 
456 ,83.0056 ,1.47395 ,-0.94694 ,-9.29135 
457 ,83.1820 ,1.47575 ,-0.93667 ,-9.19061 
458 ,83.3575 ,1.47748 ,-0.94351 ,-9.25777 
459 ,83.5179 ,1.47923 ,-0.96747 ,-9.49282 
460 ,83.6941 ,1.48086 ,-0.95036 ,-9.32492 
461 ,83.8702 ,1.48267 ,-0.97431 ,-9.55997 
462 ,84.0623 ,1.48445 ,-0.97089 ,-9.52639 
