Data stamp = , 02-04-2022 19:43:18 225

Calibration Values: 
Slope = , 26.54 , g/V 
Offset Voltage at no contact = , -0.501760 , V 

No , Time , Stage Position ,   Mass , Force 
   ,  (s) ,      (mm)      ,   (g)  , (mN)  

1 ,0.0000 ,0.64949 ,4.98026 ,48.86627 
2 ,0.2273 ,0.64957 ,4.97683 ,48.83269 
3 ,0.5310 ,0.65039 ,4.98026 ,48.86627 
4 ,0.7234 ,0.65178 ,4.98368 ,48.89985 
5 ,0.8994 ,0.65328 ,4.99394 ,49.00058 
6 ,1.0916 ,0.65508 ,4.98026 ,48.86627 
7 ,1.2678 ,0.65688 ,4.99052 ,48.96701 
8 ,1.4598 ,0.65874 ,5.00421 ,49.10132 
9 ,1.6360 ,0.66054 ,4.99052 ,48.96701 
10 ,1.8281 ,0.66252 ,4.97341 ,48.79911 
11 ,2.0362 ,0.66451 ,4.94946 ,48.56407 
12 ,2.2282 ,0.66654 ,4.94261 ,48.49691 
13 ,2.4202 ,0.66832 ,4.94261 ,48.49691 
14 ,2.5963 ,0.67017 ,4.91866 ,48.26186 
15 ,2.7724 ,0.67192 ,4.90155 ,48.09397 
16 ,2.9485 ,0.67371 ,4.87759 ,47.85892 
17 ,3.1243 ,0.67549 ,4.88101 ,47.89250 
18 ,3.3323 ,0.67746 ,4.84679 ,47.55672 
19 ,3.5082 ,0.67931 ,4.82968 ,47.38883 
20 ,3.6843 ,0.68109 ,4.82284 ,47.32167 
21 ,3.8604 ,0.68279 ,4.81599 ,47.25451 
22 ,4.0528 ,0.68469 ,4.79204 ,47.01946 
23 ,4.2770 ,0.68695 ,4.76808 ,46.78442 
24 ,4.4689 ,0.68883 ,4.76466 ,46.75084 
25 ,4.6613 ,0.69082 ,4.73386 ,46.44863 
26 ,4.8374 ,0.69263 ,4.72017 ,46.31432 
27 ,5.0133 ,0.69432 ,4.70990 ,46.21359 
28 ,5.2051 ,0.69627 ,4.68253 ,45.94496 
29 ,5.3814 ,0.69804 ,4.67226 ,45.84422 
30 ,5.5575 ,0.69976 ,4.64831 ,45.60918 
31 ,5.7334 ,0.70152 ,4.62777 ,45.40771 
32 ,5.9098 ,0.70330 ,4.61408 ,45.27339 
33 ,6.0856 ,0.70502 ,4.60382 ,45.17266 
34 ,6.2618 ,0.70686 ,4.60724 ,45.20624 
35 ,6.4379 ,0.70855 ,4.56617 ,44.80330 
36 ,6.6300 ,0.71053 ,4.55249 ,44.66898 
37 ,6.8060 ,0.71228 ,4.53537 ,44.50109 
38 ,6.9821 ,0.71401 ,4.53880 ,44.53467 
39 ,7.1581 ,0.71573 ,4.49089 ,44.06457 
40 ,7.3503 ,0.71766 ,4.49089 ,44.06457 
41 ,7.5423 ,0.71949 ,4.47378 ,43.89668 
42 ,7.7186 ,0.72136 ,4.44298 ,43.59448 
43 ,7.9104 ,0.72321 ,4.42929 ,43.46016 
44 ,8.0867 ,0.72508 ,4.41218 ,43.29227 
45 ,8.2786 ,0.72697 ,4.38138 ,42.99007 
46 ,8.4708 ,0.72889 ,4.38822 ,43.05723 
47 ,8.6467 ,0.73063 ,4.36769 ,42.85576 
48 ,8.8230 ,0.73242 ,4.33689 ,42.55355 
49 ,9.0152 ,0.73433 ,4.31978 ,42.38566 
50 ,9.1908 ,0.73609 ,4.29924 ,42.18419 
51 ,9.3671 ,0.73784 ,4.29924 ,42.18419 
52 ,9.5432 ,0.73964 ,4.27529 ,41.94914 
53 ,9.7195 ,0.74141 ,4.26502 ,41.84841 
54 ,9.9114 ,0.74321 ,4.23422 ,41.54620 
55 ,10.1036 ,0.74516 ,4.22053 ,41.41189 
56 ,10.2635 ,0.74695 ,4.18974 ,41.10968 
57 ,10.4396 ,0.74854 ,4.19316 ,41.14326 
58 ,10.6318 ,0.75052 ,4.18974 ,41.10968 
59 ,10.8078 ,0.75227 ,4.15551 ,40.77390 
60 ,10.9995 ,0.75414 ,4.13156 ,40.53885 
61 ,11.1919 ,0.75606 ,4.12471 ,40.47170 
62 ,11.3679 ,0.75783 ,4.10418 ,40.27023 
63 ,11.5600 ,0.75979 ,4.07338 ,39.96802 
64 ,11.7520 ,0.76160 ,4.05285 ,39.76655 
65 ,11.9283 ,0.76345 ,4.05285 ,39.76655 
66 ,12.1203 ,0.76538 ,4.02205 ,39.46435 
67 ,12.3121 ,0.76733 ,3.99467 ,39.19572 
68 ,12.4885 ,0.76909 ,3.98783 ,39.12856 
69 ,12.6644 ,0.77083 ,3.97072 ,38.96067 
70 ,12.8406 ,0.77256 ,3.94334 ,38.69205 
71 ,13.0326 ,0.77450 ,3.94676 ,38.72562 
72 ,13.2086 ,0.77627 ,3.91254 ,38.38984 
73 ,13.3844 ,0.77800 ,3.88858 ,38.15479 
74 ,13.5608 ,0.77979 ,3.88174 ,38.08764 
75 ,13.7369 ,0.78153 ,3.85779 ,37.85259 
76 ,13.9131 ,0.78326 ,3.85436 ,37.81901 
77 ,14.0888 ,0.78514 ,3.83041 ,37.58396 
78 ,14.2491 ,0.78676 ,3.80645 ,37.34891 
79 ,14.4254 ,0.78844 ,3.79276 ,37.21460 
80 ,14.6334 ,0.79033 ,3.79619 ,37.24818 
81 ,14.8252 ,0.79243 ,3.74143 ,36.71093 
82 ,15.0014 ,0.79416 ,3.73801 ,36.67735 
83 ,15.2254 ,0.79629 ,3.71063 ,36.40872 
84 ,15.4016 ,0.79819 ,3.68325 ,36.14010 
85 ,15.5774 ,0.80004 ,3.69010 ,36.20725 
86 ,15.7537 ,0.80168 ,3.67983 ,36.10652 
87 ,15.9296 ,0.80349 ,3.64561 ,35.77073 
88 ,16.1059 ,0.80524 ,3.62850 ,35.60284 
89 ,16.2979 ,0.80715 ,3.62166 ,35.53569 
90 ,16.4740 ,0.80886 ,3.60797 ,35.40137 
91 ,16.6500 ,0.81065 ,3.58059 ,35.13275 
92 ,16.8263 ,0.81240 ,3.54979 ,34.83054 
93 ,17.0022 ,0.81428 ,3.56006 ,34.93128 
94 ,17.1782 ,0.81595 ,3.53610 ,34.69623 
95 ,17.3704 ,0.81788 ,3.50530 ,34.39402 
96 ,17.5463 ,0.81963 ,3.49504 ,34.29329 
97 ,17.7225 ,0.82138 ,3.46766 ,34.02466 
98 ,17.8985 ,0.82314 ,3.47108 ,34.05824 
99 ,18.0745 ,0.82486 ,3.45055 ,33.85677 
100 ,18.2827 ,0.82697 ,3.41633 ,33.52099 
101 ,18.4589 ,0.82875 ,3.41290 ,33.48741 
102 ,18.6349 ,0.83050 ,3.40948 ,33.45383 
103 ,18.8269 ,0.83245 ,3.37526 ,33.11805 
104 ,19.0031 ,0.83429 ,3.35473 ,32.91658 
105 ,19.1792 ,0.83594 ,3.34446 ,32.81584 
106 ,19.3554 ,0.83774 ,3.33762 ,32.74869 
107 ,19.5313 ,0.83948 ,3.31708 ,32.54722 
108 ,19.7074 ,0.84123 ,3.28286 ,32.21143 
109 ,19.8996 ,0.84312 ,3.28628 ,32.24501 
110 ,20.0917 ,0.84509 ,3.25548 ,31.94281 
111 ,20.2675 ,0.84688 ,3.23495 ,31.74134 
112 ,20.4438 ,0.84863 ,3.21784 ,31.57345 
113 ,20.6356 ,0.85051 ,3.21442 ,31.53987 
114 ,20.8275 ,0.85239 ,3.17677 ,31.17051 
115 ,21.0039 ,0.85420 ,3.15966 ,31.00262 
116 ,21.1961 ,0.85614 ,3.16309 ,31.03619 
117 ,21.3721 ,0.85786 ,3.14255 ,30.83472 
118 ,21.5639 ,0.85983 ,3.13229 ,30.73399 
119 ,21.7562 ,0.86166 ,3.11175 ,30.53252 
120 ,21.9323 ,0.86344 ,3.08780 ,30.29747 
121 ,22.1085 ,0.86522 ,3.06384 ,30.06242 
122 ,22.3165 ,0.86717 ,3.05015 ,29.92811 
123 ,22.4926 ,0.86908 ,3.04673 ,29.89453 
124 ,22.6687 ,0.87080 ,3.00567 ,29.49159 
125 ,22.8446 ,0.87257 ,3.01593 ,29.59233 
126 ,23.0048 ,0.87427 ,3.00224 ,29.45801 
127 ,23.1808 ,0.87595 ,2.99540 ,29.39086 
128 ,23.3565 ,0.87764 ,2.97144 ,29.15581 
129 ,23.5330 ,0.87949 ,2.94064 ,28.85360 
130 ,23.7248 ,0.88133 ,2.93380 ,28.78645 
131 ,23.9010 ,0.88315 ,2.91669 ,28.61856 
132 ,24.0611 ,0.88487 ,2.89616 ,28.41709 
133 ,24.2374 ,0.88647 ,2.88589 ,28.31635 
134 ,24.4136 ,0.88829 ,2.85851 ,28.04772 
135 ,24.6215 ,0.89028 ,2.84482 ,27.91341 
136 ,24.7975 ,0.89211 ,2.83114 ,27.77910 
137 ,24.9895 ,0.89399 ,2.81745 ,27.64479 
138 ,25.1657 ,0.89577 ,2.80718 ,27.54405 
139 ,25.3417 ,0.89756 ,2.79691 ,27.44332 
140 ,25.5180 ,0.89928 ,2.75585 ,27.04038 
141 ,25.6940 ,0.90106 ,2.74900 ,26.97322 
142 ,25.8860 ,0.90300 ,2.75585 ,27.04038 
143 ,26.0620 ,0.90479 ,2.73531 ,26.83891 
144 ,26.2380 ,0.90650 ,2.70794 ,26.57028 
145 ,26.4143 ,0.90828 ,2.69425 ,26.43597 
146 ,26.6063 ,0.91027 ,2.68740 ,26.36881 
147 ,26.7983 ,0.91201 ,2.67714 ,26.26807 
148 ,26.9745 ,0.91384 ,2.63949 ,25.89871 
149 ,27.1502 ,0.91565 ,2.62581 ,25.76440 
150 ,27.3266 ,0.91737 ,2.61896 ,25.69724 
151 ,27.5187 ,0.91927 ,2.58132 ,25.32788 
152 ,27.6947 ,0.92104 ,2.58132 ,25.32788 
153 ,27.8708 ,0.92279 ,2.57105 ,25.22715 
154 ,28.0466 ,0.92457 ,2.56763 ,25.19357 
155 ,28.2226 ,0.92635 ,2.54367 ,24.95852 
156 ,28.3990 ,0.92814 ,2.52656 ,24.79063 
157 ,28.5910 ,0.92992 ,2.50603 ,24.58916 
158 ,28.7671 ,0.93176 ,2.50603 ,24.58916 
159 ,28.9432 ,0.93358 ,2.48207 ,24.35411 
160 ,29.1194 ,0.93530 ,2.47523 ,24.28696 
161 ,29.2949 ,0.93715 ,2.46496 ,24.18622 
162 ,29.4714 ,0.93883 ,2.44443 ,23.98475 
163 ,29.6476 ,0.94060 ,2.43074 ,23.85044 
164 ,29.8236 ,0.94237 ,2.42048 ,23.74970 
165 ,29.9998 ,0.94410 ,2.41363 ,23.68255 
166 ,30.1916 ,0.94595 ,2.39310 ,23.48108 
167 ,30.3674 ,0.94778 ,2.37941 ,23.34676 
168 ,30.5439 ,0.94955 ,2.34177 ,22.97740 
169 ,30.7359 ,0.95138 ,2.33492 ,22.91024 
170 ,30.9121 ,0.95327 ,2.32465 ,22.80951 
171 ,31.0880 ,0.95496 ,2.32123 ,22.77593 
172 ,31.2639 ,0.95678 ,2.30070 ,22.57446 
173 ,31.4399 ,0.95852 ,2.25963 ,22.17152 
174 ,31.6164 ,0.96027 ,2.24252 ,22.00363 
175 ,31.8242 ,0.96221 ,2.23910 ,21.97005 
176 ,32.0165 ,0.96414 ,2.22541 ,21.83574 
177 ,32.2084 ,0.96620 ,2.23226 ,21.90290 
178 ,32.3846 ,0.96799 ,2.20830 ,21.66785 
179 ,32.5606 ,0.96970 ,2.18777 ,21.46638 
180 ,32.7527 ,0.97167 ,2.16381 ,21.23133 
181 ,32.9289 ,0.97337 ,2.16381 ,21.23133 
182 ,33.1209 ,0.97531 ,2.12959 ,20.89555 
183 ,33.2970 ,0.97706 ,2.12617 ,20.86197 
184 ,33.4729 ,0.97885 ,2.12275 ,20.82839 
185 ,33.6650 ,0.98064 ,2.09879 ,20.59334 
186 ,33.8572 ,0.98273 ,2.07484 ,20.35829 
187 ,34.0494 ,0.98459 ,2.07826 ,20.39187 
188 ,34.2254 ,0.98636 ,2.05773 ,20.19040 
189 ,34.4015 ,0.98815 ,2.04061 ,20.02251 
190 ,34.5932 ,0.99004 ,2.03035 ,19.92178 
191 ,34.7697 ,0.99185 ,2.01666 ,19.78746 
192 ,34.9616 ,0.99370 ,1.98586 ,19.48526 
193 ,35.1377 ,0.99542 ,1.97559 ,19.38452 
194 ,35.3458 ,0.99745 ,1.95506 ,19.18305 
195 ,35.5380 ,0.99939 ,1.95506 ,19.18305 
196 ,35.7460 ,1.00140 ,1.93795 ,19.01516 
197 ,35.9378 ,1.00338 ,1.92084 ,18.84727 
198 ,36.1142 ,1.00520 ,1.91057 ,18.74654 
199 ,36.3063 ,1.00713 ,1.89346 ,18.57864 
200 ,36.4821 ,1.00885 ,1.87293 ,18.37717 
201 ,36.6583 ,1.01068 ,1.85924 ,18.24286 
202 ,36.8184 ,1.01236 ,1.86266 ,18.27644 
203 ,36.9945 ,1.01405 ,1.83871 ,18.04139 
204 ,37.1866 ,1.01596 ,1.82502 ,17.90708 
205 ,37.3625 ,1.01768 ,1.79422 ,17.60487 
206 ,37.5387 ,1.01944 ,1.79080 ,17.57129 
207 ,37.7146 ,1.02118 ,1.80106 ,17.67203 
208 ,37.9064 ,1.02309 ,1.78395 ,17.50414 
209 ,38.0665 ,1.02485 ,1.74973 ,17.16836 
210 ,38.2427 ,1.02648 ,1.72578 ,16.93331 
211 ,38.4509 ,1.02860 ,1.74289 ,17.10120 
212 ,38.6429 ,1.03049 ,1.71209 ,16.79899 
213 ,38.8191 ,1.03226 ,1.71209 ,16.79899 
214 ,38.9954 ,1.03402 ,1.69155 ,16.59752 
215 ,39.2034 ,1.03605 ,1.66418 ,16.32890 
216 ,39.3794 ,1.03790 ,1.66075 ,16.29532 
217 ,39.5554 ,1.03965 ,1.66075 ,16.29532 
218 ,39.7316 ,1.04139 ,1.63338 ,16.02669 
219 ,39.9076 ,1.04327 ,1.59916 ,15.69091 
220 ,40.0837 ,1.04486 ,1.61284 ,15.82522 
221 ,40.2758 ,1.04671 ,1.59231 ,15.62375 
222 ,40.4520 ,1.04858 ,1.57862 ,15.48944 
223 ,40.6439 ,1.05048 ,1.56493 ,15.35513 
224 ,40.8200 ,1.05228 ,1.55124 ,15.22081 
225 ,40.9961 ,1.05400 ,1.55124 ,15.22081 
226 ,41.1723 ,1.05578 ,1.52729 ,14.98577 
227 ,41.3483 ,1.05759 ,1.52387 ,14.95219 
228 ,41.5242 ,1.05940 ,1.51018 ,14.81787 
229 ,41.7001 ,1.06119 ,1.49649 ,14.68356 
230 ,41.8602 ,1.06278 ,1.49307 ,14.64998 
231 ,42.0201 ,1.06439 ,1.47253 ,14.44851 
232 ,42.1967 ,1.06609 ,1.47596 ,14.48209 
233 ,42.3888 ,1.06799 ,1.42462 ,13.97842 
234 ,42.5646 ,1.06970 ,1.41094 ,13.84410 
235 ,42.7409 ,1.07151 ,1.41436 ,13.87768 
236 ,42.9330 ,1.07340 ,1.39725 ,13.70979 
237 ,43.1090 ,1.07518 ,1.37329 ,13.47474 
238 ,43.2852 ,1.07689 ,1.35960 ,13.34043 
239 ,43.4611 ,1.07868 ,1.35276 ,13.27327 
240 ,43.6373 ,1.08040 ,1.35618 ,13.30685 
241 ,43.8133 ,1.08221 ,1.34934 ,13.23969 
242 ,43.9729 ,1.08393 ,1.32538 ,13.00465 
243 ,44.1334 ,1.08553 ,1.30485 ,12.80318 
244 ,44.3096 ,1.08715 ,1.29800 ,12.73602 
245 ,44.4857 ,1.08894 ,1.27063 ,12.46739 
246 ,44.6777 ,1.09078 ,1.28089 ,12.56813 
247 ,44.8538 ,1.09261 ,1.26036 ,12.36666 
248 ,45.0458 ,1.09448 ,1.25352 ,12.29950 
249 ,45.2218 ,1.09627 ,1.23983 ,12.16519 
250 ,45.3981 ,1.09804 ,1.22272 ,11.99730 
251 ,45.5740 ,1.09981 ,1.21245 ,11.89656 
252 ,45.7661 ,1.10159 ,1.19192 ,11.69509 
253 ,45.9424 ,1.10344 ,1.19192 ,11.69509 
254 ,46.1182 ,1.10524 ,1.17481 ,11.52720 
255 ,46.3104 ,1.10716 ,1.15770 ,11.35931 
256 ,46.4703 ,1.10889 ,1.13032 ,11.09068 
257 ,46.6627 ,1.11063 ,1.12347 ,11.02353 
258 ,46.8385 ,1.11245 ,1.13374 ,11.12426 
259 ,47.0143 ,1.11416 ,1.09610 ,10.75490 
260 ,47.1908 ,1.11595 ,1.08583 ,10.65416 
261 ,47.3666 ,1.11773 ,1.07214 ,10.51985 
262 ,47.5749 ,1.11980 ,1.07214 ,10.51985 
263 ,47.7670 ,1.12165 ,1.05161 ,10.31838 
264 ,47.9591 ,1.12364 ,1.04819 ,10.28480 
265 ,48.1352 ,1.12536 ,1.01396 ,9.94902 
266 ,48.3110 ,1.12716 ,1.00028 ,9.81471 
267 ,48.4872 ,1.12891 ,0.99685 ,9.78113 
268 ,48.6795 ,1.13071 ,0.99001 ,9.71397 
269 ,48.8715 ,1.13277 ,0.95579 ,9.37819 
270 ,49.0475 ,1.13450 ,0.96605 ,9.47892 
271 ,49.2397 ,1.13637 ,0.93525 ,9.17672 
272 ,49.4158 ,1.13828 ,0.91472 ,8.97525 
273 ,49.5915 ,1.13990 ,0.92499 ,9.07598 
274 ,49.7677 ,1.14169 ,0.91130 ,8.94167 
275 ,49.9438 ,1.14347 ,0.91814 ,9.00883 
276 ,50.1200 ,1.14517 ,0.87708 ,8.60589 
277 ,50.2961 ,1.14698 ,0.86681 ,8.50515 
278 ,50.4716 ,1.14887 ,0.86339 ,8.47158 
279 ,50.6479 ,1.15049 ,0.84970 ,8.33726 
280 ,50.8243 ,1.15229 ,0.83259 ,8.16937 
281 ,51.0003 ,1.15408 ,0.82575 ,8.10221 
282 ,51.1925 ,1.15591 ,0.80521 ,7.90074 
283 ,51.3844 ,1.15787 ,0.79837 ,7.83359 
284 ,51.5444 ,1.15959 ,0.76415 ,7.49780 
285 ,51.7206 ,1.16123 ,0.76072 ,7.46423 
286 ,51.8965 ,1.16298 ,0.74019 ,7.26276 
287 ,52.0728 ,1.16478 ,0.74704 ,7.32991 
288 ,52.2647 ,1.16663 ,0.72308 ,7.09486 
289 ,52.4409 ,1.16845 ,0.69913 ,6.85982 
290 ,52.6329 ,1.17034 ,0.69228 ,6.79266 
291 ,52.8571 ,1.17239 ,0.69228 ,6.79266 
292 ,53.0490 ,1.17451 ,0.68886 ,6.75908 
293 ,53.2253 ,1.17631 ,0.66148 ,6.49046 
294 ,53.4013 ,1.17804 ,0.65464 ,6.42330 
295 ,53.5770 ,1.17989 ,0.64095 ,6.28899 
296 ,53.7535 ,1.18160 ,0.61357 ,6.02036 
297 ,53.9455 ,1.18349 ,0.62042 ,6.08752 
298 ,54.1214 ,1.18523 ,0.58277 ,5.71815 
299 ,54.2976 ,1.18703 ,0.57935 ,5.68458 
300 ,54.4576 ,1.18871 ,0.57593 ,5.65100 
301 ,54.6175 ,1.19031 ,0.55539 ,5.44953 
302 ,54.7939 ,1.19195 ,0.55882 ,5.48311 
303 ,54.9858 ,1.19391 ,0.53144 ,5.21448 
304 ,55.1617 ,1.19569 ,0.52802 ,5.18090 
305 ,55.3541 ,1.19751 ,0.51775 ,5.08017 
306 ,55.5302 ,1.19934 ,0.51091 ,5.01301 
307 ,55.7222 ,1.20124 ,0.48011 ,4.71081 
308 ,55.8980 ,1.20299 ,0.46984 ,4.61007 
309 ,56.0742 ,1.20471 ,0.46300 ,4.54291 
310 ,56.2504 ,1.20652 ,0.45615 ,4.47576 
311 ,56.4266 ,1.20830 ,0.44246 ,4.34144 
312 ,56.6026 ,1.21005 ,0.43220 ,4.24071 
313 ,56.7782 ,1.21177 ,0.41509 ,4.07282 
314 ,56.9544 ,1.21350 ,0.41166 ,4.03924 
315 ,57.1308 ,1.21532 ,0.40824 ,4.00566 
316 ,57.3227 ,1.21723 ,0.36718 ,3.60272 
317 ,57.4989 ,1.21900 ,0.37402 ,3.66988 
318 ,57.6749 ,1.22078 ,0.37744 ,3.70346 
319 ,57.8511 ,1.22253 ,0.36718 ,3.60272 
320 ,58.0270 ,1.22429 ,0.33295 ,3.26694 
321 ,58.2191 ,1.22618 ,0.32611 ,3.19978 
322 ,58.4113 ,1.22801 ,0.32269 ,3.16620 
323 ,58.6034 ,1.23006 ,0.29873 ,2.93116 
324 ,58.7793 ,1.23178 ,0.30558 ,2.99831 
325 ,58.9554 ,1.23369 ,0.30215 ,2.96473 
326 ,59.1476 ,1.23545 ,0.26451 ,2.59537 
327 ,59.3237 ,1.23723 ,0.25424 ,2.49464 
328 ,59.5161 ,1.23914 ,0.25767 ,2.52822 
329 ,59.6917 ,1.24095 ,0.24398 ,2.39390 
330 ,59.8679 ,1.24265 ,0.22344 ,2.19243 
331 ,60.0760 ,1.24459 ,0.22344 ,2.19243 
332 ,60.2681 ,1.24668 ,0.19607 ,1.92381 
333 ,60.4442 ,1.24848 ,0.18580 ,1.82307 
334 ,60.6362 ,1.25034 ,0.18580 ,1.82307 
335 ,60.8124 ,1.25211 ,0.17211 ,1.68876 
336 ,60.9879 ,1.25401 ,0.15842 ,1.55445 
337 ,61.1483 ,1.25558 ,0.14131 ,1.38655 
338 ,61.3245 ,1.25719 ,0.13447 ,1.31940 
339 ,61.5165 ,1.25914 ,0.13447 ,1.31940 
340 ,61.6928 ,1.26089 ,0.10367 ,1.01719 
341 ,61.8688 ,1.26271 ,0.08998 ,0.88288 
342 ,62.0604 ,1.26463 ,0.10025 ,0.98361 
343 ,62.2369 ,1.26637 ,0.10709 ,1.05077 
344 ,62.4290 ,1.26828 ,0.05918 ,0.58067 
345 ,62.6049 ,1.27004 ,0.06260 ,0.61425 
346 ,62.7971 ,1.27195 ,0.05234 ,0.51352 
347 ,62.9891 ,1.27379 ,0.02838 ,0.27847 
348 ,63.1652 ,1.27561 ,0.01811 ,0.17773 
349 ,63.3572 ,1.27753 ,0.00443 ,0.04342 
350 ,63.5494 ,1.27940 ,-0.00242 ,-0.02373 
351 ,63.7256 ,1.28119 ,-0.01269 ,-0.12447 
352 ,63.9175 ,1.28309 ,-0.02637 ,-0.25878 
353 ,64.1092 ,1.28511 ,-0.05375 ,-0.52741 
354 ,64.3018 ,1.28689 ,-0.05375 ,-0.52741 
355 ,64.4939 ,1.28895 ,-0.05717 ,-0.56099 
356 ,64.6859 ,1.29083 ,-0.05717 ,-0.56099 
357 ,64.8780 ,1.29272 ,-0.08455 ,-0.82961 
358 ,65.0700 ,1.29467 ,-0.10508 ,-1.03108 
359 ,65.2298 ,1.29638 ,-0.10508 ,-1.03108 
360 ,65.4062 ,1.29801 ,-0.11535 ,-1.13182 
361 ,65.5984 ,1.29985 ,-0.11877 ,-1.16540 
362 ,65.7902 ,1.30185 ,-0.12904 ,-1.26613 
363 ,65.9824 ,1.30377 ,-0.14615 ,-1.43402 
364 ,66.1585 ,1.30563 ,-0.16668 ,-1.63549 
365 ,66.3345 ,1.30727 ,-0.18037 ,-1.76981 
366 ,66.5107 ,1.30909 ,-0.18722 ,-1.83696 
367 ,66.6867 ,1.31082 ,-0.19406 ,-1.90412 
368 ,66.8789 ,1.31270 ,-0.20433 ,-2.00485 
369 ,67.0710 ,1.31461 ,-0.21117 ,-2.07201 
370 ,67.2632 ,1.31660 ,-0.22486 ,-2.20632 
371 ,67.4391 ,1.31839 ,-0.24539 ,-2.40779 
372 ,67.6311 ,1.32028 ,-0.23170 ,-2.27348 
373 ,67.8072 ,1.32205 ,-0.24539 ,-2.40779 
374 ,67.9994 ,1.32384 ,-0.26250 ,-2.57569 
375 ,68.1913 ,1.32582 ,-0.26250 ,-2.57569 
376 ,68.3672 ,1.32767 ,-0.27961 ,-2.74358 
377 ,68.5595 ,1.32950 ,-0.30699 ,-3.01220 
378 ,68.7516 ,1.33148 ,-0.30357 ,-2.97863 
379 ,68.9277 ,1.33320 ,-0.30015 ,-2.94505 
380 ,69.1199 ,1.33505 ,-0.32410 ,-3.18010 
381 ,69.3118 ,1.33709 ,-0.31726 ,-3.11294 
382 ,69.4715 ,1.33878 ,-0.33779 ,-3.31441 
383 ,69.6478 ,1.34040 ,-0.34806 ,-3.41514 
384 ,69.8401 ,1.34238 ,-0.37201 ,-3.65019 
385 ,70.0163 ,1.34411 ,-0.38228 ,-3.75093 
386 ,70.1922 ,1.34585 ,-0.36859 ,-3.61661 
387 ,70.3682 ,1.34763 ,-0.36517 ,-3.58303 
388 ,70.5443 ,1.34938 ,-0.39939 ,-3.91882 
389 ,70.7206 ,1.35115 ,-0.40623 ,-3.98597 
390 ,70.9125 ,1.35306 ,-0.39255 ,-3.85166 
391 ,71.0885 ,1.35483 ,-0.40623 ,-3.98597 
392 ,71.2646 ,1.35659 ,-0.43703 ,-4.28818 
393 ,71.4406 ,1.35837 ,-0.43703 ,-4.28818 
394 ,71.6166 ,1.36006 ,-0.43703 ,-4.28818 
395 ,71.7929 ,1.36187 ,-0.45414 ,-4.45607 
396 ,71.9845 ,1.36379 ,-0.47468 ,-4.65754 
397 ,72.1609 ,1.36555 ,-0.48152 ,-4.72470 
398 ,72.3369 ,1.36730 ,-0.47468 ,-4.65754 
399 ,72.5134 ,1.36913 ,-0.48494 ,-4.75828 
400 ,72.6732 ,1.37082 ,-0.50206 ,-4.92617 
401 ,72.8493 ,1.37248 ,-0.50206 ,-4.92617 
402 ,73.0253 ,1.37418 ,-0.51574 ,-5.06048 
403 ,73.2015 ,1.37598 ,-0.53628 ,-5.26195 
404 ,73.3775 ,1.37775 ,-0.53285 ,-5.22837 
405 ,73.5532 ,1.37943 ,-0.53285 ,-5.22837 
406 ,73.7292 ,1.38122 ,-0.54312 ,-5.32911 
407 ,73.9219 ,1.38305 ,-0.56023 ,-5.49700 
408 ,74.1297 ,1.38514 ,-0.57392 ,-5.63131 
409 ,74.3054 ,1.38697 ,-0.58077 ,-5.69847 
410 ,74.4819 ,1.38874 ,-0.60472 ,-5.93352 
411 ,74.6580 ,1.39055 ,-0.60472 ,-5.93352 
412 ,74.8341 ,1.39224 ,-0.58761 ,-5.76562 
413 ,75.0259 ,1.39411 ,-0.59788 ,-5.86636 
414 ,75.2022 ,1.39595 ,-0.62525 ,-6.13499 
415 ,75.3783 ,1.39772 ,-0.62183 ,-6.10141 
416 ,75.5705 ,1.39953 ,-0.63552 ,-6.23572 
417 ,75.7622 ,1.40157 ,-0.64921 ,-6.37003 
418 ,75.9384 ,1.40331 ,-0.65947 ,-6.47077 
419 ,76.1306 ,1.40526 ,-0.66290 ,-6.50435 
420 ,76.3068 ,1.40698 ,-0.68343 ,-6.70582 
421 ,76.4988 ,1.40889 ,-0.67316 ,-6.60508 
422 ,76.6748 ,1.41070 ,-0.68685 ,-6.73940 
423 ,76.8505 ,1.41239 ,-0.69027 ,-6.77297 
424 ,77.0271 ,1.41419 ,-0.70396 ,-6.90729 
425 ,77.2031 ,1.41597 ,-0.72107 ,-7.07518 
426 ,77.3952 ,1.41781 ,-0.72792 ,-7.14233 
427 ,77.5710 ,1.41963 ,-0.73476 ,-7.20949 
428 ,77.7631 ,1.42148 ,-0.75187 ,-7.37738 
429 ,77.9393 ,1.42332 ,-0.75530 ,-7.41096 
430 ,78.1155 ,1.42505 ,-0.75530 ,-7.41096 
431 ,78.3075 ,1.42702 ,-0.76556 ,-7.51170 
432 ,78.4995 ,1.42890 ,-0.77241 ,-7.57885 
433 ,78.6916 ,1.43085 ,-0.79294 ,-7.78032 
434 ,78.8677 ,1.43263 ,-0.79636 ,-7.81390 
435 ,79.0277 ,1.43434 ,-0.79978 ,-7.84748 
436 ,79.2200 ,1.43609 ,-0.79978 ,-7.84748 
437 ,79.4120 ,1.43804 ,-0.82032 ,-8.04895 
438 ,79.6039 ,1.43995 ,-0.81689 ,-8.01537 
439 ,79.7800 ,1.44173 ,-0.82716 ,-8.11611 
440 ,79.9562 ,1.44346 ,-0.84085 ,-8.25042 
441 ,80.1484 ,1.44531 ,-0.84427 ,-8.28400 
442 ,80.3404 ,1.44734 ,-0.84427 ,-8.28400 
443 ,80.5323 ,1.44920 ,-0.87165 ,-8.55262 
444 ,80.7084 ,1.45097 ,-0.87849 ,-8.61978 
445 ,80.9006 ,1.45283 ,-0.86481 ,-8.48547 
446 ,81.0922 ,1.45483 ,-0.89560 ,-8.78767 
447 ,81.2685 ,1.45656 ,-0.89903 ,-8.82125 
448 ,81.4445 ,1.45837 ,-0.91614 ,-8.98914 
449 ,81.6366 ,1.46028 ,-0.90929 ,-8.92198 
450 ,81.8130 ,1.46203 ,-0.94351 ,-9.25777 
451 ,82.0047 ,1.46385 ,-0.92983 ,-9.12345 
452 ,82.1970 ,1.46588 ,-0.93325 ,-9.15703 
453 ,82.4048 ,1.46779 ,-0.94694 ,-9.29135 
454 ,82.5809 ,1.46968 ,-0.93667 ,-9.19061 
455 ,82.7571 ,1.47146 ,-0.94351 ,-9.25777 
456 ,82.9333 ,1.47320 ,-0.96747 ,-9.49282 
457 ,83.1093 ,1.47502 ,-0.98116 ,-9.62713 
458 ,83.2855 ,1.47675 ,-0.95720 ,-9.39208 
459 ,83.4615 ,1.47857 ,-0.98116 ,-9.62713 
460 ,83.6376 ,1.48037 ,-1.00511 ,-9.86218 
461 ,83.8136 ,1.48203 ,-1.00511 ,-9.86218 
462 ,83.9897 ,1.48378 ,-1.01538 ,-9.96291 
