Data stamp = , 01-04-2022 12:58:37 353

Calibration Values: 
Slope = , 26.54 , g/V 
Offset Voltage at no contact = , -0.501760 , V 

No , Time , Stage Position ,   Mass , Force 
   ,  (s) ,      (mm)      ,   (g)  , (mN)  

1 ,0.0000 ,0.64940 ,5.11030 ,50.14225 
2 ,0.2194 ,0.64949 ,5.11714 ,50.20940 
3 ,0.4430 ,0.65007 ,5.12056 ,50.24298 
4 ,0.6352 ,0.65110 ,5.11030 ,50.14225 
5 ,0.8111 ,0.65243 ,5.11030 ,50.14225 
6 ,1.0034 ,0.65421 ,5.13768 ,50.41087 
7 ,1.1955 ,0.65599 ,5.11372 ,50.17583 
8 ,1.3876 ,0.65791 ,5.13425 ,50.37729 
9 ,1.5958 ,0.66007 ,5.11372 ,50.17583 
10 ,1.7876 ,0.66201 ,5.13425 ,50.37729 
11 ,1.9637 ,0.66381 ,5.12056 ,50.24298 
12 ,2.1398 ,0.66551 ,5.10003 ,50.04151 
13 ,2.3156 ,0.66733 ,5.06923 ,49.73931 
14 ,2.4918 ,0.66906 ,5.06923 ,49.73931 
15 ,2.6841 ,0.67097 ,5.06239 ,49.67215 
16 ,2.8600 ,0.67271 ,5.04528 ,49.50426 
17 ,3.0363 ,0.67457 ,5.02474 ,49.30279 
18 ,3.2123 ,0.67631 ,5.01106 ,49.16848 
19 ,3.3881 ,0.67806 ,5.00079 ,49.06774 
20 ,3.5805 ,0.67988 ,4.98368 ,48.89985 
21 ,3.7725 ,0.68184 ,4.95288 ,48.59764 
22 ,3.9642 ,0.68370 ,4.95288 ,48.59764 
23 ,4.1407 ,0.68555 ,4.93235 ,48.39618 
24 ,4.3328 ,0.68749 ,4.92208 ,48.29544 
25 ,4.5088 ,0.68922 ,4.90155 ,48.09397 
26 ,4.6844 ,0.69100 ,4.89812 ,48.06039 
27 ,4.8769 ,0.69281 ,4.88101 ,47.89250 
28 ,5.0531 ,0.69469 ,4.85706 ,47.65745 
29 ,5.2451 ,0.69652 ,4.85706 ,47.65745 
30 ,5.4210 ,0.69837 ,4.82284 ,47.32167 
31 ,5.5812 ,0.70009 ,4.80915 ,47.18736 
32 ,5.7573 ,0.70167 ,4.79204 ,47.01946 
33 ,5.9334 ,0.70347 ,4.77493 ,46.85157 
34 ,6.1094 ,0.70521 ,4.76466 ,46.75084 
35 ,6.2855 ,0.70702 ,4.75439 ,46.65010 
36 ,6.4617 ,0.70871 ,4.73728 ,46.48221 
37 ,6.6373 ,0.71060 ,4.70648 ,46.18001 
38 ,6.8137 ,0.71223 ,4.69622 ,46.07927 
39 ,6.9898 ,0.71404 ,4.66884 ,45.81065 
40 ,7.1817 ,0.71586 ,4.67568 ,45.87780 
41 ,7.3581 ,0.71773 ,4.65173 ,45.64275 
42 ,7.5497 ,0.71962 ,4.61751 ,45.30697 
43 ,7.7260 ,0.72139 ,4.62093 ,45.34055 
44 ,7.9019 ,0.72322 ,4.57986 ,44.93761 
45 ,8.0783 ,0.72492 ,4.56960 ,44.83688 
46 ,8.2703 ,0.72684 ,4.57302 ,44.87045 
47 ,8.4623 ,0.72879 ,4.55249 ,44.66898 
48 ,8.6384 ,0.73047 ,4.52853 ,44.43394 
49 ,8.8144 ,0.73222 ,4.50457 ,44.19889 
50 ,8.9905 ,0.73404 ,4.49089 ,44.06457 
51 ,9.1667 ,0.73576 ,4.49431 ,44.09815 
52 ,9.3588 ,0.73763 ,4.45666 ,43.72879 
53 ,9.5509 ,0.73968 ,4.44298 ,43.59448 
54 ,9.7267 ,0.74140 ,4.42929 ,43.46016 
55 ,9.9191 ,0.74322 ,4.41902 ,43.35943 
56 ,10.1111 ,0.74520 ,4.38138 ,42.99007 
57 ,10.3191 ,0.74714 ,4.36084 ,42.78860 
58 ,10.5112 ,0.74914 ,4.35058 ,42.68786 
59 ,10.6873 ,0.75106 ,4.34031 ,42.58713 
60 ,10.8470 ,0.75268 ,4.33004 ,42.48639 
61 ,11.0236 ,0.75440 ,4.32662 ,42.45282 
62 ,11.1995 ,0.75612 ,4.29924 ,42.18419 
63 ,11.3915 ,0.75799 ,4.27187 ,41.91556 
64 ,11.5678 ,0.75979 ,4.24107 ,41.61336 
65 ,11.7596 ,0.76170 ,4.26160 ,41.81483 
66 ,11.9357 ,0.76345 ,4.20685 ,41.27758 
67 ,12.1116 ,0.76522 ,4.19316 ,41.14326 
68 ,12.3040 ,0.76714 ,4.18631 ,41.07611 
69 ,12.4800 ,0.76892 ,4.16236 ,40.84106 
70 ,12.6720 ,0.77080 ,4.12129 ,40.43812 
71 ,12.8482 ,0.77261 ,4.11787 ,40.40454 
72 ,13.0402 ,0.77446 ,4.11445 ,40.37096 
73 ,13.2484 ,0.77645 ,4.07338 ,39.96802 
74 ,13.4245 ,0.77835 ,4.05969 ,39.83371 
75 ,13.6165 ,0.78027 ,4.04258 ,39.66582 
76 ,13.7928 ,0.78204 ,4.02205 ,39.46435 
77 ,13.9683 ,0.78380 ,4.00152 ,39.26288 
78 ,14.1447 ,0.78559 ,3.98783 ,39.12856 
79 ,14.3369 ,0.78750 ,3.98098 ,39.06141 
80 ,14.5289 ,0.78932 ,3.96045 ,38.85994 
81 ,14.7047 ,0.79113 ,3.93650 ,38.62489 
82 ,14.8968 ,0.79294 ,3.91938 ,38.45700 
83 ,15.0727 ,0.79492 ,3.88516 ,38.12122 
84 ,15.2491 ,0.79654 ,3.87490 ,38.02048 
85 ,15.4413 ,0.79857 ,3.86805 ,37.95332 
86 ,15.6172 ,0.80030 ,3.83383 ,37.61754 
87 ,15.8415 ,0.80234 ,3.82356 ,37.51681 
88 ,16.0497 ,0.80456 ,3.78592 ,37.14744 
89 ,16.2256 ,0.80636 ,3.76196 ,36.91240 
90 ,16.4176 ,0.80826 ,3.75854 ,36.87882 
91 ,16.5940 ,0.81004 ,3.73459 ,36.64377 
92 ,16.7698 ,0.81183 ,3.71405 ,36.44230 
93 ,16.9460 ,0.81352 ,3.70379 ,36.34157 
94 ,17.1220 ,0.81530 ,3.69352 ,36.24083 
95 ,17.2983 ,0.81711 ,3.67299 ,36.03936 
96 ,17.4743 ,0.81883 ,3.65246 ,35.83789 
97 ,17.6502 ,0.82060 ,3.62166 ,35.53569 
98 ,17.8264 ,0.82234 ,3.62166 ,35.53569 
99 ,18.0020 ,0.82409 ,3.60454 ,35.36779 
100 ,18.1780 ,0.82587 ,3.58059 ,35.13275 
101 ,18.3381 ,0.82764 ,3.56348 ,34.96485 
102 ,18.5468 ,0.82936 ,3.52926 ,34.62907 
103 ,18.7387 ,0.83151 ,3.51899 ,34.52834 
104 ,18.9147 ,0.83321 ,3.49161 ,34.25971 
105 ,19.1065 ,0.83518 ,3.46424 ,33.99108 
106 ,19.2828 ,0.83688 ,3.48135 ,34.15898 
107 ,19.4750 ,0.83874 ,3.46424 ,33.99108 
108 ,19.6672 ,0.84078 ,3.42659 ,33.62172 
109 ,19.8432 ,0.84257 ,3.40264 ,33.38667 
110 ,20.0193 ,0.84429 ,3.40264 ,33.38667 
111 ,20.1953 ,0.84607 ,3.37526 ,33.11805 
112 ,20.3550 ,0.84776 ,3.34788 ,32.84942 
113 ,20.5315 ,0.84939 ,3.33762 ,32.74869 
114 ,20.7236 ,0.85134 ,3.33077 ,32.68153 
115 ,20.9316 ,0.85331 ,3.31024 ,32.48006 
116 ,21.1077 ,0.85525 ,3.28286 ,32.21143 
117 ,21.3001 ,0.85704 ,3.27944 ,32.17786 
118 ,21.4758 ,0.85882 ,3.25206 ,31.90923 
119 ,21.6520 ,0.86057 ,3.23153 ,31.70776 
120 ,21.8280 ,0.86233 ,3.21100 ,31.50629 
121 ,22.0041 ,0.86414 ,3.20757 ,31.47271 
122 ,22.1958 ,0.86604 ,3.18020 ,31.20409 
123 ,22.3722 ,0.86780 ,3.16309 ,31.03619 
124 ,22.5319 ,0.86948 ,3.14597 ,30.86830 
125 ,22.6920 ,0.87111 ,3.12886 ,30.70041 
126 ,22.8523 ,0.87271 ,3.11518 ,30.56610 
127 ,23.0285 ,0.87434 ,3.10833 ,30.49894 
128 ,23.2046 ,0.87612 ,3.09464 ,30.36463 
129 ,23.3807 ,0.87790 ,3.10149 ,30.43178 
130 ,23.5564 ,0.87959 ,3.07069 ,30.12958 
131 ,23.7327 ,0.88141 ,3.03989 ,29.82737 
132 ,23.9408 ,0.88332 ,3.03647 ,29.79380 
133 ,24.1167 ,0.88525 ,3.02278 ,29.65948 
134 ,24.3090 ,0.88710 ,2.98171 ,29.25654 
135 ,24.4850 ,0.88893 ,2.96802 ,29.12223 
136 ,24.6607 ,0.89067 ,2.98171 ,29.25654 
137 ,24.8372 ,0.89239 ,2.94749 ,28.92076 
138 ,25.0294 ,0.89430 ,2.93380 ,28.78645 
139 ,25.2214 ,0.89631 ,2.91327 ,28.58498 
140 ,25.3974 ,0.89803 ,2.90300 ,28.48424 
141 ,25.5735 ,0.89976 ,2.88931 ,28.34993 
142 ,25.7336 ,0.90148 ,2.86193 ,28.08130 
143 ,25.9097 ,0.90316 ,2.84482 ,27.91341 
144 ,26.0856 ,0.90489 ,2.84482 ,27.91341 
145 ,26.2618 ,0.90669 ,2.83456 ,27.81268 
146 ,26.4376 ,0.90839 ,2.81745 ,27.64479 
147 ,26.6139 ,0.91020 ,2.79349 ,27.40974 
148 ,26.7900 ,0.91198 ,2.76611 ,27.14111 
149 ,26.9659 ,0.91370 ,2.77296 ,27.20827 
150 ,27.1422 ,0.91548 ,2.75585 ,27.04038 
151 ,27.3182 ,0.91728 ,2.73189 ,26.80533 
152 ,27.4944 ,0.91900 ,2.72505 ,26.73817 
153 ,27.6702 ,0.92078 ,2.70794 ,26.57028 
154 ,27.8463 ,0.92247 ,2.67714 ,26.26807 
155 ,28.0226 ,0.92428 ,2.67714 ,26.26807 
156 ,28.1985 ,0.92603 ,2.66687 ,26.16734 
157 ,28.3745 ,0.92779 ,2.64292 ,25.93229 
158 ,28.5507 ,0.92954 ,2.63607 ,25.86514 
159 ,28.7427 ,0.93147 ,2.62581 ,25.76440 
160 ,28.9187 ,0.93327 ,2.60869 ,25.59651 
161 ,29.0951 ,0.93499 ,2.58474 ,25.36146 
162 ,29.2710 ,0.93679 ,2.56078 ,25.12641 
163 ,29.4472 ,0.93851 ,2.55736 ,25.09283 
164 ,29.6231 ,0.94028 ,2.54710 ,24.99210 
165 ,29.7995 ,0.94203 ,2.55052 ,25.02568 
166 ,29.9913 ,0.94400 ,2.50603 ,24.58916 
167 ,30.1674 ,0.94571 ,2.49576 ,24.48842 
168 ,30.3435 ,0.94747 ,2.49234 ,24.45485 
169 ,30.5196 ,0.94928 ,2.48207 ,24.35411 
170 ,30.7276 ,0.95126 ,2.44785 ,24.01833 
171 ,30.9037 ,0.95305 ,2.43759 ,23.91759 
172 ,31.0796 ,0.95484 ,2.43759 ,23.91759 
173 ,31.3038 ,0.95694 ,2.42048 ,23.74970 
174 ,31.4800 ,0.95884 ,2.39652 ,23.51465 
175 ,31.6560 ,0.96059 ,2.38625 ,23.41392 
176 ,31.8479 ,0.96253 ,2.35203 ,23.07814 
177 ,32.0238 ,0.96428 ,2.33492 ,22.91024 
178 ,32.2003 ,0.96605 ,2.33492 ,22.91024 
179 ,32.3763 ,0.96780 ,2.32465 ,22.80951 
180 ,32.5524 ,0.96961 ,2.30412 ,22.60804 
181 ,32.7605 ,0.97152 ,2.28359 ,22.40657 
182 ,32.9365 ,0.97340 ,2.27674 ,22.33941 
183 ,33.1125 ,0.97525 ,2.24252 ,22.00363 
184 ,33.2886 ,0.97696 ,2.22541 ,21.83574 
185 ,33.4648 ,0.97869 ,2.21515 ,21.73500 
186 ,33.6247 ,0.98040 ,2.21172 ,21.70143 
187 ,33.8009 ,0.98200 ,2.20830 ,21.66785 
188 ,33.9769 ,0.98376 ,2.18435 ,21.43280 
189 ,34.1526 ,0.98557 ,2.16381 ,21.23133 
190 ,34.3292 ,0.98730 ,2.15012 ,21.09702 
191 ,34.5211 ,0.98926 ,2.15012 ,21.09702 
192 ,34.6975 ,0.99098 ,2.12275 ,20.82839 
193 ,34.8734 ,0.99280 ,2.10906 ,20.69408 
194 ,35.0494 ,0.99451 ,2.08852 ,20.49261 
195 ,35.2255 ,0.99624 ,2.08168 ,20.42545 
196 ,35.4019 ,0.99805 ,2.07141 ,20.32472 
197 ,35.5777 ,0.99978 ,2.05773 ,20.19040 
198 ,35.7698 ,1.00172 ,2.03719 ,19.98893 
199 ,35.9618 ,1.00364 ,2.03035 ,19.92178 
200 ,36.1379 ,1.00539 ,2.01324 ,19.75388 
201 ,36.3139 ,1.00727 ,1.99270 ,19.55241 
202 ,36.5059 ,1.00901 ,1.97902 ,19.41810 
203 ,36.6820 ,1.01087 ,1.97902 ,19.41810 
204 ,36.8741 ,1.01272 ,1.93795 ,19.01516 
205 ,37.0503 ,1.01458 ,1.93795 ,19.01516 
206 ,37.2260 ,1.01634 ,1.90373 ,18.67938 
207 ,37.4027 ,1.01799 ,1.92426 ,18.88085 
208 ,37.5942 ,1.02000 ,1.89688 ,18.61222 
209 ,37.7705 ,1.02172 ,1.87293 ,18.37717 
210 ,37.9465 ,1.02352 ,1.86266 ,18.27644 
211 ,38.1227 ,1.02520 ,1.86266 ,18.27644 
212 ,38.2989 ,1.02701 ,1.85240 ,18.17570 
213 ,38.4908 ,1.02887 ,1.81475 ,17.80634 
214 ,38.6669 ,1.03080 ,1.81817 ,17.83992 
215 ,38.8590 ,1.03255 ,1.80791 ,17.73919 
216 ,39.0351 ,1.03434 ,1.78395 ,17.50414 
217 ,39.2271 ,1.03618 ,1.77711 ,17.43698 
218 ,39.4030 ,1.03801 ,1.76000 ,17.26909 
219 ,39.5794 ,1.03982 ,1.74289 ,17.10120 
220 ,39.7713 ,1.04169 ,1.72235 ,16.89973 
221 ,39.9472 ,1.04349 ,1.70524 ,16.73184 
222 ,40.1235 ,1.04527 ,1.70182 ,16.69826 
223 ,40.2995 ,1.04701 ,1.69498 ,16.63110 
224 ,40.4753 ,1.04871 ,1.66418 ,16.32890 
225 ,40.6517 ,1.05058 ,1.66075 ,16.29532 
226 ,40.8278 ,1.05225 ,1.64022 ,16.09385 
227 ,41.0198 ,1.05416 ,1.64707 ,16.16101 
228 ,41.1959 ,1.05594 ,1.61284 ,15.82522 
229 ,41.3721 ,1.05776 ,1.59916 ,15.69091 
230 ,41.5640 ,1.05963 ,1.59231 ,15.62375 
231 ,41.7401 ,1.06142 ,1.57862 ,15.48944 
232 ,41.9321 ,1.06329 ,1.54782 ,15.18724 
233 ,42.1083 ,1.06511 ,1.53071 ,15.01934 
234 ,42.3003 ,1.06699 ,1.52729 ,14.98577 
235 ,42.4765 ,1.06875 ,1.52387 ,14.95219 
236 ,42.6684 ,1.07068 ,1.50676 ,14.78430 
237 ,42.8606 ,1.07260 ,1.50676 ,14.78430 
238 ,43.0527 ,1.07441 ,1.48280 ,14.54925 
239 ,43.2286 ,1.07627 ,1.46227 ,14.34778 
240 ,43.4046 ,1.07799 ,1.45885 ,14.31420 
241 ,43.5806 ,1.07980 ,1.44174 ,14.14631 
242 ,43.7729 ,1.08167 ,1.41778 ,13.91126 
243 ,43.9810 ,1.08375 ,1.40751 ,13.81053 
244 ,44.1570 ,1.08556 ,1.39040 ,13.64263 
245 ,44.3330 ,1.08731 ,1.37671 ,13.50832 
246 ,44.5092 ,1.08909 ,1.35276 ,13.27327 
247 ,44.6850 ,1.09095 ,1.35618 ,13.30685 
248 ,44.8453 ,1.09257 ,1.35276 ,13.27327 
249 ,45.0214 ,1.09419 ,1.34249 ,13.17254 
250 ,45.1975 ,1.09594 ,1.31854 ,12.93749 
251 ,45.3736 ,1.09771 ,1.30485 ,12.80318 
252 ,45.5497 ,1.09952 ,1.28432 ,12.60171 
253 ,45.7254 ,1.10126 ,1.29116 ,12.66886 
254 ,45.9178 ,1.10312 ,1.26720 ,12.43381 
255 ,46.0938 ,1.10494 ,1.25009 ,12.26592 
256 ,46.2858 ,1.10677 ,1.25009 ,12.26592 
257 ,46.4457 ,1.10853 ,1.23641 ,12.13161 
258 ,46.6221 ,1.11018 ,1.22272 ,11.99730 
259 ,46.8137 ,1.11206 ,1.20561 ,11.82941 
260 ,46.9737 ,1.11384 ,1.18850 ,11.66151 
261 ,47.1338 ,1.11545 ,1.17138 ,11.49362 
262 ,47.3264 ,1.11722 ,1.19192 ,11.69509 
263 ,47.5345 ,1.11927 ,1.13716 ,11.15784 
264 ,47.7265 ,1.12130 ,1.14401 ,11.22500 
265 ,47.9185 ,1.12311 ,1.12690 ,11.05710 
266 ,48.0947 ,1.12493 ,1.10979 ,10.88921 
267 ,48.2867 ,1.12688 ,1.09952 ,10.78848 
268 ,48.4789 ,1.12870 ,1.08241 ,10.62059 
269 ,48.6708 ,1.13071 ,1.06872 ,10.48627 
270 ,48.8630 ,1.13255 ,1.06187 ,10.41912 
271 ,49.0551 ,1.13442 ,1.05845 ,10.38554 
272 ,49.2472 ,1.13638 ,1.03792 ,10.18407 
273 ,49.4231 ,1.13819 ,1.01739 ,9.98260 
274 ,49.5992 ,1.13994 ,1.01396 ,9.94902 
275 ,49.7911 ,1.14188 ,0.99343 ,9.74755 
276 ,49.9832 ,1.14374 ,0.99343 ,9.74755 
277 ,50.1596 ,1.14557 ,0.97290 ,9.54608 
278 ,50.3516 ,1.14746 ,0.95579 ,9.37819 
279 ,50.5437 ,1.14940 ,0.95579 ,9.37819 
280 ,50.7514 ,1.15141 ,0.93868 ,9.21030 
281 ,50.9274 ,1.15319 ,0.92841 ,9.10956 
282 ,51.1036 ,1.15497 ,0.92499 ,9.07598 
283 ,51.2796 ,1.15675 ,0.89419 ,8.77378 
284 ,51.4559 ,1.15848 ,0.87708 ,8.60589 
285 ,51.6481 ,1.16049 ,0.87023 ,8.53873 
286 ,51.8401 ,1.16230 ,0.85997 ,8.43800 
287 ,52.0163 ,1.16412 ,0.84970 ,8.33726 
288 ,52.1923 ,1.16590 ,0.83943 ,8.23653 
289 ,52.3838 ,1.16787 ,0.82232 ,8.06864 
290 ,52.5439 ,1.16953 ,0.80521 ,7.90074 
291 ,52.7361 ,1.17128 ,0.80179 ,7.86717 
292 ,52.9122 ,1.17306 ,0.78126 ,7.66570 
293 ,53.1047 ,1.17489 ,0.78468 ,7.69927 
294 ,53.2969 ,1.17690 ,0.76072 ,7.46423 
295 ,53.4887 ,1.17887 ,0.74704 ,7.32991 
296 ,53.6649 ,1.18059 ,0.75388 ,7.39707 
297 ,53.8407 ,1.18240 ,0.75046 ,7.36349 
298 ,54.0331 ,1.18419 ,0.71966 ,7.06129 
299 ,54.2088 ,1.18610 ,0.72650 ,7.12844 
300 ,54.3853 ,1.18785 ,0.70939 ,6.96055 
301 ,54.5934 ,1.18988 ,0.68886 ,6.75908 
302 ,54.7694 ,1.19161 ,0.68201 ,6.69193 
303 ,54.9614 ,1.19348 ,0.65806 ,6.45688 
304 ,55.1375 ,1.19533 ,0.65464 ,6.42330 
305 ,55.3295 ,1.19722 ,0.63410 ,6.22183 
306 ,55.5056 ,1.19894 ,0.63753 ,6.25541 
307 ,55.6813 ,1.20078 ,0.63068 ,6.18825 
308 ,55.8417 ,1.20247 ,0.60673 ,5.95320 
309 ,56.0178 ,1.20410 ,0.60330 ,5.91962 
310 ,56.1938 ,1.20584 ,0.57251 ,5.61742 
311 ,56.3699 ,1.20763 ,0.57593 ,5.65100 
312 ,56.5459 ,1.20938 ,0.57935 ,5.68458 
313 ,56.7382 ,1.21133 ,0.55882 ,5.48311 
314 ,56.9301 ,1.21315 ,0.53828 ,5.28164 
315 ,57.1222 ,1.21514 ,0.53144 ,5.21448 
316 ,57.2983 ,1.21690 ,0.51775 ,5.08017 
317 ,57.4745 ,1.21871 ,0.50064 ,4.91228 
318 ,57.6824 ,1.22067 ,0.50406 ,4.94585 
319 ,57.8587 ,1.22251 ,0.47668 ,4.67723 
320 ,58.0506 ,1.22438 ,0.47326 ,4.64365 
321 ,58.2267 ,1.22621 ,0.46984 ,4.61007 
322 ,58.4028 ,1.22792 ,0.45957 ,4.50934 
323 ,58.5789 ,1.22974 ,0.44931 ,4.40860 
324 ,58.7710 ,1.23166 ,0.43220 ,4.24071 
325 ,58.9631 ,1.23360 ,0.43220 ,4.24071 
326 ,59.1390 ,1.23531 ,0.40140 ,3.93850 
327 ,59.3312 ,1.23722 ,0.39797 ,3.90493 
328 ,59.5069 ,1.23897 ,0.39113 ,3.83777 
329 ,59.6831 ,1.24079 ,0.37744 ,3.70346 
330 ,59.8753 ,1.24267 ,0.36375 ,3.56914 
331 ,60.0513 ,1.24449 ,0.33980 ,3.33410 
332 ,60.2435 ,1.24637 ,0.35349 ,3.46841 
333 ,60.4195 ,1.24815 ,0.33980 ,3.33410 
334 ,60.6116 ,1.25003 ,0.32611 ,3.19978 
335 ,60.7874 ,1.25179 ,0.31584 ,3.09905 
336 ,60.9638 ,1.25357 ,0.30900 ,3.03189 
337 ,61.1397 ,1.25533 ,0.29189 ,2.86400 
338 ,61.3158 ,1.25720 ,0.27478 ,2.69611 
339 ,61.4922 ,1.25889 ,0.26451 ,2.59537 
340 ,61.6681 ,1.26063 ,0.26451 ,2.59537 
341 ,61.8601 ,1.26249 ,0.23371 ,2.29317 
342 ,62.0361 ,1.26431 ,0.23371 ,2.29317 
343 ,62.2442 ,1.26632 ,0.22687 ,2.22601 
344 ,62.4202 ,1.26812 ,0.21660 ,2.12528 
345 ,62.5963 ,1.26990 ,0.20291 ,1.99096 
346 ,62.7724 ,1.27163 ,0.19264 ,1.89023 
347 ,62.9645 ,1.27351 ,0.17896 ,1.75592 
348 ,63.1406 ,1.27532 ,0.17211 ,1.68876 
349 ,63.3326 ,1.27729 ,0.16869 ,1.65518 
350 ,63.5089 ,1.27895 ,0.16527 ,1.62160 
351 ,63.6849 ,1.28077 ,0.14473 ,1.42013 
352 ,63.8766 ,1.28262 ,0.11736 ,1.15151 
353 ,64.0690 ,1.28456 ,0.12762 ,1.25224 
354 ,64.2449 ,1.28634 ,0.10709 ,1.05077 
355 ,64.4211 ,1.28814 ,0.09682 ,0.95004 
356 ,64.6130 ,1.29002 ,0.08998 ,0.88288 
357 ,64.7889 ,1.29186 ,0.07287 ,0.71499 
358 ,64.9653 ,1.29355 ,0.07287 ,0.71499 
359 ,65.1573 ,1.29548 ,0.05234 ,0.51352 
360 ,65.3495 ,1.29730 ,0.04891 ,0.47994 
361 ,65.5415 ,1.29932 ,0.04207 ,0.41278 
362 ,65.7173 ,1.30110 ,0.01811 ,0.17773 
363 ,65.8937 ,1.30285 ,0.00443 ,0.04342 
364 ,66.0695 ,1.30460 ,0.00100 ,0.00984 
365 ,66.2458 ,1.30633 ,-0.00242 ,-0.02373 
366 ,66.4219 ,1.30814 ,-0.01269 ,-0.12447 
367 ,66.5978 ,1.30989 ,-0.03664 ,-0.35952 
368 ,66.7900 ,1.31180 ,-0.03322 ,-0.32594 
369 ,66.9660 ,1.31355 ,-0.02637 ,-0.25878 
370 ,67.1423 ,1.31528 ,-0.05033 ,-0.49383 
371 ,67.3182 ,1.31709 ,-0.06402 ,-0.62814 
372 ,67.5102 ,1.31893 ,-0.07086 ,-0.69530 
373 ,67.6863 ,1.32074 ,-0.07771 ,-0.76246 
374 ,67.8625 ,1.32250 ,-0.09140 ,-0.89677 
375 ,68.0385 ,1.32425 ,-0.11877 ,-1.16540 
376 ,68.2147 ,1.32606 ,-0.12562 ,-1.23255 
377 ,68.4068 ,1.32801 ,-0.11877 ,-1.16540 
378 ,68.5825 ,1.32976 ,-0.13588 ,-1.33329 
379 ,68.7749 ,1.33159 ,-0.14615 ,-1.43402 
380 ,68.9509 ,1.33340 ,-0.14615 ,-1.43402 
381 ,69.1428 ,1.33537 ,-0.15642 ,-1.53476 
382 ,69.3190 ,1.33719 ,-0.17011 ,-1.66907 
383 ,69.4952 ,1.33887 ,-0.18722 ,-1.83696 
384 ,69.6712 ,1.34059 ,-0.18722 ,-1.83696 
385 ,69.8472 ,1.34239 ,-0.20090 ,-1.97128 
386 ,70.0231 ,1.34416 ,-0.21459 ,-2.10559 
387 ,70.2155 ,1.34607 ,-0.23170 ,-2.27348 
388 ,70.4073 ,1.34798 ,-0.22828 ,-2.23990 
389 ,70.5835 ,1.34973 ,-0.24197 ,-2.37422 
390 ,70.7596 ,1.35149 ,-0.25566 ,-2.50853 
391 ,70.9357 ,1.35322 ,-0.26935 ,-2.64284 
392 ,71.1118 ,1.35503 ,-0.26935 ,-2.64284 
393 ,71.3041 ,1.35687 ,-0.28304 ,-2.77716 
394 ,71.4958 ,1.35884 ,-0.30015 ,-2.94505 
395 ,71.6721 ,1.36061 ,-0.30357 ,-2.97863 
396 ,71.8480 ,1.36233 ,-0.31041 ,-3.04578 
397 ,72.0402 ,1.36417 ,-0.31726 ,-3.11294 
398 ,72.2319 ,1.36618 ,-0.32410 ,-3.18010 
399 ,72.3923 ,1.36792 ,-0.32068 ,-3.14652 
400 ,72.5683 ,1.36952 ,-0.33779 ,-3.31441 
401 ,72.7444 ,1.37128 ,-0.36175 ,-3.54946 
402 ,72.9203 ,1.37308 ,-0.37886 ,-3.71735 
403 ,73.1124 ,1.37494 ,-0.36859 ,-3.61661 
404 ,73.2883 ,1.37671 ,-0.38228 ,-3.75093 
405 ,73.4647 ,1.37853 ,-0.40623 ,-3.98597 
406 ,73.6408 ,1.38031 ,-0.41308 ,-4.05313 
407 ,73.8328 ,1.38220 ,-0.41992 ,-4.12029 
408 ,74.0089 ,1.38399 ,-0.41650 ,-4.08671 
409 ,74.1851 ,1.38574 ,-0.43019 ,-4.22102 
410 ,74.3611 ,1.38759 ,-0.44388 ,-4.35534 
411 ,74.5371 ,1.38920 ,-0.46783 ,-4.59038 
412 ,74.7132 ,1.39097 ,-0.45757 ,-4.48965 
413 ,74.8893 ,1.39275 ,-0.46441 ,-4.55681 
414 ,75.0650 ,1.39453 ,-0.48494 ,-4.75828 
415 ,75.2416 ,1.39629 ,-0.50548 ,-4.95975 
416 ,75.4335 ,1.39818 ,-0.49863 ,-4.89259 
417 ,75.6097 ,1.39997 ,-0.50548 ,-4.95975 
418 ,75.7855 ,1.40170 ,-0.52259 ,-5.12764 
419 ,75.9618 ,1.40350 ,-0.53285 ,-5.22837 
420 ,76.1540 ,1.40542 ,-0.52601 ,-5.16121 
421 ,76.3300 ,1.40720 ,-0.53628 ,-5.26195 
422 ,76.5059 ,1.40887 ,-0.54654 ,-5.36268 
423 ,76.6983 ,1.41087 ,-0.55339 ,-5.42984 
424 ,76.8742 ,1.41260 ,-0.57050 ,-5.59773 
425 ,77.0663 ,1.41447 ,-0.58419 ,-5.73205 
426 ,77.2582 ,1.41644 ,-0.58419 ,-5.73205 
427 ,77.4344 ,1.41817 ,-0.58761 ,-5.76562 
428 ,77.6106 ,1.41999 ,-0.60130 ,-5.89994 
429 ,77.8025 ,1.42186 ,-0.61841 ,-6.06783 
430 ,77.9786 ,1.42365 ,-0.62183 ,-6.10141 
431 ,78.1708 ,1.42546 ,-0.62868 ,-6.16856 
432 ,78.3465 ,1.42733 ,-0.64236 ,-6.30288 
433 ,78.5224 ,1.42908 ,-0.65263 ,-6.40361 
434 ,78.6824 ,1.43080 ,-0.66290 ,-6.50435 
435 ,78.8586 ,1.43243 ,-0.66974 ,-6.57150 
436 ,79.0672 ,1.43457 ,-0.67316 ,-6.60508 
437 ,79.2591 ,1.43647 ,-0.68343 ,-6.70582 
438 ,79.4350 ,1.43821 ,-0.67659 ,-6.63866 
439 ,79.6110 ,1.43998 ,-0.69370 ,-6.80655 
440 ,79.7874 ,1.44173 ,-0.70739 ,-6.94086 
441 ,79.9635 ,1.44351 ,-0.71081 ,-6.97444 
442 ,80.1396 ,1.44521 ,-0.73134 ,-7.17591 
443 ,80.3317 ,1.44719 ,-0.72450 ,-7.10876 
444 ,80.5237 ,1.44903 ,-0.75187 ,-7.37738 
445 ,80.7158 ,1.45101 ,-0.74503 ,-7.31023 
446 ,80.9077 ,1.45295 ,-0.75872 ,-7.44454 
447 ,81.0840 ,1.45468 ,-0.76556 ,-7.51170 
448 ,81.2601 ,1.45643 ,-0.78267 ,-7.67959 
449 ,81.4361 ,1.45821 ,-0.76898 ,-7.54527 
450 ,81.6281 ,1.46000 ,-0.78610 ,-7.71317 
451 ,81.8203 ,1.46203 ,-0.79978 ,-7.84748 
452 ,82.0119 ,1.46401 ,-0.80663 ,-7.91464 
453 ,82.1884 ,1.46573 ,-0.81347 ,-7.98179 
454 ,82.3803 ,1.46764 ,-0.82716 ,-8.11611 
455 ,82.5401 ,1.46938 ,-0.82716 ,-8.11611 
456 ,82.7003 ,1.47098 ,-0.83401 ,-8.18326 
457 ,82.8606 ,1.47254 ,-0.84769 ,-8.31758 
458 ,83.0365 ,1.47420 ,-0.84769 ,-8.31758 
459 ,83.2128 ,1.47598 ,-0.85796 ,-8.41831 
460 ,83.4050 ,1.47786 ,-0.87507 ,-8.58620 
461 ,83.5811 ,1.47968 ,-0.88534 ,-8.68694 
462 ,83.7729 ,1.48156 ,-0.88534 ,-8.68694 
463 ,83.9490 ,1.48328 ,-0.90587 ,-8.88841 
