Data stamp = , 04-04-2022 07:07:55 287

Calibration Values: 
Slope = , 26.54 , g/V 
Offset Voltage at no contact = , -0.501760 , V 

No , Time , Stage Position ,   Mass , Force 
   ,  (s) ,      (mm)      ,   (g)  , (mN)  

1 ,0.0000 ,0.59943 ,5.09661 ,50.00793 
2 ,0.2052 ,0.59948 ,5.11372 ,50.17583 
3 ,0.4938 ,0.60029 ,5.11372 ,50.17583 
4 ,0.7019 ,0.60158 ,5.10688 ,50.10867 
5 ,0.8939 ,0.60317 ,5.10688 ,50.10867 
6 ,1.0856 ,0.60503 ,5.11030 ,50.14225 
7 ,1.2777 ,0.60680 ,5.12741 ,50.31014 
8 ,1.4542 ,0.60866 ,5.10688 ,50.10867 
9 ,1.6461 ,0.61061 ,5.10003 ,50.04151 
10 ,1.8223 ,0.61238 ,5.10003 ,50.04151 
11 ,1.9984 ,0.61418 ,5.07265 ,49.77289 
12 ,2.1744 ,0.61596 ,5.06923 ,49.73931 
13 ,2.3504 ,0.61767 ,5.04870 ,49.53784 
14 ,2.5585 ,0.61967 ,5.04185 ,49.47068 
15 ,2.7507 ,0.62174 ,5.03843 ,49.43710 
16 ,2.9269 ,0.62341 ,5.02817 ,49.33637 
17 ,3.1029 ,0.62523 ,5.02132 ,49.26921 
18 ,3.2945 ,0.62714 ,4.99737 ,49.03416 
19 ,3.4710 ,0.62889 ,4.98710 ,48.93343 
20 ,3.6468 ,0.63060 ,4.97341 ,48.79911 
21 ,3.8228 ,0.63240 ,4.96999 ,48.76554 
22 ,3.9991 ,0.63417 ,4.94261 ,48.49691 
23 ,4.1748 ,0.63593 ,4.92550 ,48.32902 
24 ,4.3510 ,0.63767 ,4.91866 ,48.26186 
25 ,4.5590 ,0.63971 ,4.90155 ,48.09397 
26 ,4.7189 ,0.64150 ,4.86732 ,47.75819 
27 ,4.8792 ,0.64307 ,4.86048 ,47.69103 
28 ,5.0555 ,0.64469 ,4.85021 ,47.59030 
29 ,5.2315 ,0.64646 ,4.83995 ,47.48956 
30 ,5.4077 ,0.64826 ,4.81599 ,47.25451 
31 ,5.5995 ,0.65011 ,4.80573 ,47.15378 
32 ,5.7759 ,0.65189 ,4.78519 ,46.95231 
33 ,5.9680 ,0.65377 ,4.78519 ,46.95231 
34 ,6.1440 ,0.65559 ,4.75782 ,46.68368 
35 ,6.3201 ,0.65739 ,4.73386 ,46.44863 
36 ,6.4962 ,0.65912 ,4.72017 ,46.31432 
37 ,6.6722 ,0.66099 ,4.70648 ,46.18001 
38 ,6.8481 ,0.66265 ,4.69279 ,46.04569 
39 ,7.0244 ,0.66440 ,4.68595 ,45.97854 
40 ,7.2005 ,0.66618 ,4.65857 ,45.70991 
41 ,7.3763 ,0.66790 ,4.63462 ,45.47486 
42 ,7.5687 ,0.66973 ,4.62093 ,45.34055 
43 ,7.7444 ,0.67176 ,4.59355 ,45.07192 
44 ,7.9204 ,0.67332 ,4.56617 ,44.80330 
45 ,8.1130 ,0.67517 ,4.55249 ,44.66898 
46 ,8.3047 ,0.67721 ,4.55933 ,44.73614 
47 ,8.4810 ,0.67896 ,4.52511 ,44.40036 
48 ,8.6730 ,0.68090 ,4.50115 ,44.16531 
49 ,8.8490 ,0.68269 ,4.47035 ,43.86310 
50 ,9.0411 ,0.68454 ,4.45666 ,43.72879 
51 ,9.2172 ,0.68635 ,4.43613 ,43.52732 
52 ,9.3933 ,0.68813 ,4.43271 ,43.49374 
53 ,9.5694 ,0.68982 ,4.41902 ,43.35943 
54 ,9.7615 ,0.69173 ,4.38480 ,43.02365 
55 ,9.9536 ,0.69365 ,4.37795 ,42.95649 
56 ,10.1616 ,0.69569 ,4.35742 ,42.75502 
57 ,10.3376 ,0.69756 ,4.32662 ,42.45282 
58 ,10.5138 ,0.69928 ,4.31978 ,42.38566 
59 ,10.6899 ,0.70106 ,4.31636 ,42.35208 
60 ,10.8816 ,0.70298 ,4.27529 ,41.94914 
61 ,11.0580 ,0.70477 ,4.24449 ,41.64694 
62 ,11.2499 ,0.70665 ,4.24791 ,41.68051 
63 ,11.4261 ,0.70840 ,4.23080 ,41.51262 
64 ,11.6024 ,0.71019 ,4.20000 ,41.21042 
65 ,11.7781 ,0.71199 ,4.17947 ,41.00895 
66 ,11.9540 ,0.71368 ,4.17947 ,41.00895 
67 ,12.1304 ,0.71549 ,4.16236 ,40.84106 
68 ,12.3224 ,0.71739 ,4.12471 ,40.47170 
69 ,12.4986 ,0.71913 ,4.10760 ,40.30380 
70 ,12.6745 ,0.72089 ,4.10418 ,40.27023 
71 ,12.8506 ,0.72263 ,4.08707 ,40.10233 
72 ,13.0424 ,0.72458 ,4.06996 ,39.93444 
73 ,13.2189 ,0.72630 ,4.02547 ,39.49793 
74 ,13.4107 ,0.72822 ,4.04600 ,39.69940 
75 ,13.6190 ,0.73026 ,3.99467 ,39.19572 
76 ,13.7950 ,0.73212 ,3.98783 ,39.12856 
77 ,13.9711 ,0.73391 ,3.97756 ,39.02783 
78 ,14.1468 ,0.73567 ,3.96729 ,38.92709 
79 ,14.3392 ,0.73745 ,3.92965 ,38.55773 
80 ,14.5157 ,0.73929 ,3.90912 ,38.35626 
81 ,14.7072 ,0.74121 ,3.89885 ,38.25553 
82 ,14.8835 ,0.74297 ,3.88516 ,38.12122 
83 ,15.0594 ,0.74471 ,3.85094 ,37.78543 
84 ,15.2354 ,0.74644 ,3.86121 ,37.88617 
85 ,15.4273 ,0.74834 ,3.82699 ,37.55038 
86 ,15.6196 ,0.75026 ,3.81330 ,37.41607 
87 ,15.8118 ,0.75227 ,3.78934 ,37.18102 
88 ,15.9877 ,0.75398 ,3.78934 ,37.18102 
89 ,16.1639 ,0.75577 ,3.75854 ,36.87882 
90 ,16.3397 ,0.75752 ,3.74828 ,36.77808 
91 ,16.5162 ,0.75926 ,3.73117 ,36.61019 
92 ,16.6921 ,0.76106 ,3.71063 ,36.40872 
93 ,16.8682 ,0.76284 ,3.70721 ,36.37514 
94 ,17.0444 ,0.76459 ,3.68325 ,36.14010 
95 ,17.2363 ,0.76646 ,3.66614 ,35.97220 
96 ,17.4282 ,0.76832 ,3.65930 ,35.90505 
97 ,17.6045 ,0.77019 ,3.63534 ,35.67000 
98 ,17.7805 ,0.77191 ,3.60112 ,35.33422 
99 ,17.9728 ,0.77386 ,3.60797 ,35.40137 
100 ,18.1488 ,0.77559 ,3.59770 ,35.30064 
101 ,18.3247 ,0.77736 ,3.56348 ,34.96485 
102 ,18.5009 ,0.77914 ,3.54637 ,34.79696 
103 ,18.6770 ,0.78091 ,3.53268 ,34.66265 
104 ,18.8691 ,0.78278 ,3.51899 ,34.52834 
105 ,19.0452 ,0.78456 ,3.51215 ,34.46118 
106 ,19.2213 ,0.78629 ,3.49161 ,34.25971 
107 ,19.3973 ,0.78810 ,3.48135 ,34.15898 
108 ,19.5731 ,0.78981 ,3.47108 ,34.05824 
109 ,19.7495 ,0.79158 ,3.44713 ,33.82319 
110 ,19.9575 ,0.79351 ,3.43001 ,33.65530 
111 ,20.1334 ,0.79543 ,3.42659 ,33.62172 
112 ,20.3096 ,0.79722 ,3.40606 ,33.42025 
113 ,20.4857 ,0.79894 ,3.38553 ,33.21878 
114 ,20.6618 ,0.80075 ,3.36157 ,32.98374 
115 ,20.8540 ,0.80269 ,3.36499 ,33.01731 
116 ,21.0780 ,0.80473 ,3.34104 ,32.78227 
117 ,21.2542 ,0.80666 ,3.32735 ,32.64795 
118 ,21.4458 ,0.80862 ,3.29655 ,32.34575 
119 ,21.6060 ,0.81027 ,3.27944 ,32.17786 
120 ,21.7823 ,0.81193 ,3.25891 ,31.97639 
121 ,21.9742 ,0.81386 ,3.26233 ,32.00996 
122 ,22.1504 ,0.81558 ,3.24180 ,31.80849 
123 ,22.3266 ,0.81737 ,3.22126 ,31.60702 
124 ,22.5025 ,0.81918 ,3.18704 ,31.27124 
125 ,22.6784 ,0.82088 ,3.21100 ,31.50629 
126 ,22.8548 ,0.82267 ,3.18704 ,31.27124 
127 ,23.0468 ,0.82457 ,3.16993 ,31.10335 
128 ,23.2065 ,0.82630 ,3.13571 ,30.76757 
129 ,23.3826 ,0.82796 ,3.12886 ,30.70041 
130 ,23.5586 ,0.82968 ,3.13229 ,30.73399 
131 ,23.7350 ,0.83149 ,3.11175 ,30.53252 
132 ,23.9432 ,0.83347 ,3.07753 ,30.19674 
133 ,24.1512 ,0.83559 ,3.07753 ,30.19674 
134 ,24.3274 ,0.83735 ,3.05015 ,29.92811 
135 ,24.5031 ,0.83917 ,3.03989 ,29.82737 
136 ,24.6955 ,0.84102 ,3.02620 ,29.69306 
137 ,24.8712 ,0.84280 ,3.02620 ,29.69306 
138 ,25.0476 ,0.84457 ,2.99198 ,29.35728 
139 ,25.2237 ,0.84634 ,2.96802 ,29.12223 
140 ,25.3838 ,0.84806 ,2.96802 ,29.12223 
141 ,25.5598 ,0.84965 ,2.96118 ,29.05507 
142 ,25.7361 ,0.85143 ,2.95433 ,28.98792 
143 ,25.9118 ,0.85333 ,2.92696 ,28.71929 
144 ,26.0718 ,0.85494 ,2.90300 ,28.48424 
145 ,26.2641 ,0.85671 ,2.89958 ,28.45066 
146 ,26.4399 ,0.85850 ,2.88931 ,28.34993 
147 ,26.6164 ,0.86023 ,2.86878 ,28.14846 
148 ,26.8082 ,0.86209 ,2.86193 ,28.08130 
149 ,26.9842 ,0.86392 ,2.82771 ,27.74552 
150 ,27.1605 ,0.86569 ,2.82429 ,27.71194 
151 ,27.3525 ,0.86762 ,2.81402 ,27.61121 
152 ,27.5287 ,0.86934 ,2.78322 ,27.30900 
153 ,27.7207 ,0.87128 ,2.78322 ,27.30900 
154 ,27.8969 ,0.87306 ,2.75585 ,27.04038 
155 ,28.0889 ,0.87496 ,2.73874 ,26.87248 
156 ,28.2650 ,0.87675 ,2.71820 ,26.67101 
157 ,28.4567 ,0.87863 ,2.72505 ,26.73817 
158 ,28.6331 ,0.88044 ,2.69767 ,26.46954 
159 ,28.8251 ,0.88240 ,2.70109 ,26.50312 
160 ,29.0174 ,0.88412 ,2.67029 ,26.20092 
161 ,29.2092 ,0.88612 ,2.63265 ,25.83156 
162 ,29.4014 ,0.88805 ,2.63949 ,25.89871 
163 ,29.5774 ,0.88979 ,2.63265 ,25.83156 
164 ,29.7695 ,0.89167 ,2.59843 ,25.49577 
165 ,29.9456 ,0.89354 ,2.58474 ,25.36146 
166 ,30.1375 ,0.89548 ,2.58816 ,25.39504 
167 ,30.3137 ,0.89721 ,2.57105 ,25.22715 
168 ,30.4899 ,0.89899 ,2.54367 ,24.95852 
169 ,30.6817 ,0.90087 ,2.54710 ,24.99210 
170 ,30.8740 ,0.90282 ,2.51287 ,24.65632 
171 ,31.0658 ,0.90466 ,2.49918 ,24.52200 
172 ,31.2420 ,0.90647 ,2.49576 ,24.48842 
173 ,31.4340 ,0.90839 ,2.47181 ,24.25338 
174 ,31.6262 ,0.91030 ,2.45812 ,24.11906 
175 ,31.8023 ,0.91212 ,2.44101 ,23.95117 
176 ,31.9783 ,0.91383 ,2.43074 ,23.85044 
177 ,32.1545 ,0.91564 ,2.41363 ,23.68255 
178 ,32.3303 ,0.91740 ,2.40336 ,23.58181 
179 ,32.5227 ,0.91927 ,2.39310 ,23.48108 
180 ,32.7147 ,0.92119 ,2.35545 ,23.11171 
181 ,32.8909 ,0.92298 ,2.33492 ,22.91024 
182 ,33.0828 ,0.92485 ,2.33834 ,22.94382 
183 ,33.2589 ,0.92664 ,2.32465 ,22.80951 
184 ,33.4346 ,0.92840 ,2.31097 ,22.67520 
185 ,33.6270 ,0.93024 ,2.29043 ,22.47373 
186 ,33.8192 ,0.93227 ,2.29385 ,22.50731 
187 ,33.9951 ,0.93402 ,2.25621 ,22.13794 
188 ,34.1711 ,0.93577 ,2.23910 ,21.97005 
189 ,34.3471 ,0.93753 ,2.22883 ,21.86932 
190 ,34.5233 ,0.93928 ,2.23226 ,21.90290 
191 ,34.6995 ,0.94104 ,2.21857 ,21.76858 
192 ,34.8755 ,0.94285 ,2.18092 ,21.39922 
193 ,35.0517 ,0.94458 ,2.17750 ,21.36564 
194 ,35.2274 ,0.94632 ,2.16381 ,21.23133 
195 ,35.4199 ,0.94820 ,2.15697 ,21.16417 
196 ,35.5957 ,0.94999 ,2.13301 ,20.92912 
197 ,35.7719 ,0.95177 ,2.12275 ,20.82839 
198 ,35.9480 ,0.95355 ,2.10906 ,20.69408 
199 ,36.1240 ,0.95528 ,2.10906 ,20.69408 
200 ,36.2998 ,0.95705 ,2.07484 ,20.35829 
201 ,36.4761 ,0.95882 ,2.05430 ,20.15682 
202 ,36.6362 ,0.96054 ,2.04746 ,20.08967 
203 ,36.8123 ,0.96215 ,2.03719 ,19.98893 
204 ,36.9885 ,0.96395 ,2.02693 ,19.88820 
205 ,37.1966 ,0.96597 ,2.01324 ,19.75388 
206 ,37.3725 ,0.96777 ,1.98586 ,19.48526 
207 ,37.5487 ,0.96958 ,1.98244 ,19.45168 
208 ,37.7408 ,0.97137 ,1.97902 ,19.41810 
209 ,37.9327 ,0.97333 ,1.94137 ,19.04874 
210 ,38.1088 ,0.97512 ,1.94137 ,19.04874 
211 ,38.3009 ,0.97701 ,1.92084 ,18.84727 
212 ,38.4771 ,0.97879 ,1.90031 ,18.64580 
213 ,38.6532 ,0.98056 ,1.89004 ,18.54507 
214 ,38.8450 ,0.98245 ,1.88662 ,18.51149 
215 ,39.0533 ,0.98456 ,1.86608 ,18.31002 
216 ,39.2293 ,0.98633 ,1.84555 ,18.10855 
217 ,39.4215 ,0.98815 ,1.85240 ,18.17570 
218 ,39.6137 ,0.99021 ,1.81475 ,17.80634 
219 ,39.8056 ,0.99211 ,1.82502 ,17.90708 
220 ,39.9816 ,0.99383 ,1.80791 ,17.73919 
221 ,40.1577 ,0.99558 ,1.77369 ,17.40340 
222 ,40.3336 ,0.99738 ,1.76000 ,17.26909 
223 ,40.5096 ,0.99915 ,1.74973 ,17.16836 
224 ,40.6860 ,1.00089 ,1.75315 ,17.20193 
225 ,40.8941 ,1.00293 ,1.72578 ,16.93331 
226 ,41.0861 ,1.00490 ,1.72235 ,16.89973 
227 ,41.2622 ,1.00670 ,1.70182 ,16.69826 
228 ,41.4542 ,1.00857 ,1.67102 ,16.39605 
229 ,41.6306 ,1.01033 ,1.67102 ,16.39605 
230 ,41.8224 ,1.01227 ,1.66075 ,16.29532 
231 ,41.9984 ,1.01408 ,1.64707 ,16.16101 
232 ,42.1907 ,1.01593 ,1.62653 ,15.95954 
233 ,42.3666 ,1.01771 ,1.61284 ,15.82522 
234 ,42.5265 ,1.01939 ,1.59573 ,15.65733 
235 ,42.7188 ,1.02121 ,1.57862 ,15.48944 
236 ,42.9112 ,1.02315 ,1.57862 ,15.48944 
237 ,43.1029 ,1.02504 ,1.53413 ,15.05292 
238 ,43.2951 ,1.02701 ,1.53413 ,15.05292 
239 ,43.4871 ,1.02892 ,1.53413 ,15.05292 
240 ,43.6632 ,1.03062 ,1.52045 ,14.91861 
241 ,43.8394 ,1.03246 ,1.48965 ,14.61640 
242 ,44.0150 ,1.03419 ,1.46569 ,14.38136 
243 ,44.2073 ,1.03602 ,1.47938 ,14.51567 
244 ,44.3996 ,1.03804 ,1.45200 ,14.24704 
245 ,44.5914 ,1.03985 ,1.44858 ,14.21346 
246 ,44.7835 ,1.04186 ,1.44858 ,14.21346 
247 ,44.9753 ,1.04371 ,1.40067 ,13.74337 
248 ,45.1517 ,1.04550 ,1.39383 ,13.67621 
249 ,45.3437 ,1.04739 ,1.39725 ,13.70979 
250 ,45.5201 ,1.04919 ,1.35618 ,13.30685 
251 ,45.7119 ,1.05115 ,1.36645 ,13.40759 
252 ,45.8880 ,1.05285 ,1.35276 ,13.27327 
253 ,46.0641 ,1.05463 ,1.33565 ,13.10538 
254 ,46.2242 ,1.05635 ,1.30485 ,12.80318 
255 ,46.4002 ,1.05807 ,1.31512 ,12.90391 
256 ,46.5924 ,1.05989 ,1.30143 ,12.76960 
257 ,46.7683 ,1.06168 ,1.29116 ,12.66886 
258 ,46.9446 ,1.06343 ,1.27063 ,12.46739 
259 ,47.1205 ,1.06520 ,1.26036 ,12.36666 
260 ,47.2966 ,1.06697 ,1.24325 ,12.19877 
261 ,47.5049 ,1.06900 ,1.24325 ,12.19877 
262 ,47.6806 ,1.07088 ,1.22272 ,11.99730 
263 ,47.8569 ,1.07257 ,1.20218 ,11.79583 
264 ,48.0328 ,1.07434 ,1.19534 ,11.72867 
265 ,48.2249 ,1.07630 ,1.18850 ,11.66151 
266 ,48.4170 ,1.07817 ,1.15770 ,11.35931 
267 ,48.5931 ,1.07995 ,1.15770 ,11.35931 
268 ,48.7693 ,1.08170 ,1.16112 ,11.39289 
269 ,48.9454 ,1.08347 ,1.14058 ,11.19142 
270 ,49.1215 ,1.08522 ,1.09952 ,10.78848 
271 ,49.2973 ,1.08700 ,1.08583 ,10.65416 
272 ,49.4896 ,1.08887 ,1.10294 ,10.82206 
273 ,49.6655 ,1.09070 ,1.08583 ,10.65416 
274 ,49.8578 ,1.09260 ,1.05845 ,10.38554 
275 ,50.0499 ,1.09449 ,1.06530 ,10.45270 
276 ,50.2419 ,1.09639 ,1.04134 ,10.21765 
277 ,50.4336 ,1.09827 ,1.03450 ,10.15049 
278 ,50.6100 ,1.10009 ,1.02081 ,10.01618 
279 ,50.7861 ,1.10184 ,1.00712 ,9.88186 
280 ,50.9622 ,1.10360 ,0.99343 ,9.74755 
281 ,51.1381 ,1.10538 ,0.97290 ,9.54608 
282 ,51.3783 ,1.10761 ,0.97290 ,9.54608 
283 ,51.5704 ,1.10970 ,0.95579 ,9.37819 
284 ,51.7463 ,1.11150 ,0.93868 ,9.21030 
285 ,51.9221 ,1.11325 ,0.92499 ,9.07598 
286 ,52.0986 ,1.11494 ,0.91130 ,8.94167 
287 ,52.2746 ,1.11678 ,0.89419 ,8.77378 
288 ,52.4508 ,1.11851 ,0.89761 ,8.80736 
289 ,52.6268 ,1.12022 ,0.89077 ,8.74020 
290 ,52.8187 ,1.12208 ,0.86339 ,8.47158 
291 ,52.9950 ,1.12392 ,0.84286 ,8.27011 
292 ,53.1710 ,1.12571 ,0.85654 ,8.40442 
293 ,53.3469 ,1.12748 ,0.83943 ,8.23653 
294 ,53.5227 ,1.12923 ,0.82575 ,8.10221 
295 ,53.6990 ,1.13102 ,0.79837 ,7.83359 
296 ,53.8913 ,1.13291 ,0.79495 ,7.80001 
297 ,54.0994 ,1.13497 ,0.77784 ,7.63212 
298 ,54.2915 ,1.13681 ,0.76072 ,7.46423 
299 ,54.4835 ,1.13883 ,0.74361 ,7.29633 
300 ,54.6432 ,1.14049 ,0.73677 ,7.22918 
301 ,54.8197 ,1.14218 ,0.73335 ,7.19560 
302 ,55.0118 ,1.14411 ,0.72650 ,7.12844 
303 ,55.2037 ,1.14605 ,0.71624 ,7.02771 
304 ,55.3797 ,1.14777 ,0.69228 ,6.79266 
305 ,55.5559 ,1.14953 ,0.68886 ,6.75908 
306 ,55.7316 ,1.15131 ,0.67859 ,6.65835 
307 ,55.9081 ,1.15307 ,0.67859 ,6.65835 
308 ,56.0842 ,1.15482 ,0.64437 ,6.32256 
309 ,56.2603 ,1.15661 ,0.63410 ,6.22183 
310 ,56.4362 ,1.15833 ,0.64095 ,6.28899 
311 ,56.6125 ,1.16008 ,0.63068 ,6.18825 
312 ,56.8042 ,1.16202 ,0.60673 ,5.95320 
313 ,56.9963 ,1.16387 ,0.59304 ,5.81889 
314 ,57.1726 ,1.16571 ,0.58277 ,5.71815 
315 ,57.3485 ,1.16746 ,0.56908 ,5.58384 
316 ,57.5247 ,1.16924 ,0.55882 ,5.48311 
317 ,57.7007 ,1.17103 ,0.53486 ,5.24806 
318 ,57.9085 ,1.17298 ,0.53828 ,5.28164 
319 ,58.0848 ,1.17482 ,0.53144 ,5.21448 
320 ,58.2771 ,1.17670 ,0.50406 ,4.94585 
321 ,58.4529 ,1.17851 ,0.50748 ,4.97943 
322 ,58.6292 ,1.18021 ,0.49037 ,4.81154 
323 ,58.8053 ,1.18205 ,0.49037 ,4.81154 
324 ,58.9650 ,1.18372 ,0.46642 ,4.57649 
325 ,59.1575 ,1.18550 ,0.45273 ,4.44218 
326 ,59.3655 ,1.18760 ,0.44246 ,4.34144 
327 ,59.5415 ,1.18939 ,0.41851 ,4.10640 
328 ,59.7337 ,1.19132 ,0.43562 ,4.27429 
329 ,59.9257 ,1.19323 ,0.41509 ,4.07282 
330 ,60.1177 ,1.19504 ,0.38429 ,3.77061 
331 ,60.2939 ,1.19690 ,0.38771 ,3.80419 
332 ,60.4699 ,1.19871 ,0.38086 ,3.73703 
333 ,60.6459 ,1.20043 ,0.35349 ,3.46841 
334 ,60.8221 ,1.20216 ,0.34664 ,3.40125 
335 ,61.0142 ,1.20410 ,0.35006 ,3.43483 
336 ,61.1739 ,1.20579 ,0.33295 ,3.26694 
337 ,61.3500 ,1.20740 ,0.33295 ,3.26694 
338 ,61.5262 ,1.20920 ,0.30900 ,3.03189 
339 ,61.7024 ,1.21100 ,0.30215 ,2.96473 
340 ,61.8944 ,1.21291 ,0.29873 ,2.93116 
341 ,62.0705 ,1.21464 ,0.28847 ,2.83042 
342 ,62.2627 ,1.21653 ,0.25424 ,2.49464 
343 ,62.4546 ,1.21850 ,0.26109 ,2.56179 
344 ,62.6148 ,1.22021 ,0.25424 ,2.49464 
345 ,62.7908 ,1.22183 ,0.25082 ,2.46106 
346 ,62.9829 ,1.22382 ,0.20633 ,2.02454 
347 ,63.1589 ,1.22554 ,0.20633 ,2.02454 
348 ,63.3350 ,1.22731 ,0.20976 ,2.05812 
349 ,63.5271 ,1.22926 ,0.18580 ,1.82307 
350 ,63.7032 ,1.23099 ,0.17896 ,1.75592 
351 ,63.8789 ,1.23273 ,0.16185 ,1.58802 
352 ,64.0553 ,1.23452 ,0.17553 ,1.72234 
353 ,64.2312 ,1.23621 ,0.16527 ,1.62160 
354 ,64.4075 ,1.23803 ,0.14473 ,1.42013 
355 ,64.5992 ,1.23993 ,0.12078 ,1.18508 
356 ,64.7592 ,1.24162 ,0.13447 ,1.31940 
357 ,64.9355 ,1.24327 ,0.12078 ,1.18508 
358 ,65.1117 ,1.24500 ,0.10709 ,1.05077 
359 ,65.2878 ,1.24684 ,0.09340 ,0.91646 
360 ,65.4639 ,1.24854 ,0.07287 ,0.71499 
361 ,65.6719 ,1.25063 ,0.05918 ,0.58067 
362 ,65.8640 ,1.25258 ,0.03180 ,0.31205 
363 ,66.0402 ,1.25430 ,0.03522 ,0.34563 
364 ,66.2161 ,1.25611 ,0.03865 ,0.37920 
365 ,66.3920 ,1.25784 ,0.02838 ,0.27847 
366 ,66.5681 ,1.25959 ,0.02154 ,0.21131 
367 ,66.7444 ,1.26146 ,-0.00242 ,-0.02373 
368 ,66.9203 ,1.26312 ,-0.00584 ,-0.05731 
369 ,67.1127 ,1.26509 ,-0.00584 ,-0.05731 
370 ,67.2887 ,1.26683 ,-0.01953 ,-0.19163 
371 ,67.4483 ,1.26854 ,-0.04348 ,-0.42667 
372 ,67.6248 ,1.27019 ,-0.05717 ,-0.56099 
373 ,67.8168 ,1.27210 ,-0.04691 ,-0.46025 
374 ,67.9930 ,1.27386 ,-0.06060 ,-0.59457 
375 ,68.1849 ,1.27570 ,-0.08797 ,-0.86319 
376 ,68.3610 ,1.27755 ,-0.08113 ,-0.79604 
377 ,68.5369 ,1.27925 ,-0.08797 ,-0.86319 
378 ,68.7133 ,1.28100 ,-0.10166 ,-0.99751 
379 ,68.9214 ,1.28304 ,-0.11193 ,-1.09824 
380 ,69.0973 ,1.28489 ,-0.13588 ,-1.33329 
381 ,69.2732 ,1.28667 ,-0.14273 ,-1.40045 
382 ,69.4495 ,1.28846 ,-0.15299 ,-1.50118 
383 ,69.6251 ,1.29024 ,-0.16326 ,-1.60191 
384 ,69.8176 ,1.29201 ,-0.18379 ,-1.80338 
385 ,69.9936 ,1.29387 ,-0.18379 ,-1.80338 
386 ,70.1698 ,1.29561 ,-0.19748 ,-1.93770 
387 ,70.3457 ,1.29737 ,-0.20433 ,-2.00485 
388 ,70.5219 ,1.29912 ,-0.21117 ,-2.07201 
389 ,70.7139 ,1.30109 ,-0.21802 ,-2.13917 
390 ,70.8901 ,1.30279 ,-0.23855 ,-2.34064 
391 ,71.0820 ,1.30472 ,-0.23513 ,-2.30706 
392 ,71.2583 ,1.30651 ,-0.23170 ,-2.27348 
393 ,71.4499 ,1.30842 ,-0.25908 ,-2.54211 
394 ,71.6263 ,1.31011 ,-0.27619 ,-2.71000 
395 ,71.8024 ,1.31196 ,-0.28988 ,-2.84431 
396 ,71.9946 ,1.31383 ,-0.28646 ,-2.81073 
397 ,72.1705 ,1.31566 ,-0.29330 ,-2.87789 
398 ,72.3465 ,1.31735 ,-0.32068 ,-3.14652 
399 ,72.5388 ,1.31931 ,-0.30699 ,-3.01220 
400 ,72.7305 ,1.32113 ,-0.32410 ,-3.18010 
401 ,72.9228 ,1.32313 ,-0.34121 ,-3.34799 
402 ,73.1151 ,1.32503 ,-0.34464 ,-3.38156 
403 ,73.3072 ,1.32699 ,-0.35490 ,-3.48230 
404 ,73.4831 ,1.32880 ,-0.35832 ,-3.51588 
405 ,73.6751 ,1.33073 ,-0.38912 ,-3.81808 
406 ,73.8509 ,1.33240 ,-0.38912 ,-3.81808 
407 ,74.0271 ,1.33416 ,-0.38570 ,-3.78450 
408 ,74.2034 ,1.33592 ,-0.39255 ,-3.85166 
409 ,74.3795 ,1.33773 ,-0.41308 ,-4.05313 
410 ,74.5715 ,1.33964 ,-0.41308 ,-4.05313 
411 ,74.7637 ,1.34149 ,-0.43361 ,-4.25460 
412 ,74.9397 ,1.34330 ,-0.43703 ,-4.28818 
413 ,75.1159 ,1.34505 ,-0.44730 ,-4.38891 
414 ,75.3080 ,1.34700 ,-0.45757 ,-4.48965 
415 ,75.4835 ,1.34882 ,-0.46441 ,-4.55681 
416 ,75.6595 ,1.35050 ,-0.47126 ,-4.62396 
417 ,75.8356 ,1.35223 ,-0.47126 ,-4.62396 
418 ,76.0116 ,1.35404 ,-0.46783 ,-4.59038 
419 ,76.1876 ,1.35576 ,-0.49179 ,-4.82543 
420 ,76.3638 ,1.35757 ,-0.51917 ,-5.09406 
421 ,76.6042 ,1.35984 ,-0.51917 ,-5.09406 
422 ,76.8285 ,1.36206 ,-0.53970 ,-5.29553 
423 ,77.0042 ,1.36394 ,-0.54312 ,-5.32911 
424 ,77.2125 ,1.36586 ,-0.54312 ,-5.32911 
425 ,77.3885 ,1.36781 ,-0.56023 ,-5.49700 
426 ,77.5967 ,1.36975 ,-0.56365 ,-5.53058 
427 ,77.7725 ,1.37163 ,-0.57392 ,-5.63131 
428 ,77.9489 ,1.37335 ,-0.59103 ,-5.79920 
429 ,78.1248 ,1.37517 ,-0.57734 ,-5.66489 
430 ,78.3011 ,1.37691 ,-0.58077 ,-5.69847 
431 ,78.4931 ,1.37870 ,-0.60130 ,-5.89994 
432 ,78.6690 ,1.38058 ,-0.62868 ,-6.16856 
433 ,78.8452 ,1.38233 ,-0.62868 ,-6.16856 
434 ,79.0534 ,1.38427 ,-0.64236 ,-6.30288 
435 ,79.2295 ,1.38621 ,-0.64236 ,-6.30288 
436 ,79.4215 ,1.38809 ,-0.63894 ,-6.26930 
437 ,79.6294 ,1.39013 ,-0.65947 ,-6.47077 
438 ,79.8057 ,1.39194 ,-0.66632 ,-6.53793 
439 ,79.9978 ,1.39386 ,-0.66632 ,-6.53793 
440 ,80.1899 ,1.39577 ,-0.67316 ,-6.60508 
441 ,80.3819 ,1.39767 ,-0.67316 ,-6.60508 
442 ,80.5739 ,1.39963 ,-0.71081 ,-6.97444 
443 ,80.7501 ,1.40137 ,-0.71081 ,-6.97444 
444 ,80.9420 ,1.40322 ,-0.70396 ,-6.90729 
445 ,81.1182 ,1.40505 ,-0.72107 ,-7.07518 
446 ,81.2940 ,1.40679 ,-0.73476 ,-7.20949 
447 ,81.4703 ,1.40858 ,-0.75530 ,-7.41096 
448 ,81.6622 ,1.41048 ,-0.74161 ,-7.27665 
449 ,81.8384 ,1.41224 ,-0.74845 ,-7.34380 
450 ,82.0144 ,1.41396 ,-0.78610 ,-7.71317 
451 ,82.2066 ,1.41597 ,-0.77583 ,-7.61243 
452 ,82.3823 ,1.41769 ,-0.78267 ,-7.67959 
453 ,82.5588 ,1.41946 ,-0.78267 ,-7.67959 
454 ,82.7508 ,1.42136 ,-0.80663 ,-7.91464 
455 ,82.9270 ,1.42314 ,-0.80321 ,-7.88106 
456 ,83.1189 ,1.42505 ,-0.81347 ,-7.98179 
457 ,83.2952 ,1.42682 ,-0.83743 ,-8.21684 
458 ,83.4711 ,1.42858 ,-0.83401 ,-8.18326 
459 ,83.6469 ,1.43036 ,-0.85112 ,-8.35115 
460 ,83.8228 ,1.43215 ,-0.84427 ,-8.28400 
461 ,83.9989 ,1.43384 ,-0.85796 ,-8.41831 
462 ,84.1753 ,1.43561 ,-0.87849 ,-8.61978 
463 ,84.3836 ,1.43765 ,-0.88192 ,-8.65336 
