Data stamp = , 01-04-2022 22:30:10 267

Calibration Values: 
Slope = , 26.54 , g/V 
Offset Voltage at no contact = , -0.501760 , V 

No , Time , Stage Position ,   Mass , Force 
   ,  (s) ,      (mm)      ,   (g)  , (mN)  

1 ,0.0000 ,0.64943 ,5.11372 ,50.17583 
2 ,0.2109 ,0.64950 ,5.11714 ,50.20940 
3 ,0.5152 ,0.65023 ,5.10345 ,50.07509 
4 ,0.7070 ,0.65160 ,5.11372 ,50.17583 
5 ,0.8832 ,0.65306 ,5.10003 ,50.04151 
6 ,1.0592 ,0.65469 ,5.10003 ,50.04151 
7 ,1.2353 ,0.65645 ,5.11372 ,50.17583 
8 ,1.4271 ,0.65835 ,5.10688 ,50.10867 
9 ,1.6195 ,0.66027 ,5.08292 ,49.87362 
10 ,1.8116 ,0.66228 ,5.08634 ,49.90720 
11 ,2.0035 ,0.66416 ,5.06239 ,49.67215 
12 ,2.1796 ,0.66594 ,5.04528 ,49.50426 
13 ,2.3559 ,0.66779 ,5.03501 ,49.40352 
14 ,2.5479 ,0.66962 ,5.00421 ,49.10132 
15 ,2.7239 ,0.67141 ,4.98710 ,48.93343 
16 ,2.9161 ,0.67323 ,4.96657 ,48.73196 
17 ,3.0922 ,0.67505 ,4.95972 ,48.66480 
18 ,3.3166 ,0.67715 ,4.93577 ,48.42975 
19 ,3.5083 ,0.67926 ,4.90839 ,48.16113 
20 ,3.6845 ,0.68104 ,4.88786 ,47.95966 
21 ,3.8764 ,0.68288 ,4.89470 ,48.02681 
22 ,4.0523 ,0.68464 ,4.86390 ,47.72461 
23 ,4.2287 ,0.68647 ,4.83310 ,47.42240 
24 ,4.4207 ,0.68833 ,4.82968 ,47.38883 
25 ,4.5966 ,0.69014 ,4.81941 ,47.28809 
26 ,4.7728 ,0.69197 ,4.78519 ,46.95231 
27 ,4.9646 ,0.69378 ,4.74413 ,46.54937 
28 ,5.1410 ,0.69556 ,4.75097 ,46.61653 
29 ,5.3170 ,0.69731 ,4.74413 ,46.54937 
30 ,5.5092 ,0.69925 ,4.70990 ,46.21359 
31 ,5.6849 ,0.70100 ,4.68937 ,46.01212 
32 ,5.8613 ,0.70282 ,4.67568 ,45.87780 
33 ,6.0534 ,0.70468 ,4.66884 ,45.81065 
34 ,6.2294 ,0.70649 ,4.63462 ,45.47486 
35 ,6.4054 ,0.70826 ,4.61751 ,45.30697 
36 ,6.5815 ,0.70998 ,4.60724 ,45.20624 
37 ,6.7575 ,0.71170 ,4.58671 ,45.00477 
38 ,6.9337 ,0.71347 ,4.57644 ,44.90403 
39 ,7.1417 ,0.71549 ,4.55933 ,44.73614 
40 ,7.3177 ,0.71726 ,4.54906 ,44.63541 
41 ,7.5098 ,0.71923 ,4.50115 ,44.16531 
42 ,7.6855 ,0.72101 ,4.47378 ,43.89668 
43 ,7.8620 ,0.72279 ,4.44982 ,43.66163 
44 ,8.0377 ,0.72448 ,4.46009 ,43.76237 
45 ,8.2143 ,0.72629 ,4.42929 ,43.46016 
46 ,8.3902 ,0.72809 ,4.41560 ,43.32585 
47 ,8.5659 ,0.72990 ,4.39507 ,43.12438 
48 ,8.7420 ,0.73156 ,4.37795 ,42.95649 
49 ,8.9182 ,0.73328 ,4.37453 ,42.92291 
50 ,9.1106 ,0.73515 ,4.33689 ,42.55355 
51 ,9.3027 ,0.73720 ,4.33004 ,42.48639 
52 ,9.4788 ,0.73892 ,4.31636 ,42.35208 
53 ,9.6707 ,0.74082 ,4.28213 ,42.01630 
54 ,9.8468 ,0.74258 ,4.26160 ,41.81483 
55 ,10.0071 ,0.74432 ,4.25133 ,41.71409 
56 ,10.1830 ,0.74596 ,4.22738 ,41.47905 
57 ,10.3589 ,0.74768 ,4.22053 ,41.41189 
58 ,10.5512 ,0.74956 ,4.18974 ,41.10968 
59 ,10.7431 ,0.75160 ,4.17605 ,40.97537 
60 ,10.9193 ,0.75335 ,4.16236 ,40.84106 
61 ,11.0952 ,0.75516 ,4.12471 ,40.47170 
62 ,11.2874 ,0.75697 ,4.11787 ,40.40454 
63 ,11.4635 ,0.75882 ,4.11103 ,40.33738 
64 ,11.6394 ,0.76051 ,4.09049 ,40.13591 
65 ,11.8159 ,0.76229 ,4.08023 ,40.03518 
66 ,12.0078 ,0.76420 ,4.05285 ,39.76655 
67 ,12.1839 ,0.76599 ,4.02205 ,39.46435 
68 ,12.3599 ,0.76772 ,4.01178 ,39.36361 
69 ,12.5520 ,0.76965 ,3.97756 ,39.02783 
70 ,12.7282 ,0.77140 ,3.96045 ,38.85994 
71 ,12.9520 ,0.77351 ,3.93650 ,38.62489 
72 ,13.1278 ,0.77538 ,3.92965 ,38.55773 
73 ,13.3046 ,0.77718 ,3.91938 ,38.45700 
74 ,13.4964 ,0.77908 ,3.89885 ,38.25553 
75 ,13.6723 ,0.78084 ,3.87832 ,38.05406 
76 ,13.8484 ,0.78261 ,3.85779 ,37.85259 
77 ,14.0246 ,0.78435 ,3.85094 ,37.78543 
78 ,14.2004 ,0.78619 ,3.82699 ,37.55038 
79 ,14.3767 ,0.78788 ,3.79619 ,37.24818 
80 ,14.5686 ,0.78981 ,3.77565 ,37.04671 
81 ,14.7608 ,0.79169 ,3.75170 ,36.81166 
82 ,14.9369 ,0.79348 ,3.74143 ,36.71093 
83 ,15.1288 ,0.79537 ,3.73117 ,36.61019 
84 ,15.3049 ,0.79717 ,3.72432 ,36.54303 
85 ,15.4811 ,0.79893 ,3.69694 ,36.27441 
86 ,15.6573 ,0.80065 ,3.66957 ,36.00578 
87 ,15.8333 ,0.80244 ,3.64219 ,35.73716 
88 ,16.0093 ,0.80422 ,3.63534 ,35.67000 
89 ,16.1854 ,0.80593 ,3.62850 ,35.60284 
90 ,16.3616 ,0.80770 ,3.62508 ,35.56926 
91 ,16.5536 ,0.80969 ,3.58059 ,35.13275 
92 ,16.7296 ,0.81142 ,3.55663 ,34.89770 
93 ,16.9057 ,0.81316 ,3.55663 ,34.89770 
94 ,17.0977 ,0.81508 ,3.53952 ,34.72981 
95 ,17.2739 ,0.81689 ,3.50188 ,34.36045 
96 ,17.4659 ,0.81871 ,3.50872 ,34.42760 
97 ,17.6420 ,0.82053 ,3.49504 ,34.29329 
98 ,17.8179 ,0.82231 ,3.47108 ,34.05824 
99 ,18.0104 ,0.82425 ,3.44713 ,33.82319 
100 ,18.2023 ,0.82608 ,3.44370 ,33.78961 
101 ,18.3943 ,0.82808 ,3.40948 ,33.45383 
102 ,18.5702 ,0.82979 ,3.39921 ,33.35310 
103 ,18.7462 ,0.83158 ,3.37868 ,33.15163 
104 ,18.9224 ,0.83330 ,3.37526 ,33.11805 
105 ,19.1147 ,0.83530 ,3.33762 ,32.74869 
106 ,19.3227 ,0.83723 ,3.34104 ,32.78227 
107 ,19.5149 ,0.83928 ,3.30682 ,32.44648 
108 ,19.7068 ,0.84118 ,3.29313 ,32.31217 
109 ,19.8829 ,0.84290 ,3.28971 ,32.27859 
110 ,20.0589 ,0.84471 ,3.26575 ,32.04354 
111 ,20.2351 ,0.84648 ,3.23837 ,31.77492 
112 ,20.4271 ,0.84839 ,3.23495 ,31.74134 
113 ,20.6033 ,0.85016 ,3.21784 ,31.57345 
114 ,20.7953 ,0.85207 ,3.18362 ,31.23766 
115 ,20.9710 ,0.85381 ,3.16993 ,31.10335 
116 ,21.1471 ,0.85554 ,3.17677 ,31.17051 
117 ,21.3233 ,0.85732 ,3.16309 ,31.03619 
118 ,21.4992 ,0.85907 ,3.13571 ,30.76757 
119 ,21.6756 ,0.86082 ,3.11860 ,30.59968 
120 ,21.8518 ,0.86264 ,3.10149 ,30.43178 
121 ,22.0275 ,0.86436 ,3.09464 ,30.36463 
122 ,22.2039 ,0.86614 ,3.08095 ,30.23031 
123 ,22.3960 ,0.86803 ,3.03304 ,29.76022 
124 ,22.5718 ,0.86985 ,3.02962 ,29.72664 
125 ,22.7481 ,0.87159 ,3.01935 ,29.62590 
126 ,22.9401 ,0.87354 ,2.99882 ,29.42444 
127 ,23.1322 ,0.87532 ,2.98513 ,29.29012 
128 ,23.3244 ,0.87722 ,2.96802 ,29.12223 
129 ,23.5164 ,0.87924 ,2.93038 ,28.75287 
130 ,23.6921 ,0.88099 ,2.92696 ,28.71929 
131 ,23.8687 ,0.88275 ,2.92696 ,28.71929 
132 ,24.0442 ,0.88452 ,2.90985 ,28.55140 
133 ,24.2202 ,0.88624 ,2.89273 ,28.38351 
134 ,24.3963 ,0.88802 ,2.86878 ,28.14846 
135 ,24.5727 ,0.88982 ,2.86193 ,28.08130 
136 ,24.7488 ,0.89169 ,2.84825 ,27.94699 
137 ,24.9250 ,0.89334 ,2.83798 ,27.84625 
138 ,25.1172 ,0.89523 ,2.80376 ,27.51047 
139 ,25.2931 ,0.89702 ,2.79007 ,27.37616 
140 ,25.4691 ,0.89876 ,2.78665 ,27.34258 
141 ,25.6453 ,0.90052 ,2.76954 ,27.17469 
142 ,25.8209 ,0.90230 ,2.75243 ,27.00680 
143 ,25.9970 ,0.90405 ,2.73531 ,26.83891 
144 ,26.1733 ,0.90583 ,2.71478 ,26.63744 
145 ,26.3496 ,0.90759 ,2.71820 ,26.67101 
146 ,26.5255 ,0.90937 ,2.69767 ,26.46954 
147 ,26.7177 ,0.91113 ,2.68056 ,26.30165 
148 ,26.8936 ,0.91300 ,2.65318 ,26.03303 
149 ,27.0699 ,0.91472 ,2.65318 ,26.03303 
150 ,27.2459 ,0.91657 ,2.64634 ,25.96587 
151 ,27.4220 ,0.91827 ,2.61554 ,25.66367 
152 ,27.6141 ,0.92024 ,2.58816 ,25.39504 
153 ,27.8060 ,0.92217 ,2.59501 ,25.46220 
154 ,27.9822 ,0.92386 ,2.58474 ,25.36146 
155 ,28.1737 ,0.92581 ,2.55394 ,25.05926 
156 ,28.3500 ,0.92759 ,2.52998 ,24.82421 
157 ,28.5420 ,0.92944 ,2.53341 ,24.85779 
158 ,28.7181 ,0.93125 ,2.51972 ,24.72347 
159 ,28.8941 ,0.93300 ,2.49234 ,24.45485 
160 ,29.0865 ,0.93488 ,2.48550 ,24.38769 
161 ,29.2943 ,0.93696 ,2.46496 ,24.18622 
162 ,29.4708 ,0.93877 ,2.44443 ,23.98475 
163 ,29.6627 ,0.94072 ,2.43416 ,23.88402 
164 ,29.8390 ,0.94243 ,2.41705 ,23.71612 
165 ,30.0306 ,0.94437 ,2.40336 ,23.58181 
166 ,30.2070 ,0.94616 ,2.39994 ,23.54823 
167 ,30.3830 ,0.94788 ,2.37941 ,23.34676 
168 ,30.5591 ,0.94963 ,2.35888 ,23.14529 
169 ,30.7513 ,0.95146 ,2.32808 ,22.84309 
170 ,30.9273 ,0.95333 ,2.33834 ,22.94382 
171 ,31.1193 ,0.95522 ,2.31097 ,22.67520 
172 ,31.2951 ,0.95702 ,2.28701 ,22.44015 
173 ,31.4715 ,0.95881 ,2.28359 ,22.40657 
174 ,31.6475 ,0.96051 ,2.27332 ,22.30584 
175 ,31.8237 ,0.96231 ,2.25963 ,22.17152 
176 ,32.0157 ,0.96414 ,2.24252 ,22.00363 
177 ,32.1757 ,0.96589 ,2.22883 ,21.86932 
178 ,32.3518 ,0.96753 ,2.21172 ,21.70143 
179 ,32.5279 ,0.96933 ,2.21172 ,21.70143 
180 ,32.7040 ,0.97110 ,2.18092 ,21.39922 
181 ,32.8802 ,0.97283 ,2.17066 ,21.29849 
182 ,33.0562 ,0.97462 ,2.15012 ,21.09702 
183 ,33.2321 ,0.97633 ,2.13644 ,20.96270 
184 ,33.4084 ,0.97812 ,2.13644 ,20.96270 
185 ,33.5845 ,0.97990 ,2.11932 ,20.79481 
186 ,33.7604 ,0.98165 ,2.09195 ,20.52619 
187 ,33.9525 ,0.98352 ,2.07826 ,20.39187 
188 ,34.1287 ,0.98534 ,2.06457 ,20.25756 
189 ,34.3207 ,0.98726 ,2.04404 ,20.05609 
190 ,34.5288 ,0.98926 ,2.03377 ,19.95535 
191 ,34.7208 ,0.99120 ,2.01324 ,19.75388 
192 ,34.8969 ,0.99302 ,1.99955 ,19.61957 
193 ,35.0729 ,0.99474 ,1.97902 ,19.41810 
194 ,35.2650 ,0.99663 ,1.96533 ,19.28379 
195 ,35.4570 ,0.99857 ,1.94822 ,19.11590 
196 ,35.6332 ,1.00041 ,1.94822 ,19.11590 
197 ,35.8091 ,1.00217 ,1.94137 ,19.04874 
198 ,36.0014 ,1.00410 ,1.91742 ,18.81369 
199 ,36.1774 ,1.00580 ,1.89004 ,18.54507 
200 ,36.3691 ,1.00771 ,1.89688 ,18.61222 
201 ,36.5455 ,1.00950 ,1.88319 ,18.47791 
202 ,36.7217 ,1.01122 ,1.85582 ,18.20928 
203 ,36.8977 ,1.01302 ,1.84213 ,18.07497 
204 ,37.0737 ,1.01481 ,1.82844 ,17.94066 
205 ,37.2499 ,1.01651 ,1.82502 ,17.90708 
206 ,37.4256 ,1.01831 ,1.81133 ,17.77276 
207 ,37.6019 ,1.02004 ,1.78053 ,17.47056 
208 ,37.7781 ,1.02180 ,1.76684 ,17.33625 
209 ,37.9700 ,1.02371 ,1.76342 ,17.30267 
210 ,38.1462 ,1.02551 ,1.75657 ,17.23551 
211 ,38.3382 ,1.02742 ,1.72578 ,16.93331 
212 ,38.5302 ,1.02931 ,1.71893 ,16.86615 
213 ,38.7064 ,1.03108 ,1.71551 ,16.83257 
214 ,38.8983 ,1.03293 ,1.68813 ,16.56395 
215 ,39.0741 ,1.03484 ,1.66418 ,16.32890 
216 ,39.2505 ,1.03653 ,1.66418 ,16.32890 
217 ,39.4427 ,1.03845 ,1.64707 ,16.16101 
218 ,39.6187 ,1.04018 ,1.61627 ,15.85880 
219 ,39.8110 ,1.04215 ,1.62311 ,15.92596 
220 ,39.9869 ,1.04389 ,1.62311 ,15.92596 
221 ,40.1629 ,1.04565 ,1.58547 ,15.55660 
222 ,40.3390 ,1.04739 ,1.56836 ,15.38871 
223 ,40.5153 ,1.04919 ,1.55124 ,15.22081 
224 ,40.7231 ,1.05119 ,1.53413 ,15.05292 
225 ,40.9152 ,1.05319 ,1.52045 ,14.91861 
226 ,41.0911 ,1.05492 ,1.53413 ,15.05292 
227 ,41.2833 ,1.05674 ,1.51702 ,14.88503 
228 ,41.4755 ,1.05868 ,1.48965 ,14.61640 
229 ,41.6514 ,1.06058 ,1.46911 ,14.41493 
230 ,41.8276 ,1.06230 ,1.47253 ,14.44851 
231 ,42.0197 ,1.06412 ,1.45885 ,14.31420 
232 ,42.2278 ,1.06620 ,1.43489 ,14.07915 
233 ,42.4039 ,1.06811 ,1.42120 ,13.94484 
234 ,42.5799 ,1.06985 ,1.39725 ,13.70979 
235 ,42.7719 ,1.07165 ,1.40067 ,13.74337 
236 ,42.9640 ,1.07364 ,1.36987 ,13.44116 
237 ,43.1239 ,1.07538 ,1.35618 ,13.30685 
238 ,43.3002 ,1.07705 ,1.34934 ,13.23969 
239 ,43.4922 ,1.07891 ,1.34591 ,13.20612 
240 ,43.6841 ,1.08091 ,1.32196 ,12.97107 
241 ,43.8763 ,1.08273 ,1.31169 ,12.87033 
242 ,44.0524 ,1.08451 ,1.29458 ,12.70244 
243 ,44.2281 ,1.08627 ,1.28774 ,12.63528 
244 ,44.4047 ,1.08804 ,1.26036 ,12.36666 
245 ,44.5967 ,1.08996 ,1.25352 ,12.29950 
246 ,44.7884 ,1.09186 ,1.25009 ,12.26592 
247 ,44.9646 ,1.09368 ,1.22614 ,12.03088 
248 ,45.1570 ,1.09554 ,1.20218 ,11.79583 
249 ,45.3325 ,1.09732 ,1.20561 ,11.82941 
250 ,45.5095 ,1.09907 ,1.20218 ,11.79583 
251 ,45.6850 ,1.10088 ,1.17823 ,11.56078 
252 ,45.8612 ,1.10257 ,1.15427 ,11.32573 
253 ,46.0530 ,1.10454 ,1.15427 ,11.32573 
254 ,46.2454 ,1.10636 ,1.12690 ,11.05710 
255 ,46.4533 ,1.10838 ,1.12347 ,11.02353 
256 ,46.6295 ,1.11026 ,1.11321 ,10.92279 
257 ,46.8055 ,1.11209 ,1.10294 ,10.82206 
258 ,46.9815 ,1.11394 ,1.07214 ,10.51985 
259 ,47.1738 ,1.11573 ,1.07214 ,10.51985 
260 ,47.3816 ,1.11774 ,1.06530 ,10.45270 
261 ,47.5580 ,1.11952 ,1.03450 ,10.15049 
262 ,47.7657 ,1.12160 ,1.02423 ,10.04976 
263 ,47.9415 ,1.12338 ,1.01054 ,9.91544 
264 ,48.1182 ,1.12517 ,1.00028 ,9.81471 
265 ,48.2942 ,1.12707 ,1.00028 ,9.81471 
266 ,48.5023 ,1.12885 ,0.96605 ,9.47892 
267 ,48.6784 ,1.13077 ,0.95237 ,9.34461 
268 ,48.8545 ,1.13256 ,0.93868 ,9.21030 
269 ,49.0146 ,1.13424 ,0.94894 ,9.31103 
270 ,49.1905 ,1.13584 ,0.92157 ,9.04241 
271 ,49.3666 ,1.13761 ,0.91472 ,8.97525 
272 ,49.5584 ,1.13952 ,0.89419 ,8.77378 
273 ,49.7344 ,1.14131 ,0.88392 ,8.67305 
274 ,49.8948 ,1.14304 ,0.88050 ,8.63947 
275 ,50.0544 ,1.14465 ,0.87708 ,8.60589 
276 ,50.2310 ,1.14627 ,0.85997 ,8.43800 
277 ,50.4070 ,1.14810 ,0.83601 ,8.20295 
278 ,50.5992 ,1.14991 ,0.82575 ,8.10221 
279 ,50.7752 ,1.15175 ,0.80521 ,7.90074 
280 ,50.9513 ,1.15352 ,0.80863 ,7.93432 
281 ,51.1432 ,1.15545 ,0.76757 ,7.53138 
282 ,51.3191 ,1.15718 ,0.76415 ,7.49780 
283 ,51.4956 ,1.15892 ,0.76415 ,7.49780 
284 ,51.6716 ,1.16070 ,0.75730 ,7.43065 
285 ,51.8477 ,1.16242 ,0.73677 ,7.22918 
286 ,52.0236 ,1.16424 ,0.70939 ,6.96055 
287 ,52.2159 ,1.16613 ,0.71624 ,7.02771 
288 ,52.3758 ,1.16782 ,0.70597 ,6.92697 
289 ,52.5521 ,1.16946 ,0.69228 ,6.79266 
290 ,52.7281 ,1.17125 ,0.67517 ,6.62477 
291 ,52.9201 ,1.17313 ,0.65464 ,6.42330 
292 ,53.0961 ,1.17489 ,0.65121 ,6.38972 
293 ,53.2563 ,1.17664 ,0.65121 ,6.38972 
294 ,53.4324 ,1.17826 ,0.63753 ,6.25541 
295 ,53.6405 ,1.18023 ,0.59988 ,5.88605 
296 ,53.8485 ,1.18244 ,0.59988 ,5.88605 
297 ,54.0246 ,1.18422 ,0.57935 ,5.68458 
298 ,54.2006 ,1.18601 ,0.56224 ,5.51668 
299 ,54.3767 ,1.18772 ,0.54855 ,5.38237 
300 ,54.5367 ,1.18944 ,0.55197 ,5.41595 
301 ,54.7128 ,1.19111 ,0.54855 ,5.38237 
302 ,54.8888 ,1.19286 ,0.53486 ,5.24806 
303 ,55.0650 ,1.19460 ,0.51433 ,5.04659 
304 ,55.2411 ,1.19638 ,0.49037 ,4.81154 
305 ,55.4331 ,1.19832 ,0.50064 ,4.91228 
306 ,55.6090 ,1.20005 ,0.48353 ,4.74438 
307 ,55.7852 ,1.20181 ,0.47326 ,4.64365 
308 ,55.9613 ,1.20352 ,0.45273 ,4.44218 
309 ,56.1375 ,1.20534 ,0.43220 ,4.24071 
310 ,56.3136 ,1.20706 ,0.44246 ,4.34144 
311 ,56.4897 ,1.20884 ,0.43562 ,4.27429 
312 ,56.6977 ,1.21086 ,0.42535 ,4.17355 
313 ,56.8738 ,1.21276 ,0.39797 ,3.90493 
314 ,57.0660 ,1.21452 ,0.38771 ,3.80419 
315 ,57.2419 ,1.21637 ,0.36375 ,3.56914 
316 ,57.4178 ,1.21812 ,0.36375 ,3.56914 
317 ,57.5940 ,1.21990 ,0.36033 ,3.53557 
318 ,57.7702 ,1.22168 ,0.33980 ,3.33410 
319 ,57.9463 ,1.22343 ,0.32953 ,3.23336 
320 ,58.1224 ,1.22515 ,0.31242 ,3.06547 
321 ,58.2984 ,1.22694 ,0.30900 ,3.03189 
322 ,58.4900 ,1.22884 ,0.29873 ,2.93116 
323 ,58.6664 ,1.23057 ,0.29189 ,2.86400 
324 ,58.8426 ,1.23236 ,0.26793 ,2.62895 
325 ,59.0184 ,1.23416 ,0.26109 ,2.56179 
326 ,59.1945 ,1.23585 ,0.26109 ,2.56179 
327 ,59.3706 ,1.23765 ,0.24740 ,2.42748 
328 ,59.5628 ,1.23955 ,0.22344 ,2.19243 
329 ,59.7388 ,1.24134 ,0.22002 ,2.15885 
330 ,59.9309 ,1.24325 ,0.20976 ,2.05812 
331 ,60.1231 ,1.24504 ,0.18922 ,1.85665 
332 ,60.3153 ,1.24708 ,0.18580 ,1.82307 
333 ,60.4911 ,1.24886 ,0.17553 ,1.72234 
334 ,60.6670 ,1.25057 ,0.14131 ,1.38655 
335 ,60.8434 ,1.25238 ,0.13789 ,1.35298 
336 ,61.0197 ,1.25420 ,0.12078 ,1.18508 
337 ,61.2114 ,1.25608 ,0.14131 ,1.38655 
338 ,61.3873 ,1.25781 ,0.11051 ,1.08435 
339 ,61.5637 ,1.25958 ,0.09682 ,0.95004 
340 ,61.7559 ,1.26149 ,0.09682 ,0.95004 
341 ,61.9320 ,1.26331 ,0.08656 ,0.84930 
342 ,62.1240 ,1.26519 ,0.04891 ,0.47994 
343 ,62.2999 ,1.26698 ,0.04207 ,0.41278 
344 ,62.4760 ,1.26869 ,0.05576 ,0.54710 
345 ,62.6519 ,1.27048 ,0.03180 ,0.31205 
346 ,62.8279 ,1.27224 ,0.02838 ,0.27847 
347 ,63.0203 ,1.27411 ,0.00785 ,0.07700 
348 ,63.1962 ,1.27593 ,-0.00242 ,-0.02373 
349 ,63.3724 ,1.27775 ,-0.01953 ,-0.19163 
350 ,63.5485 ,1.27943 ,-0.02295 ,-0.22520 
351 ,63.7402 ,1.28129 ,-0.03322 ,-0.32594 
352 ,63.9165 ,1.28307 ,-0.02980 ,-0.29236 
353 ,64.1087 ,1.28497 ,-0.07086 ,-0.69530 
354 ,64.2845 ,1.28677 ,-0.07771 ,-0.76246 
355 ,64.4606 ,1.28851 ,-0.07428 ,-0.72888 
356 ,64.6369 ,1.29029 ,-0.07428 ,-0.72888 
357 ,64.8289 ,1.29223 ,-0.09824 ,-0.96393 
358 ,65.0053 ,1.29396 ,-0.11877 ,-1.16540 
359 ,65.1811 ,1.29575 ,-0.12219 ,-1.19898 
360 ,65.3570 ,1.29747 ,-0.11193 ,-1.09824 
361 ,65.5328 ,1.29928 ,-0.12904 ,-1.26613 
362 ,65.7094 ,1.30103 ,-0.14615 ,-1.43402 
363 ,65.8853 ,1.30282 ,-0.14957 ,-1.46760 
364 ,66.0615 ,1.30457 ,-0.16668 ,-1.63549 
365 ,66.2372 ,1.30628 ,-0.16326 ,-1.60191 
366 ,66.4136 ,1.30805 ,-0.18037 ,-1.76981 
367 ,66.5896 ,1.30980 ,-0.18037 ,-1.76981 
368 ,66.7658 ,1.31157 ,-0.21117 ,-2.07201 
369 ,66.9579 ,1.31349 ,-0.20433 ,-2.00485 
370 ,67.1500 ,1.31542 ,-0.22828 ,-2.23990 
371 ,67.3259 ,1.31719 ,-0.24197 ,-2.37422 
372 ,67.5020 ,1.31891 ,-0.25224 ,-2.47495 
373 ,67.6941 ,1.32078 ,-0.24881 ,-2.44137 
374 ,67.8701 ,1.32263 ,-0.26250 ,-2.57569 
375 ,68.0462 ,1.32438 ,-0.27961 ,-2.74358 
376 ,68.2383 ,1.32617 ,-0.28646 ,-2.81073 
377 ,68.4305 ,1.32824 ,-0.29673 ,-2.91147 
378 ,68.6064 ,1.33002 ,-0.31041 ,-3.04578 
379 ,68.7826 ,1.33175 ,-0.32068 ,-3.14652 
380 ,68.9741 ,1.33363 ,-0.32752 ,-3.21367 
381 ,69.1507 ,1.33541 ,-0.34121 ,-3.34799 
382 ,69.3426 ,1.33726 ,-0.33095 ,-3.24725 
383 ,69.5190 ,1.33911 ,-0.34806 ,-3.41514 
384 ,69.7110 ,1.34098 ,-0.36517 ,-3.58303 
385 ,69.9030 ,1.34292 ,-0.37201 ,-3.65019 
386 ,70.0790 ,1.34471 ,-0.37544 ,-3.68377 
387 ,70.2550 ,1.34645 ,-0.37886 ,-3.71735 
388 ,70.4312 ,1.34824 ,-0.38228 ,-3.75093 
389 ,70.6233 ,1.35003 ,-0.40966 ,-4.01955 
390 ,70.7993 ,1.35191 ,-0.40623 ,-3.98597 
391 ,70.9755 ,1.35365 ,-0.41992 ,-4.12029 
392 ,71.1514 ,1.35541 ,-0.42335 ,-4.15387 
393 ,71.3275 ,1.35725 ,-0.44730 ,-4.38891 
394 ,71.5035 ,1.35894 ,-0.46099 ,-4.52323 
395 ,71.6796 ,1.36069 ,-0.45072 ,-4.42249 
396 ,71.8558 ,1.36248 ,-0.45072 ,-4.42249 
397 ,72.0319 ,1.36424 ,-0.48494 ,-4.75828 
398 ,72.2076 ,1.36596 ,-0.49521 ,-4.85901 
399 ,72.3998 ,1.36790 ,-0.48837 ,-4.79185 
400 ,72.5920 ,1.36978 ,-0.50890 ,-4.99332 
401 ,72.7680 ,1.37155 ,-0.52259 ,-5.12764 
402 ,72.9441 ,1.37335 ,-0.51574 ,-5.06048 
403 ,73.1361 ,1.37526 ,-0.52259 ,-5.12764 
404 ,73.3124 ,1.37707 ,-0.53285 ,-5.22837 
405 ,73.4884 ,1.37876 ,-0.55681 ,-5.46342 
406 ,73.6644 ,1.38054 ,-0.55681 ,-5.46342 
407 ,73.8406 ,1.38226 ,-0.55681 ,-5.46342 
408 ,74.0326 ,1.38415 ,-0.58077 ,-5.69847 
409 ,74.2403 ,1.38624 ,-0.57392 ,-5.63131 
410 ,74.4166 ,1.38806 ,-0.58419 ,-5.73205 
411 ,74.5927 ,1.38977 ,-0.59445 ,-5.83278 
412 ,74.7528 ,1.39154 ,-0.61156 ,-6.00067 
413 ,74.9289 ,1.39318 ,-0.62183 ,-6.10141 
414 ,75.1049 ,1.39494 ,-0.62525 ,-6.13499 
415 ,75.2808 ,1.39664 ,-0.62525 ,-6.13499 
416 ,75.4572 ,1.39844 ,-0.62868 ,-6.16856 
417 ,75.6493 ,1.40041 ,-0.64921 ,-6.37003 
418 ,75.8251 ,1.40213 ,-0.65605 ,-6.43719 
419 ,76.0177 ,1.40412 ,-0.66290 ,-6.50435 
420 ,76.1936 ,1.40584 ,-0.67316 ,-6.60508 
421 ,76.3691 ,1.40761 ,-0.69027 ,-6.77297 
422 ,76.5455 ,1.40930 ,-0.69027 ,-6.77297 
423 ,76.7214 ,1.41109 ,-0.69027 ,-6.77297 
424 ,76.8976 ,1.41281 ,-0.70054 ,-6.87371 
425 ,77.0896 ,1.41469 ,-0.70396 ,-6.90729 
426 ,77.2659 ,1.41654 ,-0.72107 ,-7.07518 
427 ,77.4416 ,1.41839 ,-0.72450 ,-7.10876 
428 ,77.6181 ,1.42002 ,-0.73476 ,-7.20949 
429 ,77.7942 ,1.42182 ,-0.73818 ,-7.24307 
430 ,77.9862 ,1.42373 ,-0.75187 ,-7.37738 
431 ,78.1622 ,1.42545 ,-0.75187 ,-7.37738 
432 ,78.3384 ,1.42725 ,-0.76214 ,-7.47812 
433 ,78.5143 ,1.42909 ,-0.78610 ,-7.71317 
434 ,78.6904 ,1.43072 ,-0.80663 ,-7.91464 
435 ,78.8827 ,1.43273 ,-0.79978 ,-7.84748 
436 ,79.0587 ,1.43448 ,-0.78952 ,-7.74674 
437 ,79.2347 ,1.43622 ,-0.81689 ,-8.01537 
438 ,79.4107 ,1.43798 ,-0.83743 ,-8.21684 
439 ,79.5869 ,1.43967 ,-0.83058 ,-8.14968 
440 ,79.7630 ,1.44152 ,-0.82716 ,-8.11611 
441 ,79.9552 ,1.44345 ,-0.85112 ,-8.35115 
442 ,80.1312 ,1.44515 ,-0.85796 ,-8.41831 
443 ,80.3233 ,1.44712 ,-0.84769 ,-8.31758 
444 ,80.4992 ,1.44883 ,-0.86138 ,-8.45189 
445 ,80.6914 ,1.45071 ,-0.88876 ,-8.72051 
446 ,80.8835 ,1.45272 ,-0.88534 ,-8.68694 
447 ,81.0595 ,1.45441 ,-0.88192 ,-8.65336 
448 ,81.2516 ,1.45629 ,-0.91272 ,-8.95556 
449 ,81.4277 ,1.45810 ,-0.90245 ,-8.85483 
450 ,81.6037 ,1.45989 ,-0.90245 ,-8.85483 
451 ,81.7959 ,1.46177 ,-0.93325 ,-9.15703 
452 ,81.9720 ,1.46359 ,-0.94009 ,-9.22419 
453 ,82.1640 ,1.46550 ,-0.93667 ,-9.19061 
454 ,82.3399 ,1.46720 ,-0.93667 ,-9.19061 
455 ,82.5159 ,1.46907 ,-0.97089 ,-9.52639 
456 ,82.6920 ,1.47081 ,-0.96405 ,-9.45924 
457 ,82.8841 ,1.47264 ,-0.96063 ,-9.42566 
458 ,83.0603 ,1.47445 ,-0.97431 ,-9.55997 
459 ,83.2844 ,1.47653 ,-0.99485 ,-9.76144 
460 ,83.4607 ,1.47847 ,-0.98800 ,-9.69429 
461 ,83.6524 ,1.48037 ,-1.00511 ,-9.86218 
462 ,83.8287 ,1.48216 ,-1.01538 ,-9.96291 
