Point No.,Normal Force [N],Gap [mm],Time [s]
1.0,4.374404,10.9457,1719
2.0,4.346053,10.9479,1719
3.0,4.229239,10.9561,1719
4.0,4.053381,10.9709,1720
5.0,3.855177,10.9886,1720
6.0,3.677999,11.0084,1720
7.0,3.515946,11.0265,1720
8.0,3.344969,11.0460,1720
9.0,3.189776,11.0632,1720
10.0,3.048699,11.0837,1720
11.0,2.933665,11.1010,1720
12.0,2.803312,11.1210,1720
13.0,2.680938,11.1385,1720
14.0,2.569187,11.1587,1720
15.0,2.473857,11.1764,1720
16.0,2.363513,11.1958,1720
17.0,2.269342,11.2132,1720
18.0,2.179886,11.2335,1720
19.0,2.103794,11.2506,1720
20.0,1.999831,11.2697,1720
21.0,1.889746,11.2881,1720
22.0,1.839849,11.2996,1720
23.0,1.695565,11.3259,1720
24.0,1.581237,11.3439,1720
25.0,1.461726,11.3629,1720
26.0,1.365948,11.3816,1720
27.0,1.250143,11.4007,1720
28.0,1.132591,11.4196,1720
29.0,1.014315,11.4381,1720
30.0,0.918676,11.4556,1720
31.0,0.800402,11.4760,1720
32.0,0.685483,11.4946,1720
33.0,0.564398,11.5129,1720
34.0,0.466518,11.5304,1720
35.0,0.362214,11.5507,1720
36.0,0.271890,11.5683,1720
37.0,0.180408,11.5866,1720
38.0,0.107911,11.6053,1720
39.0,0.015636,11.6242,1720
40.0,-0.066436,11.6431,1720
41.0,-0.143911,11.6616,1720
42.0,-0.225435,11.6806,1720
43.0,-0.298564,11.6996,1720
44.0,-0.389973,11.7184,1721
45.0,-0.471468,11.7370,1721
46.0,-0.541337,11.7554,1721
47.0,-0.617819,11.7744,1721
48.0,-0.694884,11.7932,1721
49.0,-0.773803,11.8116,1721
50.0,-0.835444,11.8302,1721
51.0,-0.903718,11.8493,1721
52.0,-0.971147,11.8682,1721
53.0,-1.034598,11.8865,1721
54.0,-1.082550,11.9051,1721
55.0,-1.135446,11.9241,1721
56.0,-1.184762,11.9429,1721
57.0,-1.228076,11.9614,1721
58.0,-1.267002,11.9800,1721
59.0,-1.308076,11.9994,1721
60.0,-1.352323,12.0180,1721
61.0,-1.399737,12.0367,1721
62.0,-1.437973,12.0554,1721
63.0,-1.469650,12.0739,1721
64.0,-1.494482,12.0929,1721
65.0,-1.533080,12.1120,1721
66.0,-1.570934,12.1303,1721
67.0,-1.605247,12.1491,1721
68.0,-1.643110,12.1678,1721
69.0,-1.682649,12.1865,1721
70.0,-1.700392,12.2052,1721
71.0,-1.694194,12.2240,1721
72.0,-1.694105,12.2428,1721
73.0,-1.735598,12.2615,1721
74.0,-1.765737,12.2807,1721
75.0,-1.793999,12.2992,1721
76.0,-1.819563,12.3178,1721
77.0,-1.852733,12.3368,1721
78.0,-1.884449,12.3557,1721
79.0,-1.880488,12.3745,1721
80.0,-1.889624,12.3933,1721
81.0,-1.883759,12.4124,1721
82.0,-1.876685,12.4308,1721
83.0,-1.873906,12.4495,1721
84.0,-1.847669,12.4684,1722
85.0,-1.878861,12.4870,1722
86.0,-1.894157,12.5063,1722
87.0,-1.891367,12.5247,1722
88.0,-1.918882,12.5432,1722
89.0,-1.945298,12.5624,1722
90.0,-1.969867,12.5813,1722
91.0,-1.960833,12.5999,1722
92.0,-1.959446,12.6188,1722
93.0,-1.983275,12.6376,1722
94.0,-1.942616,12.6568,1722
95.0,-1.944363,12.6751,1722
96.0,-1.908101,12.6940,1722
97.0,-1.880942,12.7131,1722
98.0,-1.869568,12.7326,1722
99.0,-1.876685,12.7504,1722
100.0,-1.871985,12.7704,1722
101.0,-1.862970,12.7877,1722
102.0,-1.835921,12.8081,1722
103.0,-1.808327,12.8254,1722
104.0,-1.823944,12.8454,1722
105.0,-1.793683,12.8631,1722
106.0,-1.752021,12.8831,1722
107.0,-1.592886,12.8997,1722
108.0,-1.538483,12.9210,1722
109.0,-1.529221,12.9383,1722
110.0,-1.453599,12.9587,1722
111.0,-1.398534,12.9756,1722
112.0,-1.398141,12.9960,1722
113.0,-1.355699,13.0138,1722
114.0,-1.328450,13.0322,1722
115.0,-1.273412,13.0511,1722
116.0,-1.244045,13.0709,1722
117.0,-1.118010,13.0885,1722
118.0,-1.066118,13.1075,1722
119.0,-1.032374,13.1253,1722
120.0,-0.981963,13.1450,1722
121.0,-0.937542,13.1626,1722
122.0,-0.862114,13.1826,1722
123.0,-0.854976,13.2004,1722
124.0,-0.856300,13.2202,1723
125.0,-0.797721,13.2380,1723
126.0,-0.726699,13.2582,1723
127.0,-0.695081,13.2752,1723
128.0,-0.670179,13.2953,1723
129.0,-0.629125,13.3131,1723
130.0,-0.574075,13.3333,1723
131.0,-0.526344,13.3509,1723
132.0,-0.408471,13.3705,1723
133.0,-0.384568,13.3885,1723
134.0,-0.331754,13.4086,1723
135.0,-0.261545,13.4261,1723
136.0,-0.220549,13.4461,1723
137.0,-0.148419,13.4637,1723
138.0,-0.092453,13.4837,1723
139.0,-0.099658,13.5015,1723
140.0,-0.057933,13.5212,1723
141.0,-0.044311,13.5390,1723
142.0,-0.051186,13.5593,1723
143.0,-0.040330,13.5765,1723
144.0,-0.000960,13.5969,1723
145.0,0.005757,13.6141,1723
146.0,0.004839,13.6344,1723
147.0,-0.009973,13.6519,1723
148.0,-0.006487,13.6719,1723
149.0,0.004410,13.6897,1723
150.0,0.001249,13.7095,1723
151.0,-0.011272,13.7269,1723
152.0,-0.006279,13.7474,1723
153.0,0.006776,13.7647,1723
154.0,0.006952,13.7844,1723
155.0,-0.005431,13.8022,1723
156.0,-0.002882,13.8224,1723
157.0,0.008273,13.8397,1723
158.0,0.004871,13.8595,1723
159.0,-0.003703,13.8772,1723
160.0,-0.005244,13.8974,1723
161.0,0.011107,13.9147,1723
162.0,0.000362,13.9350,1723
163.0,-0.007839,13.9522,1723
164.0,-0.007388,13.9724,1724
165.0,-0.001675,13.9897,1724
166.0,0.001875,14.0096,1724
167.0,-0.007761,14.0272,1724
168.0,-0.005000,14.0474,1724
169.0,0.008466,14.0647,1724
170.0,0.004205,14.0845,1724
171.0,-0.008673,14.1022,1724
172.0,-0.008160,14.1224,1724
173.0,0.003903,14.1400,1724
174.0,0.002413,14.1601,1724
175.0,-0.006684,14.1775,1724
176.0,-0.000333,14.1979,1724
177.0,0.007013,14.2150,1724
178.0,-0.001058,14.2351,1724
179.0,-0.005596,14.2528,1724
180.0,-0.005747,14.2725,1724
181.0,0.005112,14.2906,1724
182.0,0.005872,14.3102,1724
183.0,-0.008003,14.3278,1724
184.0,-0.006811,14.3480,1724
185.0,0.007822,14.3653,1724
186.0,0.002493,14.3851,1724
187.0,-0.002727,14.4034,1724
188.0,-0.009116,14.4231,1724
189.0,0.007190,14.4409,1724
190.0,0.011256,14.4607,1724
191.0,-0.002113,14.4771,1724
192.0,0.004026,14.4986,1724
193.0,0.008008,14.5159,1724
194.0,0.004859,14.5344,1724
195.0,0.000471,14.5525,1724
196.0,-0.006987,14.5736,1724
197.0,0.005498,14.5913,1724
198.0,0.004733,14.6107,1724
199.0,-0.002630,14.6288,1724
200.0,-0.001171,14.6463,1724
201.0,0.003677,14.6663,1724
202.0,0.006418,14.6850,1724
203.0,-0.002404,14.7038,1724
204.0,-0.010177,14.7225,1725
205.0,0.006331,14.7404,1725
206.0,0.004184,14.7588,1725
207.0,0.001925,14.7779,1725
208.0,0.001726,14.7968,1725
209.0,0.002854,14.8150,1725
210.0,0.006544,14.8344,1725
211.0,-0.003573,14.8527,1725
212.0,-0.005593,14.8712,1725
213.0,0.005332,14.8902,1725
214.0,0.006245,14.9088,1725
215.0,-0.001518,14.9279,1725
216.0,-0.008739,14.9463,1725
217.0,0.001394,14.9650,1725
218.0,0.005385,14.9844,1725
