Point No.,Normal Force [N],Gap [mm],Time [s]
1.0,4.655553,10.9015,1.855E+04
2.0,4.658892,10.9015,1.855E+04
3.0,4.653575,10.9015,1.855E+04
4.0,4.650164,10.9018,1.855E+04
5.0,4.631541,10.9030,1.855E+04
6.0,4.595990,10.9055,1.855E+04
7.0,4.514031,10.9095,1.855E+04
8.0,4.441882,10.9142,1.855E+04
9.0,4.369816,10.9188,1.855E+04
10.0,4.310830,10.9238,1.855E+04
11.0,4.248102,10.9291,1.855E+04
12.0,4.185517,10.9340,1.855E+04
13.0,4.127929,10.9387,1.855E+04
14.0,4.072559,10.9437,1.855E+04
15.0,4.027507,10.9489,1.855E+04
16.0,3.984141,10.9539,1.855E+04
17.0,3.935383,10.9611,1.855E+04
18.0,3.889733,10.9635,1.855E+04
19.0,3.838955,10.9688,1.855E+04
20.0,3.786376,10.9738,1.855E+04
21.0,3.748658,10.9785,1.855E+04
22.0,3.704020,10.9834,1.855E+04
23.0,3.652093,10.9887,1.855E+04
24.0,3.602734,10.9937,1.855E+04
25.0,3.567760,10.9984,1.855E+04
26.0,3.524288,11.0033,1.855E+04
27.0,3.475331,11.0086,1.855E+04
28.0,3.433435,11.0136,1.855E+04
29.0,3.401321,11.0183,1.855E+04
30.0,3.359748,11.0232,1.855E+04
31.0,3.314323,11.0285,1.855E+04
32.0,3.272032,11.0335,1.855E+04
33.0,3.238705,11.0382,1.855E+04
34.0,3.201422,11.0431,1.855E+04
35.0,3.162060,11.0484,1.855E+04
36.0,3.123493,11.0534,1.855E+04
37.0,3.093729,11.0581,1.855E+04
38.0,3.059067,11.0631,1.855E+04
39.0,3.024725,11.0680,1.855E+04
40.0,2.979939,11.0730,1.855E+04
41.0,2.952754,11.0780,1.855E+04
42.0,2.921892,11.0830,1.855E+04
43.0,2.885235,11.0883,1.855E+04
44.0,2.851593,11.0932,1.855E+04
45.0,2.823556,11.0979,1.855E+04
46.0,2.796633,11.1029,1.855E+04
47.0,2.760365,11.1079,1.855E+04
48.0,2.725700,11.1129,1.855E+04
49.0,2.699858,11.1178,1.855E+04
50.0,2.669895,11.1228,1.855E+04
51.0,2.638588,11.1278,1.855E+04
52.0,2.608325,11.1328,1.855E+04
53.0,2.580798,11.1378,1.855E+04
54.0,2.557031,11.1428,1.855E+04
55.0,2.527692,11.1477,1.855E+04
56.0,2.497662,11.1527,1.855E+04
57.0,2.471034,11.1577,1.855E+04
58.0,2.446142,11.1624,1.855E+04
59.0,2.417550,11.1674,1.855E+04
60.0,2.388267,11.1727,1.855E+04
61.0,2.363005,11.1776,1.855E+04
62.0,2.338197,11.1826,1.855E+04
63.0,2.312437,11.1876,1.855E+04
64.0,2.287873,11.1926,1.855E+04
65.0,2.265824,11.1976,1.855E+04
66.0,2.249542,11.2026,1.855E+04
67.0,2.222418,11.2076,1.855E+04
68.0,2.197536,11.2125,1.855E+04
69.0,2.183692,11.2175,1.855E+04
70.0,2.159792,11.2222,1.855E+04
71.0,2.133888,11.2272,1.855E+04
72.0,2.104931,11.2325,1.855E+04
73.0,2.080826,11.2375,1.855E+04
74.0,2.057826,11.2422,1.855E+04
75.0,2.027577,11.2471,1.855E+04
76.0,1.999942,11.2524,1.855E+04
77.0,1.972212,11.2574,1.855E+04
78.0,1.949893,11.2621,1.855E+04
79.0,1.920970,11.2671,1.855E+04
80.0,1.886822,11.2724,1.855E+04
81.0,1.859551,11.2773,1.855E+04
82.0,1.836673,11.2823,1.855E+04
83.0,1.806638,11.2873,1.855E+04
84.0,1.777377,11.2923,1.855E+04
85.0,1.749418,11.2973,1.855E+04
86.0,1.726495,11.3020,1.855E+04
87.0,1.691679,11.3069,1.855E+04
88.0,1.661424,11.3122,1.855E+04
89.0,1.634099,11.3172,1.855E+04
90.0,1.605462,11.3222,1.855E+04
91.0,1.572591,11.3272,1.855E+04
92.0,1.542092,11.3322,1.855E+04
93.0,1.513112,11.3371,1.855E+04
94.0,1.480077,11.3421,1.855E+04
95.0,1.449525,11.3471,1.855E+04
96.0,1.422818,11.3521,1.855E+04
97.0,1.386664,11.3546,1.855E+04
98.0,1.360746,11.3596,1.855E+04
99.0,1.326175,11.3673,1.855E+04
100.0,1.294767,11.3723,1.855E+04
101.0,1.263919,11.3770,1.855E+04
102.0,1.237810,11.3820,1.855E+04
103.0,1.207070,11.3870,1.855E+04
104.0,1.172663,11.3919,1.855E+04
105.0,1.138398,11.3969,1.855E+04
106.0,1.116462,11.4019,1.855E+04
107.0,1.083231,11.4069,1.855E+04
108.0,1.047837,11.4094,1.855E+04
109.0,1.014314,11.4143,1.855E+04
110.0,0.990758,11.4193,1.855E+04
111.0,0.955097,11.4271,1.855E+04
112.0,0.924863,11.4321,1.855E+04
113.0,0.890575,11.4368,1.855E+04
114.0,0.864760,11.4418,1.855E+04
115.0,0.827297,11.4467,1.855E+04
116.0,0.799430,11.4517,1.855E+04
117.0,0.769437,11.4567,1.855E+04
118.0,0.739911,11.4592,1.855E+04
119.0,0.704075,11.4642,1.855E+04
120.0,0.682060,11.4698,1.855E+04
121.0,0.645312,11.4766,1.855E+04
122.0,0.617002,11.4816,1.855E+04
123.0,0.582773,11.4866,1.855E+04
124.0,0.547812,11.4916,1.855E+04
125.0,0.502829,11.4965,1.855E+04
126.0,0.480711,11.5015,1.855E+04
127.0,0.446858,11.5068,1.855E+04
128.0,0.422450,11.5096,1.855E+04
129.0,0.389474,11.5140,1.855E+04
130.0,0.372249,11.5190,1.855E+04
131.0,0.345387,11.5268,1.855E+04
132.0,0.319039,11.5317,1.855E+04
133.0,0.287405,11.5364,1.855E+04
134.0,0.271695,11.5414,1.855E+04
135.0,0.240072,11.5467,1.855E+04
136.0,0.214929,11.5517,1.855E+04
137.0,0.185745,11.5539,1.855E+04
138.0,0.165247,11.5588,1.855E+04
139.0,0.136668,11.5638,1.855E+04
140.0,0.111768,11.5694,1.855E+04
141.0,0.078969,11.5763,1.855E+04
142.0,0.064873,11.5813,1.855E+04
143.0,0.035102,11.5866,1.855E+04
144.0,0.011242,11.5916,1.855E+04
145.0,-0.019612,11.5962,1.855E+04
146.0,-0.036315,11.5987,1.855E+04
147.0,-0.061235,11.6037,1.855E+04
148.0,-0.083778,11.6093,1.855E+04
149.0,-0.118740,11.6137,1.855E+04
150.0,-0.132831,11.6187,1.855E+04
151.0,-0.154209,11.6237,1.855E+04
152.0,-0.179037,11.6293,1.855E+04
153.0,-0.208326,11.6336,1.855E+04
154.0,-0.224024,11.6386,1.855E+04
155.0,-0.254176,11.6436,1.855E+04
156.0,-0.273033,11.6486,1.855E+04
157.0,-0.301985,11.6536,1.855E+04
158.0,-0.329214,11.6586,1.855E+04
159.0,-0.348658,11.6635,1.855E+04
160.0,-0.366289,11.6692,1.855E+04
161.0,-0.392745,11.6735,1.855E+04
162.0,-0.416710,11.6785,1.855E+04
163.0,-0.430617,11.6835,1.855E+04
164.0,-0.444410,11.6885,1.855E+04
165.0,-0.463811,11.6935,1.855E+04
166.0,-0.468985,11.6985,1.855E+04
167.0,-0.492817,11.7035,1.855E+04
168.0,-0.513912,11.7091,1.855E+04
169.0,-0.556586,11.7134,1.855E+04
170.0,-0.560919,11.7184,1.855E+04
171.0,-0.600301,11.7234,1.855E+04
172.0,-0.621382,11.7284,1.855E+04
173.0,-0.645170,11.7334,1.855E+04
174.0,-0.659589,11.7384,1.855E+04
175.0,-0.687391,11.7433,1.855E+04
176.0,-0.695247,11.7490,1.855E+04
177.0,-0.733545,11.7533,1.855E+04
178.0,-0.738314,11.7583,1.855E+04
179.0,-0.768111,11.7633,1.855E+04
180.0,-0.781372,11.7683,1.855E+04
181.0,-0.809404,11.7733,1.855E+04
182.0,-0.818010,11.7783,1.855E+04
183.0,-0.839434,11.7833,1.855E+04
184.0,-0.853486,11.7882,1.855E+04
185.0,-0.887064,11.7932,1.855E+04
186.0,-0.895326,11.7982,1.855E+04
187.0,-0.918001,11.8032,1.855E+04
188.0,-0.928688,11.8082,1.855E+04
189.0,-0.963051,11.8132,1.855E+04
190.0,-0.975632,11.8182,1.855E+04
191.0,-0.993201,11.8232,1.855E+04
192.0,-1.004288,11.8282,1.855E+04
193.0,-1.036823,11.8331,1.855E+04
194.0,-1.046215,11.8381,1.855E+04
195.0,-1.067370,11.8431,1.855E+04
196.0,-1.075198,11.8481,1.855E+04
197.0,-1.103891,11.8531,1.855E+04
198.0,-1.116942,11.8581,1.855E+04
199.0,-1.130271,11.8631,1.855E+04
200.0,-1.137529,11.8681,1.855E+04
201.0,-1.160844,11.8731,1.855E+04
202.0,-1.166042,11.8781,1.855E+04
203.0,-1.185078,11.8831,1.855E+04
204.0,-1.190818,11.8887,1.855E+04
205.0,-1.210573,11.8930,1.855E+04
206.0,-1.208282,11.8980,1.855E+04
207.0,-1.230316,11.9024,1.855E+04
208.0,-1.235032,11.9080,1.855E+04
209.0,-1.265906,11.9130,1.855E+04
210.0,-1.270980,11.9180,1.855E+04
211.0,-1.288141,11.9224,1.855E+04
212.0,-1.300447,11.9280,1.855E+04
213.0,-1.330519,11.9330,1.855E+04
214.0,-1.332053,11.9380,1.855E+04
215.0,-1.352528,11.9430,1.855E+04
216.0,-1.362167,11.9479,1.855E+04
217.0,-1.387936,11.9529,1.855E+04
218.0,-1.387480,11.9579,1.855E+04
219.0,-1.403682,11.9623,1.855E+04
220.0,-1.412930,11.9679,1.855E+04
221.0,-1.437929,11.9729,1.855E+04
222.0,-1.442500,11.9779,1.855E+04
223.0,-1.465207,11.9823,1.855E+04
224.0,-1.472158,11.9879,1.855E+04
225.0,-1.496294,11.9929,1.855E+04
226.0,-1.506579,11.9979,1.855E+04
227.0,-1.523578,12.0022,1.855E+04
228.0,-1.523014,12.0079,1.855E+04
229.0,-1.556725,12.0122,1.855E+04
230.0,-1.563989,12.0178,1.855E+04
231.0,-1.580603,12.0222,1.855E+04
232.0,-1.583143,12.0278,1.855E+04
233.0,-1.613033,12.0322,1.855E+04
234.0,-1.619191,12.0372,1.855E+04
235.0,-1.633968,12.0422,1.855E+04
236.0,-1.638490,12.0478,1.855E+04
237.0,-1.665191,12.0521,1.855E+04
238.0,-1.672308,12.0571,1.855E+04
239.0,-1.689140,12.0621,1.855E+04
240.0,-1.694662,12.0677,1.855E+04
241.0,-1.723937,12.0721,1.855E+04
242.0,-1.726046,12.0771,1.855E+04
243.0,-1.748557,12.0821,1.855E+04
244.0,-1.748282,12.0877,1.855E+04
245.0,-1.769666,12.0921,1.855E+04
246.0,-1.760624,12.0971,1.855E+04
247.0,-1.777929,12.1021,1.855E+04
248.0,-1.783323,12.1077,1.855E+04
249.0,-1.808328,12.1121,1.855E+04
250.0,-1.812836,12.1171,1.855E+04
251.0,-1.827115,12.1220,1.855E+04
252.0,-1.827673,12.1277,1.855E+04
253.0,-1.858770,12.1327,1.855E+04
254.0,-1.864267,12.1377,1.855E+04
255.0,-1.881167,12.1420,1.855E+04
256.0,-1.882359,12.1476,1.855E+04
257.0,-1.907131,12.1520,1.855E+04
258.0,-1.909294,12.1570,1.855E+04
259.0,-1.927681,12.1620,1.855E+04
260.0,-1.927686,12.1676,1.855E+04
261.0,-1.957681,12.1720,1.855E+04
262.0,-1.960669,12.1770,1.855E+04
263.0,-1.980086,12.1820,1.855E+04
264.0,-1.974924,12.1876,1.855E+04
265.0,-2.001447,12.1919,1.855E+04
266.0,-1.987662,12.1970,1.855E+04
267.0,-1.992792,12.2019,1.855E+04
268.0,-1.991429,12.2070,1.855E+04
269.0,-2.018057,12.2119,1.855E+04
270.0,-2.022607,12.2169,1.855E+04
271.0,-2.039580,12.2219,1.855E+04
272.0,-2.038109,12.2275,1.855E+04
273.0,-2.065244,12.2319,1.855E+04
274.0,-2.065731,12.2369,1.855E+04
275.0,-2.078807,12.2419,1.855E+04
276.0,-2.078342,12.2469,1.855E+04
277.0,-2.090640,12.2519,1.855E+04
278.0,-2.082418,12.2569,1.855E+04
279.0,-2.098702,12.2619,1.855E+04
280.0,-2.096564,12.2669,1.855E+04
281.0,-2.115483,12.2719,1.855E+04
282.0,-2.092930,12.2769,1.855E+04
283.0,-2.108443,12.2819,1.855E+04
284.0,-2.087419,12.2875,1.855E+04
285.0,-2.101805,12.2919,1.855E+04
286.0,-2.105888,12.2969,1.855E+04
287.0,-2.123215,12.3019,1.855E+04
288.0,-2.123138,12.3075,1.855E+04
289.0,-2.147070,12.3119,1.855E+04
290.0,-2.146355,12.3175,1.855E+04
291.0,-2.164795,12.3218,1.855E+04
292.0,-2.163161,12.3275,1.855E+04
293.0,-2.188635,12.3318,1.855E+04
294.0,-2.190295,12.3368,1.855E+04
295.0,-2.203863,12.3418,1.855E+04
296.0,-2.201814,12.3468,1.855E+04
297.0,-2.225831,12.3518,1.855E+04
298.0,-2.232387,12.3568,1.855E+04
299.0,-2.247767,12.3618,1.855E+04
300.0,-2.245020,12.3674,1.855E+04
301.0,-2.270832,12.3718,1.855E+04
302.0,-2.273582,12.3768,1.855E+04
303.0,-2.286540,12.3818,1.855E+04
304.0,-2.284625,12.3874,1.855E+04
305.0,-2.306825,12.3918,1.855E+04
306.0,-2.311791,12.3968,1.855E+04
307.0,-2.330419,12.4018,1.855E+04
308.0,-2.323741,12.4074,1.855E+04
309.0,-2.347805,12.4124,1.855E+04
310.0,-2.350066,12.4174,1.855E+04
311.0,-2.369559,12.4217,1.855E+04
312.0,-2.360442,12.4274,1.855E+04
313.0,-2.388124,12.4317,1.855E+04
314.0,-2.391671,12.4367,1.855E+04
315.0,-2.405714,12.4417,1.855E+04
316.0,-2.400267,12.4473,1.855E+04
317.0,-2.423124,12.4517,1.855E+04
318.0,-2.425925,12.4573,1.855E+04
319.0,-2.438688,12.4617,1.855E+04
320.0,-2.435177,12.4673,1.855E+04
321.0,-2.458649,12.4723,1.855E+04
322.0,-2.436222,12.4773,1.855E+04
323.0,-2.437758,12.4817,1.855E+04
324.0,-2.432345,12.4873,1.855E+04
325.0,-2.454723,12.4917,1.855E+04
326.0,-2.457832,12.4967,1.855E+04
327.0,-2.473816,12.5017,1.855E+04
328.0,-2.444978,12.5073,1.855E+04
329.0,-2.444426,12.5117,1.855E+04
330.0,-2.451625,12.5173,1.855E+04
331.0,-2.455765,12.5217,1.855E+04
332.0,-2.426715,12.5273,1.855E+04
333.0,-2.423816,12.5317,1.855E+04
334.0,-2.430437,12.5367,1.855E+04
335.0,-2.442916,12.5417,1.855E+04
336.0,-2.437243,12.5473,1.855E+04
337.0,-2.454330,12.5517,1.855E+04
338.0,-2.461417,12.5567,1.855E+04
339.0,-2.474225,12.5617,1.855E+04
340.0,-2.471164,12.5673,1.855E+04
341.0,-2.489673,12.5723,1.855E+04
342.0,-2.495677,12.5773,1.855E+04
343.0,-2.501723,12.5816,1.855E+04
344.0,-2.477810,12.5873,1.855E+04
345.0,-2.476835,12.5917,1.855E+04
346.0,-2.482016,12.5967,1.855E+04
347.0,-2.497003,12.6017,1.855E+04
348.0,-2.457683,12.6073,1.855E+04
349.0,-2.464651,12.6123,1.855E+04
350.0,-2.465256,12.6173,1.855E+04
351.0,-2.480377,12.6217,1.855E+04
352.0,-2.453222,12.6273,1.855E+04
353.0,-2.429343,12.6317,1.855E+04
354.0,-2.438410,12.6367,1.855E+04
355.0,-2.455378,12.6417,1.855E+04
356.0,-2.443753,12.6473,1.855E+04
357.0,-2.462441,12.6517,1.855E+04
358.0,-2.467372,12.6567,1.855E+04
359.0,-2.479441,12.6617,1.855E+04
360.0,-2.473423,12.6673,1.855E+04
361.0,-2.491291,12.6717,1.855E+04
362.0,-2.494218,12.6767,1.855E+04
363.0,-2.476205,12.6817,1.855E+04
364.0,-2.468635,12.6867,1.855E+04
365.0,-2.487150,12.6917,1.855E+04
366.0,-2.488927,12.6967,1.855E+04
367.0,-2.500290,12.7016,1.855E+04
368.0,-2.500290,12.7073,1.855E+04
369.0,-2.510685,12.7123,1.855E+04
370.0,-2.515990,12.7166,1.855E+04
371.0,-2.534120,12.7216,1.855E+04
372.0,-2.526794,12.7266,1.855E+04
373.0,-2.537029,12.7316,1.855E+04
374.0,-2.546217,12.7366,1.855E+04
375.0,-2.526930,12.7416,1.855E+04
376.0,-2.516161,12.7466,1.855E+04
377.0,-2.527236,12.7523,1.855E+04
378.0,-2.537101,12.7573,1.855E+04
379.0,-2.548754,12.7616,1.855E+04
380.0,-2.545072,12.7666,1.855E+04
381.0,-2.559514,12.7716,1.855E+04
382.0,-2.564716,12.7766,1.855E+04
383.0,-2.577180,12.7816,1.855E+04
384.0,-2.575922,12.7866,1.855E+04
385.0,-2.589581,12.7916,1.855E+04
386.0,-2.589507,12.7972,1.855E+04
387.0,-2.600124,12.8016,1.855E+04
388.0,-2.597595,12.8072,1.855E+04
389.0,-2.607171,12.8116,1.855E+04
390.0,-2.611800,12.8166,1.855E+04
391.0,-2.625834,12.8216,1.855E+04
392.0,-2.624728,12.8266,1.855E+04
393.0,-2.635314,12.8316,1.855E+04
394.0,-2.643124,12.8366,1.855E+04
395.0,-2.652064,12.8416,1.855E+04
396.0,-2.650891,12.8472,1.855E+04
397.0,-2.661448,12.8516,1.855E+04
398.0,-2.668083,12.8566,1.855E+04
399.0,-2.684758,12.8615,1.855E+04
400.0,-2.671938,12.8665,1.855E+04
401.0,-2.681667,12.8715,1.855E+04
402.0,-2.692792,12.8765,1.855E+04
403.0,-2.703444,12.8809,1.855E+04
404.0,-2.693874,12.8865,1.855E+04
405.0,-2.701234,12.8915,1.855E+04
406.0,-2.707582,12.8965,1.855E+04
407.0,-2.719283,12.9015,1.855E+04
408.0,-2.719448,12.9065,1.855E+04
409.0,-2.725736,12.9115,1.855E+04
410.0,-2.703657,12.9165,1.855E+04
411.0,-2.712679,12.9209,1.855E+04
412.0,-2.710631,12.9265,1.855E+04
413.0,-2.715207,12.9315,1.855E+04
414.0,-2.723234,12.9365,1.855E+04
415.0,-2.737772,12.9415,1.855E+04
416.0,-2.733557,12.9465,1.855E+04
417.0,-2.740800,12.9515,1.855E+04
418.0,-2.747957,12.9565,1.855E+04
419.0,-2.761567,12.9609,1.855E+04
420.0,-2.755675,12.9665,1.855E+04
421.0,-2.765454,12.9715,1.855E+04
422.0,-2.768417,12.9765,1.855E+04
423.0,-2.781347,12.9809,1.855E+04
424.0,-2.778870,12.9865,1.855E+04
425.0,-2.785985,12.9915,1.855E+04
426.0,-2.793375,12.9965,1.855E+04
427.0,-2.799418,13.0008,1.855E+04
428.0,-2.797856,13.0065,1.855E+04
429.0,-2.771637,13.0109,1.855E+04
430.0,-2.761779,13.0159,1.855E+04
431.0,-2.774982,13.0209,1.855E+04
432.0,-2.730625,13.0259,1.855E+04
433.0,-2.731457,13.0315,1.855E+04
434.0,-2.742072,13.0365,1.855E+04
435.0,-2.753070,13.0409,1.855E+04
436.0,-2.748034,13.0465,1.855E+04
437.0,-2.756767,13.0509,1.855E+04
438.0,-2.762051,13.0559,1.855E+04
439.0,-2.774000,13.0609,1.855E+04
440.0,-2.771244,13.0659,1.855E+04
441.0,-2.775702,13.0709,1.855E+04
442.0,-2.782404,13.0759,1.855E+04
443.0,-2.795444,13.0809,1.855E+04
444.0,-2.793086,13.0865,1.855E+04
445.0,-2.798016,13.0915,1.855E+04
446.0,-2.805810,13.0958,1.855E+04
447.0,-2.817276,13.1008,1.855E+04
448.0,-2.816823,13.1058,1.855E+04
449.0,-2.819294,13.1108,1.855E+04
450.0,-2.829240,13.1158,1.855E+04
451.0,-2.836332,13.1208,1.855E+04
452.0,-2.837529,13.1258,1.855E+04
453.0,-2.840282,13.1314,1.855E+04
454.0,-2.846456,13.1364,1.855E+04
455.0,-2.857019,13.1408,1.855E+04
456.0,-2.855273,13.1458,1.855E+04
457.0,-2.862718,13.1508,1.855E+04
458.0,-2.871340,13.1558,1.855E+04
459.0,-2.879720,13.1608,1.855E+04
460.0,-2.880795,13.1658,1.855E+04
461.0,-2.882572,13.1708,1.855E+04
462.0,-2.890257,13.1764,1.855E+04
463.0,-2.901129,13.1808,1.855E+04
464.0,-2.899184,13.1858,1.855E+04
465.0,-2.903741,13.1908,1.855E+04
466.0,-2.910367,13.1958,1.855E+04
467.0,-2.917127,13.2008,1.855E+04
468.0,-2.905833,13.2058,1.855E+04
469.0,-2.873725,13.2108,1.855E+04
470.0,-2.882336,13.2158,1.855E+04
471.0,-2.890391,13.2208,1.855E+04
472.0,-2.891707,13.2264,1.855E+04
473.0,-2.895151,13.2308,1.855E+04
474.0,-2.896138,13.2358,1.855E+04
475.0,-2.910505,13.2408,1.855E+04
476.0,-2.912381,13.2458,1.855E+04
477.0,-2.909816,13.2508,1.855E+04
478.0,-2.918441,13.2558,1.855E+04
479.0,-2.925602,13.2608,1.855E+04
480.0,-2.926652,13.2658,1.855E+04
481.0,-2.929589,13.2708,1.855E+04
482.0,-2.936951,13.2758,1.855E+04
483.0,-2.944443,13.2808,1.855E+04
484.0,-2.945614,13.2858,1.855E+04
485.0,-2.946753,13.2908,1.855E+04
486.0,-2.951443,13.2958,1.855E+04
487.0,-2.962513,13.3008,1.855E+04
488.0,-2.963953,13.3058,1.855E+04
489.0,-2.939612,13.3108,1.855E+04
490.0,-2.919388,13.3158,1.855E+04
491.0,-2.925427,13.3208,1.855E+04
492.0,-2.933014,13.3258,1.855E+04
493.0,-2.928240,13.3308,1.855E+04
494.0,-2.932815,13.3358,1.855E+04
495.0,-2.892889,13.3408,1.855E+04
496.0,-2.846147,13.3458,1.855E+04
497.0,-2.801583,13.3508,1.855E+04
498.0,-2.786832,13.3559,1.855E+04
499.0,-2.773142,13.3609,1.855E+04
500.0,-2.700564,13.3659,1.855E+04
501.0,-2.694632,13.3709,1.855E+04
502.0,-2.651947,13.3759,1.855E+04
503.0,-2.658109,13.3809,1.855E+04
504.0,-2.661230,13.3859,1.855E+04
505.0,-2.576935,13.3910,1.855E+04
506.0,-2.565878,13.3960,1.855E+04
507.0,-2.534520,13.4010,1.855E+04
508.0,-2.478380,13.4067,1.855E+04
509.0,-2.462850,13.4110,1.855E+04
510.0,-2.467503,13.4160,1.855E+04
511.0,-2.471231,13.4210,1.855E+04
512.0,-2.382219,13.4261,1.855E+04
513.0,-2.378761,13.4311,1.855E+04
514.0,-2.377428,13.4361,1.855E+04
515.0,-2.350370,13.4411,1.855E+04
516.0,-2.339743,13.4461,1.855E+04
517.0,-2.336224,13.4511,1.855E+04
518.0,-2.338454,13.4561,1.855E+04
519.0,-2.350669,13.4611,1.855E+04
520.0,-2.348079,13.4661,1.855E+04
521.0,-2.312224,13.4711,1.855E+04
522.0,-2.237339,13.4762,1.855E+04
523.0,-2.244560,13.4812,1.855E+04
524.0,-2.245127,13.4862,1.855E+04
525.0,-2.224232,13.4912,1.855E+04
526.0,-2.135440,13.4962,1.855E+04
527.0,-2.130786,13.5012,1.855E+04
528.0,-2.098196,13.5063,1.855E+04
529.0,-2.097422,13.5113,1.855E+04
530.0,-2.092971,13.5163,1.855E+04
531.0,-2.051831,13.5213,1.855E+04
532.0,-2.049619,13.5263,1.855E+04
533.0,-2.047634,13.5313,1.855E+04
534.0,-2.045967,13.5363,1.855E+04
535.0,-2.048740,13.5413,1.855E+04
536.0,-2.041819,13.5469,1.855E+04
537.0,-1.992523,13.5513,1.855E+04
538.0,-1.986783,13.5563,1.855E+04
539.0,-1.884908,13.5614,1.855E+04
540.0,-1.841779,13.5664,1.855E+04
541.0,-1.837505,13.5714,1.855E+04
542.0,-1.818934,13.5764,1.855E+04
543.0,-1.789455,13.5814,1.855E+04
544.0,-1.790180,13.5864,1.855E+04
545.0,-1.785686,13.5921,1.855E+04
546.0,-1.785109,13.5964,1.855E+04
547.0,-1.788939,13.6014,1.855E+04
548.0,-1.790271,13.6064,1.855E+04
549.0,-1.784674,13.6114,1.855E+04
550.0,-1.738808,13.6165,1.855E+04
551.0,-1.671716,13.6215,1.855E+04
552.0,-1.672245,13.6265,1.855E+04
553.0,-1.618571,13.6315,1.855E+04
554.0,-1.575640,13.6366,1.855E+04
555.0,-1.489390,13.6416,1.855E+04
556.0,-1.353402,13.6467,1.855E+04
557.0,-1.326858,13.6517,1.855E+04
558.0,-1.222918,13.6568,1.855E+04
559.0,-1.220821,13.6618,1.855E+04
560.0,-1.178880,13.6668,1.855E+04
561.0,-1.098861,13.6719,1.855E+04
562.0,-1.085852,13.6769,1.855E+04
563.0,-0.981667,13.6819,1.855E+04
564.0,-0.925633,13.6870,1.855E+04
565.0,-0.849668,13.6920,1.855E+04
566.0,-0.806516,13.6970,1.855E+04
567.0,-0.810596,13.7020,1.855E+04
568.0,-0.785637,13.7070,1.855E+04
569.0,-0.688875,13.7121,1.855E+04
570.0,-0.648957,13.7171,1.855E+04
571.0,-0.552908,13.7222,1.855E+04
572.0,-0.498896,13.7272,1.855E+04
573.0,-0.492969,13.7322,1.855E+04
574.0,-0.422109,13.7373,1.855E+04
575.0,-0.370274,13.7423,1.855E+04
576.0,-0.302598,13.7473,1.855E+04
577.0,-0.225436,13.7524,1.855E+04
