Point No.,Normal Force [N],Gap [mm],Time [s]
1.0,4.666289,10.9015,8981
2.0,4.660190,10.9015,8981
3.0,4.655149,10.9015,8981
4.0,4.646269,10.9021,8981
5.0,4.630340,10.9046,8981
6.0,4.552653,10.9077,8981
7.0,4.493074,10.9120,8981
8.0,4.431700,10.9164,8981
9.0,4.386633,10.9220,8981
10.0,4.321941,10.9263,8981
11.0,4.272356,10.9319,8981
12.0,4.205109,10.9362,8981
13.0,4.161471,10.9412,8981
14.0,4.105929,10.9462,8981
15.0,4.059792,10.9518,8981
16.0,3.999067,10.9561,8981
17.0,3.966504,10.9611,8981
18.0,3.921536,10.9661,8981
19.0,3.879593,10.9717,8981
20.0,3.823241,10.9760,8981
21.0,3.786996,10.9810,8981
22.0,3.729315,10.9860,8981
23.0,3.689682,10.9916,8981
24.0,3.633500,10.9959,8981
25.0,3.600321,11.0009,8981
26.0,3.551499,11.0058,8981
27.0,3.514050,11.0114,8981
28.0,3.464178,11.0158,8981
29.0,3.433255,11.0208,8981
30.0,3.386778,11.0257,8981
31.0,3.355872,11.0314,8981
32.0,3.300501,11.0357,8981
33.0,3.271403,11.0407,8981
34.0,3.234286,11.0457,8981
35.0,3.205700,11.0513,8981
36.0,3.149229,11.0556,8981
37.0,3.125670,11.0606,8981
38.0,3.084819,11.0656,8981
39.0,3.061487,11.0712,8981
40.0,3.011934,11.0755,8981
41.0,2.986652,11.0805,8981
42.0,2.950159,11.0855,8981
43.0,2.928310,11.0911,8981
44.0,2.878990,11.0954,8981
45.0,2.858784,11.1004,8981
46.0,2.824819,11.1054,8981
47.0,2.799217,11.1110,8981
48.0,2.756897,11.1154,8981
49.0,2.734134,11.1204,8981
50.0,2.702621,11.1253,8981
51.0,2.681694,11.1310,8981
52.0,2.640554,11.1353,8981
53.0,2.625298,11.1403,8981
54.0,2.585266,11.1453,8981
55.0,2.572920,11.1503,8981
56.0,2.529547,11.1552,8981
57.0,2.510339,11.1602,8981
58.0,2.479785,11.1652,8981
59.0,2.464096,11.1708,8981
60.0,2.419486,11.1752,8981
61.0,2.404129,11.1802,8981
62.0,2.372102,11.1851,8981
63.0,2.360475,11.1908,8981
64.0,2.315312,11.1951,8981
65.0,2.299021,11.2001,8981
66.0,2.267709,11.2051,8981
67.0,2.258462,11.2107,8981
68.0,2.228043,11.2151,8981
69.0,2.214749,11.2201,8981
70.0,2.193692,11.2250,8981
71.0,2.177665,11.2307,8981
72.0,2.135675,11.2350,8981
73.0,2.120187,11.2400,8981
74.0,2.087042,11.2450,8981
75.0,2.069731,11.2506,8982
76.0,2.027379,11.2549,8982
77.0,2.010079,11.2599,8982
78.0,1.977667,11.2649,8982
79.0,1.957882,11.2699,8982
80.0,1.916799,11.2749,8982
81.0,1.898541,11.2799,8982
82.0,1.860555,11.2848,8982
83.0,1.843849,11.2905,8982
84.0,1.800835,11.2948,8982
85.0,1.779404,11.2998,8982
86.0,1.742467,11.3048,8982
87.0,1.724994,11.3104,8982
88.0,1.685329,11.3147,8982
89.0,1.666416,11.3197,8982
90.0,1.625759,11.3247,8982
91.0,1.611309,11.3303,8982
92.0,1.562860,11.3347,8982
93.0,1.538057,11.3397,8982
94.0,1.503086,11.3446,8982
95.0,1.483147,11.3503,8982
96.0,1.439825,11.3546,8982
97.0,1.412303,11.3596,8982
98.0,1.372235,11.3646,8982
99.0,1.354001,11.3702,8982
100.0,1.307424,11.3745,8982
101.0,1.288593,11.3795,8982
102.0,1.250821,11.3845,8982
103.0,1.236996,11.3901,8982
104.0,1.185619,11.3944,8982
105.0,1.161087,11.3994,8982
106.0,1.129203,11.4044,8982
107.0,1.108116,11.4100,8982
108.0,1.059596,11.4144,8982
109.0,1.038873,11.4194,8982
110.0,0.996222,11.4243,8982
111.0,0.981221,11.4300,8982
112.0,0.935130,11.4343,8982
113.0,0.906519,11.4393,8982
114.0,0.874136,11.4443,8982
115.0,0.850748,11.4499,8982
116.0,0.808394,11.4542,8982
117.0,0.781391,11.4592,8982
118.0,0.741957,11.4642,8982
119.0,0.730173,11.4698,8982
120.0,0.683444,11.4742,8982
121.0,0.659189,11.4791,8982
122.0,0.620496,11.4841,8982
123.0,0.603367,11.4897,8982
124.0,0.547734,11.4941,8982
125.0,0.515343,11.4991,8982
126.0,0.480124,11.5040,8982
127.0,0.463444,11.5096,8982
128.0,0.420295,11.5140,8982
129.0,0.402808,11.5190,8982
130.0,0.374494,11.5240,8982
131.0,0.358127,11.5296,8982
132.0,0.324473,11.5339,8982
133.0,0.302710,11.5389,8982
134.0,0.267014,11.5439,8982
135.0,0.253161,11.5495,8982
136.0,0.215878,11.5539,8982
137.0,0.191973,11.5595,8982
138.0,0.162242,11.5638,8982
139.0,0.151831,11.5695,8982
140.0,0.112167,11.5738,8982
141.0,0.085452,11.5794,8982
142.0,0.058859,11.5838,8982
143.0,0.048621,11.5894,8982
144.0,0.009343,11.5938,8982
145.0,-0.013916,11.5994,8982
146.0,-0.041281,11.6037,8982
147.0,-0.054917,11.6093,8982
148.0,-0.093016,11.6137,8982
149.0,-0.113315,11.6193,8982
150.0,-0.138742,11.6237,8982
151.0,-0.155572,11.6293,8982
152.0,-0.185686,11.6336,8982
153.0,-0.208948,11.6393,8982
154.0,-0.239418,11.6436,8982
155.0,-0.246542,11.6492,8982
156.0,-0.277791,11.6536,8982
157.0,-0.299006,11.6592,8982
158.0,-0.334141,11.6636,8982
159.0,-0.340269,11.6692,8982
160.0,-0.372390,11.6735,8982
161.0,-0.394910,11.6791,8982
162.0,-0.423528,11.6835,8982
163.0,-0.433664,11.6891,8982
164.0,-0.467271,11.6935,8982
165.0,-0.490009,11.6991,8982
166.0,-0.513720,11.7034,8982
167.0,-0.516006,11.7091,8982
168.0,-0.542305,11.7134,8982
169.0,-0.554234,11.7190,8982
170.0,-0.572322,11.7234,8982
171.0,-0.578543,11.7290,8982
172.0,-0.620875,11.7334,8982
173.0,-0.630800,11.7390,8982
174.0,-0.682909,11.7433,8982
175.0,-0.685572,11.7490,8983
176.0,-0.712191,11.7533,8983
177.0,-0.726912,11.7589,8983
178.0,-0.754821,11.7633,8983
179.0,-0.764211,11.7689,8983
180.0,-0.796140,11.7733,8983
181.0,-0.810454,11.7789,8983
182.0,-0.832446,11.7833,8983
183.0,-0.843736,11.7889,8983
184.0,-0.867798,11.7932,8983
185.0,-0.887922,11.7989,8983
186.0,-0.913659,11.8032,8983
187.0,-0.925993,11.8088,8983
188.0,-0.950388,11.8132,8983
189.0,-0.964608,11.8188,8983
190.0,-0.991660,11.8232,8983
191.0,-0.997812,11.8288,8983
192.0,-1.020760,11.8331,8983
193.0,-1.040002,11.8388,8983
194.0,-1.069001,11.8431,8983
195.0,-1.074620,11.8487,8983
196.0,-1.098861,11.8531,8983
197.0,-1.116577,11.8581,8983
198.0,-1.132577,11.8631,8983
199.0,-1.135976,11.8687,8983
200.0,-1.160248,11.8731,8983
201.0,-1.168045,11.8781,8983
202.0,-1.188162,11.8830,8983
203.0,-1.194667,11.8887,8983
204.0,-1.207753,11.8930,8983
205.0,-1.224010,11.8980,8983
206.0,-1.244765,11.9030,8983
207.0,-1.251901,11.9086,8983
208.0,-1.271452,11.9130,8983
209.0,-1.287297,11.9180,8983
210.0,-1.311705,11.9230,8983
211.0,-1.318798,11.9286,8983
212.0,-1.337335,11.9330,8983
213.0,-1.355092,11.9380,8983
214.0,-1.371740,11.9429,8983
215.0,-1.378838,11.9486,8983
216.0,-1.396923,11.9529,8983
217.0,-1.412771,11.9579,8983
218.0,-1.423178,11.9629,8983
219.0,-1.432397,11.9685,8983
220.0,-1.447933,11.9729,8983
221.0,-1.459575,11.9779,8983
222.0,-1.478377,11.9829,8983
223.0,-1.485085,11.9885,8983
224.0,-1.497912,11.9929,8983
225.0,-1.517442,11.9979,8983
226.0,-1.536556,12.0028,8983
227.0,-1.532303,12.0078,8983
228.0,-1.547529,12.0128,8983
229.0,-1.562979,12.0178,8983
230.0,-1.581712,12.0228,8983
231.0,-1.591824,12.0284,8983
232.0,-1.607381,12.0328,8983
233.0,-1.620896,12.0378,8983
234.0,-1.637870,12.0428,8983
235.0,-1.643552,12.0478,8983
236.0,-1.660236,12.0528,8983
237.0,-1.671457,12.0578,8983
238.0,-1.693872,12.0628,8983
239.0,-1.697627,12.0677,8983
240.0,-1.717950,12.0727,8983
241.0,-1.728424,12.0777,8983
242.0,-1.748595,12.0827,8983
243.0,-1.756311,12.0877,8983
244.0,-1.764064,12.0927,8983
245.0,-1.767332,12.0977,8983
246.0,-1.765523,12.1021,8983
247.0,-1.774052,12.1077,8983
248.0,-1.783049,12.1127,8983
249.0,-1.797059,12.1177,8983
250.0,-1.814947,12.1227,8983
251.0,-1.822691,12.1277,8983
252.0,-1.832740,12.1327,8983
253.0,-1.847279,12.1377,8983
254.0,-1.863856,12.1420,8983
255.0,-1.872661,12.1476,8983
256.0,-1.887328,12.1526,8983
257.0,-1.898850,12.1576,8983
258.0,-1.917552,12.1626,8983
259.0,-1.923285,12.1676,8983
260.0,-1.933463,12.1726,8983
261.0,-1.942988,12.1776,8983
262.0,-1.961137,12.1820,8983
263.0,-1.968501,12.1876,8983
264.0,-1.979388,12.1926,8983
265.0,-1.989088,12.1976,8983
266.0,-2.004852,12.2019,8983
267.0,-2.013180,12.2076,8983
268.0,-2.024723,12.2126,8983
269.0,-2.037975,12.2175,8983
270.0,-2.050192,12.2219,8983
271.0,-2.056149,12.2275,8983
272.0,-2.069582,12.2325,8983
273.0,-2.081906,12.2375,8983
274.0,-2.095479,12.2419,8983
275.0,-2.100120,12.2475,8984
276.0,-2.112219,12.2525,8984
277.0,-2.122181,12.2575,8984
278.0,-2.133718,12.2625,8984
279.0,-2.089591,12.2675,8984
280.0,-2.092654,12.2725,8984
281.0,-2.102806,12.2775,8984
282.0,-2.123473,12.2819,8984
283.0,-2.127713,12.2875,8984
284.0,-2.135308,12.2925,8984
285.0,-2.142724,12.2975,8984
286.0,-2.155125,12.3025,8984
287.0,-2.157772,12.3075,8984
288.0,-2.141391,12.3125,8984
289.0,-2.124249,12.3175,8984
290.0,-2.109905,12.3225,8984
291.0,-2.111092,12.3275,8984
292.0,-2.120049,12.3325,8984
293.0,-2.129191,12.3375,8984
294.0,-2.138326,12.3425,8984
295.0,-2.131251,12.3475,8984
296.0,-2.132168,12.3525,8984
297.0,-2.141281,12.3575,8984
298.0,-2.154732,12.3625,8984
299.0,-2.161127,12.3675,8984
300.0,-2.168901,12.3725,8984
301.0,-2.175137,12.3775,8984
302.0,-2.183154,12.3825,8984
303.0,-2.172815,12.3875,8984
304.0,-2.171045,12.3925,8984
305.0,-2.178039,12.3975,8984
306.0,-2.171838,12.4025,8984
307.0,-2.167730,12.4075,8984
308.0,-2.171499,12.4125,8984
309.0,-2.179224,12.4175,8984
310.0,-2.195497,12.4225,8984
311.0,-2.195510,12.4275,8984
312.0,-2.203622,12.4324,8984
313.0,-2.185488,12.4375,8984
314.0,-2.192518,12.4425,8984
315.0,-2.189121,12.4475,8984
316.0,-2.164190,12.4525,8984
317.0,-2.171441,12.4575,8984
318.0,-2.187145,12.4625,8984
319.0,-2.187241,12.4681,8984
320.0,-2.193523,12.4725,8984
321.0,-2.199057,12.4775,8984
322.0,-2.212796,12.4824,8984
323.0,-2.222689,12.4874,8984
324.0,-2.227152,12.4924,8984
325.0,-2.236425,12.4974,8984
326.0,-2.249951,12.5024,8984
327.0,-2.239098,12.5081,8984
328.0,-2.218193,12.5124,8984
329.0,-2.225343,12.5174,8984
330.0,-2.236911,12.5224,8984
331.0,-2.249778,12.5274,8984
332.0,-2.249282,12.5324,8984
333.0,-2.258962,12.5374,8984
334.0,-2.270075,12.5424,8984
335.0,-2.275654,12.5474,8984
336.0,-2.279177,12.5524,8984
337.0,-2.286075,12.5574,8984
338.0,-2.305527,12.5624,8984
339.0,-2.307833,12.5680,8984
340.0,-2.286951,12.5724,8984
341.0,-2.275120,12.5774,8984
342.0,-2.285871,12.5824,8984
343.0,-2.297728,12.5880,8984
344.0,-2.304157,12.5924,8984
345.0,-2.304220,12.5974,8984
346.0,-2.315027,12.6024,8984
347.0,-2.327933,12.6080,8984
348.0,-2.332822,12.6124,8984
349.0,-2.331377,12.6174,8984
350.0,-2.344046,12.6224,8984
351.0,-2.353561,12.6274,8984
352.0,-2.357405,12.6324,8984
353.0,-2.358625,12.6374,8984
354.0,-2.367533,12.6424,8984
355.0,-2.377461,12.6480,8984
356.0,-2.379771,12.6523,8984
357.0,-2.383161,12.6573,8984
358.0,-2.392901,12.6623,8984
359.0,-2.400059,12.6673,8984
360.0,-2.403996,12.6723,8984
361.0,-2.407344,12.6773,8984
362.0,-2.422577,12.6823,8984
363.0,-2.427295,12.6879,8984
364.0,-2.433285,12.6923,8984
365.0,-2.437531,12.6973,8984
366.0,-2.446722,12.7023,8984
367.0,-2.454082,12.7073,8984
368.0,-2.452635,12.7123,8984
369.0,-2.440743,12.7173,8984
370.0,-2.419289,12.7223,8984
371.0,-2.394961,12.7273,8984
372.0,-2.393387,12.7323,8984
373.0,-2.398955,12.7373,8984
374.0,-2.408855,12.7423,8984
375.0,-2.414593,12.7473,8985
376.0,-2.420220,12.7523,8985
377.0,-2.424267,12.7573,8985
378.0,-2.435015,12.7623,8985
379.0,-2.438695,12.7673,8985
380.0,-2.442567,12.7723,8985
381.0,-2.445516,12.7773,8985
382.0,-2.449534,12.7823,8985
383.0,-2.428555,12.7879,8985
384.0,-2.430124,12.7923,8985
385.0,-2.432018,12.7973,8985
386.0,-2.439575,12.8023,8985
387.0,-2.451036,12.8073,8985
388.0,-2.452864,12.8123,8985
389.0,-2.452532,12.8173,8985
390.0,-2.462689,12.8223,8985
391.0,-2.471291,12.8279,8985
392.0,-2.479020,12.8323,8985
393.0,-2.480166,12.8373,8985
394.0,-2.488258,12.8423,8985
395.0,-2.490187,12.8473,8985
396.0,-2.498847,12.8523,8985
397.0,-2.504295,12.8573,8985
398.0,-2.511291,12.8616,8985
399.0,-2.519932,12.8673,8985
400.0,-2.523598,12.8723,8985
401.0,-2.529193,12.8773,8985
402.0,-2.537155,12.8823,8985
403.0,-2.538628,12.8873,8985
404.0,-2.542058,12.8923,8985
405.0,-2.540285,12.8973,8985
406.0,-2.516870,12.9016,8985
407.0,-2.525429,12.9073,8985
408.0,-2.524493,12.9123,8985
409.0,-2.528503,12.9173,8985
410.0,-2.535180,12.9216,8985
411.0,-2.543809,12.9272,8985
412.0,-2.543246,12.9323,8985
413.0,-2.522901,12.9373,8985
414.0,-2.507982,12.9416,8985
415.0,-2.513373,12.9473,8985
416.0,-2.516792,12.9523,8985
417.0,-2.520026,12.9573,8985
418.0,-2.526803,12.9616,8985
419.0,-2.529801,12.9673,8985
420.0,-2.497718,12.9723,8985
421.0,-2.497807,12.9773,8985
422.0,-2.503802,12.9816,8985
423.0,-2.516699,12.9873,8985
424.0,-2.522754,12.9916,8985
425.0,-2.516386,12.9973,8985
426.0,-2.527613,13.0016,8985
427.0,-2.535504,13.0073,8985
428.0,-2.540910,13.0116,8985
429.0,-2.539589,13.0173,8985
430.0,-2.546912,13.0216,8985
431.0,-2.556021,13.0272,8985
432.0,-2.558300,13.0316,8985
433.0,-2.557466,13.0366,8985
434.0,-2.564162,13.0416,8985
435.0,-2.576327,13.0472,8985
436.0,-2.575778,13.0516,8985
437.0,-2.574650,13.0566,8985
438.0,-2.586177,13.0616,8985
439.0,-2.591693,13.0672,8985
440.0,-2.576308,13.0722,8985
441.0,-2.547816,13.0766,8985
442.0,-2.523339,13.0816,8985
443.0,-2.527021,13.0873,8985
444.0,-2.529516,13.0916,8985
445.0,-2.532207,13.0966,8985
446.0,-2.536703,13.1016,8985
447.0,-2.541074,13.1073,8985
448.0,-2.543262,13.1116,8985
449.0,-2.545102,13.1172,8985
450.0,-2.548500,13.1216,8985
451.0,-2.559189,13.1272,8985
452.0,-2.563030,13.1316,8985
453.0,-2.558950,13.1366,8985
454.0,-2.530330,13.1416,8985
455.0,-2.533807,13.1466,8985
456.0,-2.538750,13.1516,8985
457.0,-2.538266,13.1573,8985
458.0,-2.545064,13.1616,8985
459.0,-2.552951,13.1672,8985
460.0,-2.556336,13.1716,8985
461.0,-2.556063,13.1766,8985
462.0,-2.561747,13.1816,8985
463.0,-2.566841,13.1866,8985
464.0,-2.571983,13.1916,8985
465.0,-2.571085,13.1966,8985
466.0,-2.575378,13.2016,8985
467.0,-2.580124,13.2072,8985
468.0,-2.586738,13.2116,8985
469.0,-2.586609,13.2166,8985
470.0,-2.588621,13.2216,8985
471.0,-2.559327,13.2266,8985
472.0,-2.551684,13.2316,8985
473.0,-2.549257,13.2366,8985
474.0,-2.552416,13.2416,8985
475.0,-2.562846,13.2466,8986
476.0,-2.566280,13.2516,8986
477.0,-2.564372,13.2566,8986
478.0,-2.569710,13.2616,8986
479.0,-2.577066,13.2666,8986
480.0,-2.579385,13.2716,8986
481.0,-2.577033,13.2766,8986
482.0,-2.582623,13.2816,8986
483.0,-2.588034,13.2866,8986
484.0,-2.588801,13.2916,8986
485.0,-2.589803,13.2972,8986
486.0,-2.595572,13.3016,8986
487.0,-2.602044,13.3072,8986
488.0,-2.603110,13.3116,8986
489.0,-2.603984,13.3166,8986
490.0,-2.563372,13.3216,8986
491.0,-2.562743,13.3266,8986
492.0,-2.564438,13.3316,8986
493.0,-2.564571,13.3366,8986
494.0,-2.489261,13.3417,8986
495.0,-2.468567,13.3473,8986
496.0,-2.409981,13.3517,8986
497.0,-2.375679,13.3567,8986
498.0,-2.311861,13.3618,8986
499.0,-2.279282,13.3668,8986
500.0,-2.285684,13.3718,8986
501.0,-2.284186,13.3768,8986
502.0,-2.287538,13.3818,8986
503.0,-2.241356,13.3868,8986
504.0,-2.142167,13.3925,8986
505.0,-2.145048,13.3969,8986
506.0,-2.145473,13.4019,8986
507.0,-2.151607,13.4069,8986
508.0,-2.150138,13.4119,8986
509.0,-2.155081,13.4169,8986
510.0,-2.155497,13.4219,8986
511.0,-2.159722,13.4269,8986
512.0,-2.161386,13.4293,8986
513.0,-2.163280,13.4375,8986
514.0,-2.161389,13.4418,8986
515.0,-2.165394,13.4475,8986
516.0,-2.166678,13.4518,8986
517.0,-2.166648,13.4568,8986
518.0,-2.162836,13.4618,8986
519.0,-2.120776,13.4669,8986
520.0,-2.121852,13.4719,8986
521.0,-2.080402,13.4769,8986
522.0,-2.071503,13.4794,8986
523.0,-2.043294,13.4847,8986
524.0,-2.028033,13.4919,8986
525.0,-2.026245,13.4969,8986
526.0,-1.975958,13.5020,8986
527.0,-1.971707,13.5070,8986
528.0,-1.921237,13.5120,8986
529.0,-1.925062,13.5170,8986
530.0,-1.884585,13.5220,8986
531.0,-1.852441,13.5270,8986
532.0,-1.819184,13.5296,8986
533.0,-1.820641,13.5349,8986
534.0,-1.816495,13.5399,8986
535.0,-1.820143,13.5477,8986
536.0,-1.820143,13.5521,8986
537.0,-1.759853,13.5571,8986
538.0,-1.706937,13.5621,8986
539.0,-1.670197,13.5671,8986
540.0,-1.648866,13.5722,8986
541.0,-1.609638,13.5772,8986
542.0,-1.603528,13.5822,8986
543.0,-1.563404,13.5847,8986
544.0,-1.557854,13.5900,8986
545.0,-1.559119,13.5953,8986
546.0,-1.554861,13.6000,8986
547.0,-1.508293,13.6072,8986
548.0,-1.508317,13.6122,8986
549.0,-1.511606,13.6172,8986
550.0,-1.504321,13.6222,8986
551.0,-1.508812,13.6272,8986
552.0,-1.506598,13.6297,8986
553.0,-1.501204,13.6351,8986
554.0,-1.443951,13.6401,8986
555.0,-1.410432,13.6451,8986
556.0,-1.337800,13.6523,8986
557.0,-1.292520,13.6574,8986
558.0,-1.277618,13.6624,8986
559.0,-1.272962,13.6674,8986
560.0,-1.227248,13.6724,8986
561.0,-1.227152,13.6774,8986
562.0,-1.221889,13.6799,8986
563.0,-1.202656,13.6852,8986
564.0,-1.169649,13.6902,8986
565.0,-1.053947,13.6950,8986
566.0,-0.958737,13.7001,8986
567.0,-0.899673,13.7051,8986
568.0,-0.729114,13.7102,8986
569.0,-0.662574,13.7152,8986
570.0,-0.641062,13.7202,8986
571.0,-0.574134,13.7253,8986
572.0,-0.543580,13.7306,8986
573.0,-0.459388,13.7357,8986
574.0,-0.391929,13.7404,8986
575.0,-0.346640,13.7454,8987
576.0,-0.280832,13.7505,8987
577.0,-0.267211,13.7555,8987
578.0,-0.105698,13.7606,8987
579.0,-0.106491,13.7656,8987
580.0,-0.103107,13.7706,8987
581.0,-0.108564,13.7759,8987
582.0,-0.103538,13.7809,8987
583.0,-0.108929,13.7856,8987
584.0,-0.103727,13.7906,8987
585.0,-0.109820,13.7956,8987
586.0,-0.105649,13.8006,8987
587.0,-0.103325,13.8056,8987
588.0,-0.098714,13.8106,8987
589.0,-0.107484,13.8156,8987
590.0,-0.097678,13.8206,8987
591.0,-0.056275,13.8259,8987
592.0,-0.042263,13.8309,8987
593.0,-0.047928,13.8356,8987
594.0,-0.042165,13.8406,8987
595.0,-0.045406,13.8456,8987
596.0,-0.041293,13.8506,8987
597.0,-0.046869,13.8556,8987
598.0,-0.036930,13.8603,8987
599.0,-0.044328,13.8653,8987
600.0,-0.039876,13.8706,8987
601.0,-0.045558,13.8756,8987
602.0,-0.035749,13.8806,8987
603.0,0.013692,13.8856,8987
604.0,0.021468,13.8906,8987
605.0,0.013353,13.8956,8987
606.0,0.022058,13.9003,8987
607.0,-0.001167,13.9053,8987
608.0,0.021747,13.9106,8987
609.0,0.014297,13.9156,8987
610.0,0.020147,13.9206,8987
611.0,0.020369,13.9256,8987
612.0,0.023736,13.9306,8987
613.0,0.011662,13.9356,8987
614.0,0.023332,13.9403,8987
615.0,0.018871,13.9453,8987
616.0,0.025672,13.9503,8987
617.0,0.011279,13.9550,8987
618.0,0.025329,13.9603,8987
619.0,0.021639,13.9656,8987
620.0,0.027325,13.9706,8987
621.0,0.019738,13.9756,8987
622.0,0.024725,13.9803,8987
623.0,0.019280,13.9850,8987
624.0,0.028242,13.9900,8987
625.0,0.017295,13.9950,8987
626.0,0.024975,14.0000,8987
627.0,0.020870,14.0050,8987
628.0,0.029542,14.0103,8987
629.0,0.016161,14.0156,8987
630.0,0.023047,14.0203,8987
631.0,0.021889,14.0250,8987
632.0,0.030126,14.0300,8987
633.0,0.016222,14.0350,8987
634.0,0.026968,14.0400,8987
635.0,0.020741,14.0450,8987
636.0,0.029462,14.0500,8987
637.0,0.017204,14.0553,8987
638.0,0.030072,14.0603,8987
639.0,0.023259,14.0650,8987
640.0,0.032072,14.0700,8987
641.0,0.019212,14.0750,8987
642.0,0.031468,14.0800,8987
643.0,0.029306,14.0850,8987
644.0,0.035137,14.0900,8987
645.0,0.019717,14.0950,8987
646.0,0.032563,14.1000,8987
647.0,0.026044,14.1053,8987
648.0,0.035125,14.1103,8987
649.0,0.020318,14.1150,8987
650.0,0.030145,14.1200,8987
651.0,0.024809,14.1250,8987
652.0,0.039051,14.1300,8987
653.0,0.020835,14.1350,8987
654.0,0.031017,14.1400,8987
655.0,0.026771,14.1450,8987
656.0,0.037641,14.1500,8987
657.0,0.025534,14.1550,8987
658.0,0.031854,14.1600,8987
659.0,0.029324,14.1650,8987
660.0,0.038328,14.1700,8987
661.0,0.021590,14.1750,8987
662.0,0.033255,14.1800,8987
663.0,0.029530,14.1850,8987
664.0,0.039268,14.1900,8987
665.0,0.022577,14.1950,8987
666.0,0.035728,14.2000,8987
667.0,0.028716,14.2053,8987
668.0,0.041239,14.2103,8987
669.0,0.024753,14.2150,8987
670.0,0.037641,14.2200,8987
671.0,0.026802,14.2250,8987
672.0,0.036140,14.2300,8987
673.0,0.024012,14.2350,8987
674.0,0.039292,14.2400,8987
675.0,0.028674,14.2450,8988
