Point No.,Normal Force [N],Gap [mm],Time [s]
1.0,4.671674,10.9021,3681
2.0,4.679315,10.9021,3681
3.0,4.675888,10.9028,3681
4.0,4.662441,10.9034,3681
5.0,4.643907,10.9052,3681
6.0,4.601661,10.9083,3681
7.0,4.559851,10.9127,3681
8.0,4.504035,10.9170,3681
9.0,4.447021,10.9220,3681
10.0,4.378101,10.9270,3681
11.0,4.321029,10.9319,3681
12.0,4.265368,10.9369,3681
13.0,4.198853,10.9419,3681
14.0,4.140788,10.9443,3681
15.0,4.089149,10.9496,3681
16.0,4.030172,10.9568,3681
17.0,3.989748,10.9617,3681
18.0,3.948848,10.9667,3681
19.0,3.900407,10.9717,3681
20.0,3.845053,10.9766,3681
21.0,3.793433,10.9816,3681
22.0,3.746070,10.9866,3681
23.0,3.706526,10.9916,3681
24.0,3.660927,10.9940,3681
25.0,3.609252,10.9990,3681
26.0,3.564190,11.0065,3681
27.0,3.525532,11.0115,3681
28.0,3.482465,11.0164,3681
29.0,3.441522,11.0214,3681
30.0,3.395186,11.0264,3681
31.0,3.359355,11.0314,3681
32.0,3.321038,11.0363,3681
33.0,3.274298,11.0388,3681
34.0,3.234330,11.0438,3681
35.0,3.205981,11.0488,3681
36.0,3.164496,11.0562,3681
37.0,3.127463,11.0612,3681
38.0,3.088158,11.0662,3681
39.0,3.056776,11.0712,3681
40.0,3.026820,11.0762,3681
41.0,2.991174,11.0811,3681
42.0,2.951642,11.0836,3681
43.0,2.921997,11.0886,3681
44.0,2.891082,11.0936,3681
45.0,2.861190,11.0986,3681
46.0,2.824718,11.1060,3681
47.0,2.797653,11.1085,3681
48.0,2.769203,11.1160,3681
49.0,2.737602,11.1210,3681
50.0,2.702069,11.1260,3681
51.0,2.676416,11.1310,3681
52.0,2.648060,11.1359,3681
53.0,2.620433,11.1384,3681
54.0,2.584774,11.1434,3681
55.0,2.559177,11.1484,3681
56.0,2.534109,11.1534,3681
57.0,2.505726,11.1609,3681
58.0,2.474354,11.1658,3681
59.0,2.452943,11.1708,3681
60.0,2.425266,11.1752,3681
61.0,2.398076,11.1808,3681
62.0,2.367426,11.1851,3681
63.0,2.342787,11.1879,3681
64.0,2.325553,11.1932,3681
65.0,2.292397,11.1982,3681
66.0,2.263559,11.2032,3681
67.0,2.248190,11.2107,3681
68.0,2.225163,11.2151,3681
69.0,2.207064,11.2207,3681
70.0,2.181450,11.2250,3681
71.0,2.154491,11.2278,3681
72.0,2.130159,11.2328,3681
73.0,2.105605,11.2378,3681
74.0,2.070449,11.2431,3681
75.0,2.044580,11.2481,3681
76.0,2.022691,11.2528,3681
77.0,1.997103,11.2577,3681
78.0,1.960744,11.2627,3681
79.0,1.938686,11.2677,3681
80.0,1.910645,11.2727,3681
81.0,1.877003,11.2777,3681
82.0,1.845925,11.2830,3681
83.0,1.819525,11.2879,3681
84.0,1.795354,11.2929,3681
85.0,1.767281,11.2979,3681
86.0,1.730246,11.3029,3681
87.0,1.704824,11.3079,3682
88.0,1.678962,11.3126,3682
89.0,1.644150,11.3175,3682
90.0,1.614064,11.3228,3682
91.0,1.588394,11.3278,3682
92.0,1.551043,11.3328,3682
93.0,1.520690,11.3378,3682
94.0,1.481599,11.3427,3682
95.0,1.459025,11.3477,3682
96.0,1.429490,11.3524,3682
97.0,1.393285,11.3574,3682
98.0,1.360077,11.3627,3682
99.0,1.328943,11.3677,3682
100.0,1.298053,11.3726,3682
101.0,1.265890,11.3776,3682
102.0,1.238780,11.3826,3682
103.0,1.206809,11.3876,3682
104.0,1.175364,11.3926,3682
105.0,1.141824,11.3976,3682
106.0,1.106128,11.4025,3682
107.0,1.075469,11.4075,3682
108.0,1.051787,11.4125,3682
109.0,1.012397,11.4175,3682
110.0,0.975083,11.4224,3682
111.0,0.945237,11.4274,3682
112.0,0.916238,11.4324,3682
113.0,0.882710,11.4374,3682
114.0,0.848927,11.4424,3682
115.0,0.817791,11.4474,3682
116.0,0.788857,11.4523,3682
117.0,0.755583,11.4573,3682
118.0,0.720926,11.4623,3682
119.0,0.691646,11.4673,3682
120.0,0.663266,11.4723,3682
121.0,0.627971,11.4772,3682
122.0,0.591358,11.4822,3682
123.0,0.555078,11.4872,3682
124.0,0.527561,11.4922,3682
125.0,0.488763,11.4972,3682
126.0,0.454178,11.5021,3682
127.0,0.428469,11.5071,3682
128.0,0.405153,11.5121,3682
129.0,0.381136,11.5171,3682
130.0,0.350461,11.5221,3682
131.0,0.321913,11.5271,3682
132.0,0.301256,11.5321,3682
133.0,0.271024,11.5370,3682
134.0,0.239897,11.5420,3682
135.0,0.218172,11.5470,3682
136.0,0.193432,11.5520,3682
137.0,0.168957,11.5570,3682
138.0,0.139065,11.5620,3682
139.0,0.109275,11.5669,3682
140.0,0.089366,11.5719,3682
141.0,0.061667,11.5769,3682
142.0,0.031726,11.5819,3682
143.0,0.006909,11.5869,3682
144.0,-0.013435,11.5919,3682
145.0,-0.037360,11.5969,3682
146.0,-0.066839,11.6018,3682
147.0,-0.095504,11.6068,3682
148.0,-0.115233,11.6118,3682
149.0,-0.141520,11.6168,3682
150.0,-0.166563,11.6218,3682
151.0,-0.197475,11.6268,3682
152.0,-0.218017,11.6317,3682
153.0,-0.236862,11.6367,3682
154.0,-0.264309,11.6417,3682
155.0,-0.289752,11.6467,3682
156.0,-0.313168,11.6517,3682
157.0,-0.333568,11.6567,3682
158.0,-0.364110,11.6617,3682
159.0,-0.380666,11.6667,3682
160.0,-0.406425,11.6716,3682
161.0,-0.424884,11.6766,3682
162.0,-0.458990,11.6816,3682
163.0,-0.470608,11.6866,3682
164.0,-0.492062,11.6916,3682
165.0,-0.503318,11.6966,3682
166.0,-0.530281,11.7016,3682
167.0,-0.548677,11.7066,3682
168.0,-0.560694,11.7115,3682
169.0,-0.574700,11.7165,3682
170.0,-0.622179,11.7215,3682
171.0,-0.641543,11.7265,3682
172.0,-0.649170,11.7315,3682
173.0,-0.678789,11.7365,3682
174.0,-0.706280,11.7415,3682
175.0,-0.733636,11.7464,3682
176.0,-0.751363,11.7514,3682
177.0,-0.771033,11.7564,3682
178.0,-0.789939,11.7614,3682
179.0,-0.816201,11.7664,3682
180.0,-0.831873,11.7714,3682
181.0,-0.852043,11.7764,3682
182.0,-0.875789,11.7814,3682
183.0,-0.895406,11.7863,3682
184.0,-0.909991,11.7913,3682
185.0,-0.927709,11.7963,3682
186.0,-0.952191,11.8013,3682
187.0,-0.975099,11.8063,3683
188.0,-0.994426,11.8113,3683
189.0,-1.007582,11.8163,3683
190.0,-1.029874,11.8213,3683
191.0,-1.053266,11.8263,3683
192.0,-1.071401,11.8312,3683
193.0,-1.080940,11.8362,3683
194.0,-1.085450,11.8412,3683
195.0,-1.110082,11.8437,3683
196.0,-1.137279,11.8512,3683
197.0,-1.149696,11.8562,3683
198.0,-1.162693,11.8612,3683
199.0,-1.176689,11.8662,3683
200.0,-1.190512,11.8709,3683
201.0,-1.203491,11.8759,3683
202.0,-1.222394,11.8808,3683
203.0,-1.241782,11.8858,3683
204.0,-1.250973,11.8908,3683
205.0,-1.263778,11.8958,3683
206.0,-1.286942,11.9011,3683
207.0,-1.306339,11.9061,3683
208.0,-1.318097,11.9108,3683
209.0,-1.331604,11.9158,3683
210.0,-1.354297,11.9208,3683
211.0,-1.369088,11.9258,3683
212.0,-1.383163,11.9307,3683
213.0,-1.395165,11.9357,3683
214.0,-1.412558,11.9407,3683
215.0,-1.433231,11.9457,3683
216.0,-1.444734,11.9507,3683
217.0,-1.458443,11.9557,3683
218.0,-1.476729,11.9607,3683
219.0,-1.493842,11.9657,3683
220.0,-1.510832,11.9707,3683
221.0,-1.518291,11.9754,3683
222.0,-1.540788,11.9803,3683
223.0,-1.555497,11.9828,3683
224.0,-1.566133,11.9906,3683
225.0,-1.574255,11.9953,3683
226.0,-1.594131,12.0003,3683
227.0,-1.615476,12.0056,3683
228.0,-1.620875,12.0106,3683
229.0,-1.632361,12.0153,3683
230.0,-1.652406,12.0203,3683
231.0,-1.668113,12.0256,3683
232.0,-1.682202,12.0284,3683
233.0,-1.687162,12.0328,3683
234.0,-1.705235,12.0402,3683
235.0,-1.722848,12.0455,3683
236.0,-1.728644,12.0505,3683
237.0,-1.733133,12.0552,3683
238.0,-1.751027,12.0602,3683
239.0,-1.762668,12.0655,3683
240.0,-1.768941,12.0705,3683
241.0,-1.761606,12.0752,3683
242.0,-1.777416,12.0777,3683
243.0,-1.785413,12.0827,3683
244.0,-1.791214,12.0905,3683
245.0,-1.796958,12.0952,3683
246.0,-1.814980,12.1002,3683
247.0,-1.833479,12.1055,3683
248.0,-1.844286,12.1105,3683
249.0,-1.851174,12.1152,3683
250.0,-1.865174,12.1201,3683
251.0,-1.884223,12.1226,3683
252.0,-1.892324,12.1283,3683
253.0,-1.904363,12.1326,3683
254.0,-1.919813,12.1376,3683
255.0,-1.933713,12.1454,3683
256.0,-1.946528,12.1504,3683
257.0,-1.954024,12.1551,3683
258.0,-1.961066,12.1601,3683
259.0,-1.950117,12.1654,3683
260.0,-1.961971,12.1682,3683
261.0,-1.972411,12.1726,3683
262.0,-1.983112,12.1776,3683
263.0,-1.997576,12.1826,3683
264.0,-1.997524,12.1904,3683
265.0,-1.982065,12.1951,3683
266.0,-1.993535,12.2001,3683
267.0,-2.010033,12.2054,3683
268.0,-2.020372,12.2104,3683
269.0,-2.023199,12.2151,3683
270.0,-2.037398,12.2175,3683
271.0,-2.050442,12.2225,3683
272.0,-2.059659,12.2282,3683
273.0,-2.066231,12.2325,3683
274.0,-2.048574,12.2375,3683
275.0,-2.065205,12.2425,3683
276.0,-2.048032,12.2504,3683
277.0,-2.048719,12.2550,3683
278.0,-2.061714,12.2600,3683
279.0,-2.045013,12.2625,3683
280.0,-2.053486,12.2682,3683
281.0,-2.060339,12.2725,3683
282.0,-2.071931,12.2775,3683
283.0,-2.086451,12.2825,3683
284.0,-2.090856,12.2881,3683
285.0,-2.099476,12.2925,3683
286.0,-2.114073,12.2975,3683
287.0,-2.126374,12.3025,3684
288.0,-2.134372,12.3081,3684
289.0,-2.141864,12.3125,3684
290.0,-2.140241,12.3175,3684
291.0,-2.128859,12.3225,3684
292.0,-2.137690,12.3281,3684
293.0,-2.143628,12.3325,3684
294.0,-2.151777,12.3375,3684
295.0,-2.164674,12.3425,3684
296.0,-2.175324,12.3481,3684
297.0,-2.178473,12.3525,3684
298.0,-2.167713,12.3575,3684
299.0,-2.159853,12.3625,3684
300.0,-2.166399,12.3681,3684
301.0,-2.170092,12.3725,3684
302.0,-2.179963,12.3775,3684
303.0,-2.162252,12.3825,3684
304.0,-2.167054,12.3881,3684
305.0,-2.173994,12.3925,3684
306.0,-2.182259,12.3975,3684
307.0,-2.192993,12.4025,3684
308.0,-2.198244,12.4081,3684
309.0,-2.206308,12.4124,3684
310.0,-2.213381,12.4174,3684
311.0,-2.225700,12.4224,3684
312.0,-2.233173,12.4281,3684
313.0,-2.240250,12.4324,3684
314.0,-2.238384,12.4374,3684
315.0,-2.216561,12.4424,3684
316.0,-2.225359,12.4481,3684
317.0,-2.226603,12.4524,3684
318.0,-2.234346,12.4581,3684
319.0,-2.248838,12.4624,3684
320.0,-2.257365,12.4680,3684
321.0,-2.256949,12.4724,3684
322.0,-2.265592,12.4780,3684
323.0,-2.276907,12.4824,3684
324.0,-2.285111,12.4880,3684
325.0,-2.289406,12.4924,3684
326.0,-2.298130,12.4980,3684
327.0,-2.280589,12.5024,3684
328.0,-2.284843,12.5080,3684
329.0,-2.288710,12.5124,3684
330.0,-2.299703,12.5180,3684
331.0,-2.311913,12.5224,3684
332.0,-2.315628,12.5280,3684
333.0,-2.321434,12.5324,3684
334.0,-2.324917,12.5374,3684
335.0,-2.292941,12.5424,3684
336.0,-2.284085,12.5480,3684
337.0,-2.272990,12.5524,3684
338.0,-2.277292,12.5580,3684
339.0,-2.288169,12.5624,3684
340.0,-2.296977,12.5680,3684
341.0,-2.303355,12.5724,3684
342.0,-2.306563,12.5780,3684
343.0,-2.317183,12.5824,3684
344.0,-2.327311,12.5880,3684
345.0,-2.333033,12.5924,3684
346.0,-2.334279,12.5980,3684
347.0,-2.346787,12.6024,3684
348.0,-2.353098,12.6080,3684
349.0,-2.360470,12.6124,3684
350.0,-2.362761,12.6180,3684
351.0,-2.374120,12.6223,3684
352.0,-2.378630,12.6280,3684
353.0,-2.385373,12.6323,3684
354.0,-2.392018,12.6380,3684
355.0,-2.400610,12.6423,3684
356.0,-2.403285,12.6480,3684
357.0,-2.416586,12.6529,3684
358.0,-2.417539,12.6579,3684
359.0,-2.423449,12.6623,3684
360.0,-2.430575,12.6679,3684
361.0,-2.441604,12.6723,3684
362.0,-2.442163,12.6779,3684
363.0,-2.453533,12.6823,3684
364.0,-2.458515,12.6879,3684
365.0,-2.466063,12.6923,3684
366.0,-2.430804,12.6979,3684
367.0,-2.440004,12.7023,3684
368.0,-2.447917,12.7079,3684
369.0,-2.452153,12.7123,3684
370.0,-2.456591,12.7179,3684
371.0,-2.467662,12.7223,3684
372.0,-2.474190,12.7279,3684
373.0,-2.480414,12.7323,3684
374.0,-2.487330,12.7379,3684
375.0,-2.494040,12.7423,3684
376.0,-2.494854,12.7479,3684
377.0,-2.507293,12.7523,3684
378.0,-2.512432,12.7579,3684
379.0,-2.517812,12.7623,3684
380.0,-2.523790,12.7679,3684
381.0,-2.530633,12.7723,3684
382.0,-2.531785,12.7779,3684
383.0,-2.535205,12.7823,3684
384.0,-2.500253,12.7879,3684
385.0,-2.509257,12.7923,3684
386.0,-2.507215,12.7979,3684
387.0,-2.516390,12.8023,3685
388.0,-2.520393,12.8079,3685
389.0,-2.533423,12.8123,3685
390.0,-2.531370,12.8179,3685
391.0,-2.539565,12.8223,3685
392.0,-2.543318,12.8279,3685
393.0,-2.556215,12.8322,3685
394.0,-2.555481,12.8379,3685
395.0,-2.561810,12.8422,3685
396.0,-2.564807,12.8479,3685
397.0,-2.576128,12.8522,3685
398.0,-2.580657,12.8579,3685
399.0,-2.586642,12.8622,3685
400.0,-2.590124,12.8678,3685
401.0,-2.602652,12.8722,3685
402.0,-2.598454,12.8772,3685
403.0,-2.605703,12.8822,3685
404.0,-2.609203,12.8878,3685
405.0,-2.623131,12.8922,3685
406.0,-2.617531,12.8972,3685
407.0,-2.594978,12.9022,3685
408.0,-2.586972,12.9078,3685
409.0,-2.600608,12.9122,3685
410.0,-2.595381,12.9172,3685
411.0,-2.604017,12.9222,3685
412.0,-2.599149,12.9278,3685
413.0,-2.568927,12.9322,3685
414.0,-2.564884,12.9372,3685
415.0,-2.574550,12.9422,3685
416.0,-2.576053,12.9479,3685
417.0,-2.589308,12.9522,3685
418.0,-2.585937,12.9572,3685
419.0,-2.598831,12.9622,3685
420.0,-2.597171,12.9678,3685
421.0,-2.610737,12.9722,3685
422.0,-2.605693,12.9772,3685
423.0,-2.620381,12.9822,3685
424.0,-2.617767,12.9878,3685
425.0,-2.635612,12.9922,3685
426.0,-2.630381,12.9972,3685
427.0,-2.638427,13.0022,3685
428.0,-2.637386,13.0078,3685
429.0,-2.654241,13.0122,3685
430.0,-2.649006,13.0172,3685
431.0,-2.654725,13.0222,3685
432.0,-2.657405,13.0278,3685
433.0,-2.671485,13.0322,3685
434.0,-2.668345,13.0372,3685
435.0,-2.676406,13.0422,3685
436.0,-2.676154,13.0478,3685
437.0,-2.693568,13.0522,3685
438.0,-2.657440,13.0572,3685
439.0,-2.644583,13.0622,3685
440.0,-2.644290,13.0678,3685
441.0,-2.659680,13.0722,3685
442.0,-2.656825,13.0772,3685
443.0,-2.659516,13.0822,3685
444.0,-2.584218,13.0879,3685
445.0,-2.594302,13.0922,3685
446.0,-2.592130,13.0972,3685
447.0,-2.598644,13.1022,3685
448.0,-2.598230,13.1072,3685
449.0,-2.616720,13.1122,3685
450.0,-2.609788,13.1172,3685
451.0,-2.618798,13.1222,3685
452.0,-2.617564,13.1272,3685
453.0,-2.633797,13.1322,3685
454.0,-2.627912,13.1372,3685
455.0,-2.635050,13.1422,3685
456.0,-2.630447,13.1472,3685
457.0,-2.649754,13.1522,3685
458.0,-2.642100,13.1572,3685
459.0,-2.650445,13.1622,3685
460.0,-2.649689,13.1672,3685
461.0,-2.665030,13.1722,3685
462.0,-2.661410,13.1772,3685
463.0,-2.668763,13.1822,3685
464.0,-2.661922,13.1872,3685
465.0,-2.685410,13.1922,3685
466.0,-2.679210,13.1972,3685
467.0,-2.684765,13.2022,3685
468.0,-2.675771,13.2072,3685
469.0,-2.663194,13.2122,3685
470.0,-2.643201,13.2172,3685
471.0,-2.649221,13.2222,3685
472.0,-2.646638,13.2272,3685
473.0,-2.666617,13.2322,3685
474.0,-2.653951,13.2372,3685
475.0,-2.664795,13.2422,3685
476.0,-2.665098,13.2472,3685
477.0,-2.679214,13.2522,3685
478.0,-2.669034,13.2572,3685
479.0,-2.681384,13.2622,3685
480.0,-2.633362,13.2672,3685
481.0,-2.645211,13.2722,3685
482.0,-2.634751,13.2772,3685
483.0,-2.646362,13.2822,3685
484.0,-2.640372,13.2872,3685
485.0,-2.657627,13.2922,3685
486.0,-2.649142,13.2972,3685
487.0,-2.656689,13.3022,3686
488.0,-2.603699,13.3072,3686
489.0,-2.622782,13.3122,3686
490.0,-2.613569,13.3172,3686
491.0,-2.578602,13.3222,3686
492.0,-2.567746,13.3279,3686
493.0,-2.582404,13.3322,3686
494.0,-2.575492,13.3372,3686
495.0,-2.565093,13.3422,3686
496.0,-2.500788,13.3479,3686
497.0,-2.495282,13.3523,3686
498.0,-2.444391,13.3573,3686
499.0,-2.444826,13.3623,3686
500.0,-2.439095,13.3679,3686
501.0,-2.457767,13.3723,3686
502.0,-2.444662,13.3773,3686
503.0,-2.454964,13.3823,3686
504.0,-2.436453,13.3879,3686
505.0,-2.406343,13.3923,3686
506.0,-2.315943,13.3974,3686
507.0,-2.318394,13.4024,3686
508.0,-2.310332,13.4080,3686
509.0,-2.329988,13.4124,3686
510.0,-2.304884,13.4174,3686
511.0,-2.271784,13.4224,3686
512.0,-2.263958,13.4280,3686
513.0,-2.284178,13.4324,3686
514.0,-2.273311,13.4374,3686
515.0,-2.281539,13.4424,3686
516.0,-2.271230,13.4480,3686
517.0,-2.242326,13.4524,3686
518.0,-2.207323,13.4574,3686
519.0,-2.188455,13.4625,3686
520.0,-2.141216,13.4681,3686
521.0,-2.140201,13.4725,3686
522.0,-2.133334,13.4775,3686
523.0,-2.137545,13.4825,3686
524.0,-2.123170,13.4881,3686
525.0,-2.142887,13.4925,3686
526.0,-2.131618,13.4975,3686
527.0,-2.086813,13.5025,3686
528.0,-2.007863,13.5082,3686
529.0,-1.917809,13.5126,3686
530.0,-1.881059,13.5176,3686
531.0,-1.888335,13.5226,3686
532.0,-1.875962,13.5283,3686
533.0,-1.893835,13.5326,3686
534.0,-1.884978,13.5376,3686
535.0,-1.885034,13.5426,3686
536.0,-1.824248,13.5483,3686
537.0,-1.835003,13.5527,3686
538.0,-1.775209,13.5577,3686
539.0,-1.750652,13.5627,3686
540.0,-1.714753,13.5684,3686
541.0,-1.733570,13.5727,3686
542.0,-1.725703,13.5777,3686
543.0,-1.632806,13.5828,3686
544.0,-1.613961,13.5884,3686
545.0,-1.628943,13.5928,3686
546.0,-1.621957,13.5978,3686
547.0,-1.629535,13.6028,3686
548.0,-1.614424,13.6084,3686
549.0,-1.630568,13.6128,3686
550.0,-1.618534,13.6178,3686
551.0,-1.574667,13.6228,3686
552.0,-1.559182,13.6285,3686
553.0,-1.576311,13.6328,3686
554.0,-1.505041,13.6379,3686
555.0,-1.348010,13.6430,3686
556.0,-1.326881,13.6486,3686
557.0,-1.251807,13.6530,3686
558.0,-1.228663,13.6580,3686
559.0,-1.186813,13.6631,3686
560.0,-1.155955,13.6687,3686
561.0,-1.139259,13.6731,3686
562.0,-1.066876,13.6781,3686
563.0,-1.026189,13.6831,3686
564.0,-0.950168,13.6888,3686
565.0,-0.819724,13.6933,3686
566.0,-0.772469,13.6983,3686
567.0,-0.691980,13.7033,3686
568.0,-0.518267,13.7091,3686
569.0,-0.522102,13.7134,3686
570.0,-0.475443,13.7185,3686
571.0,-0.412696,13.7235,3686
572.0,-0.310561,13.7292,3686
573.0,-0.309193,13.7336,3686
574.0,-0.243956,13.7386,3686
575.0,-0.198751,13.7436,3686
576.0,-0.179390,13.7493,3686
577.0,-0.194106,13.7536,3686
578.0,-0.159179,13.7587,3686
579.0,-0.081174,13.7637,3686
580.0,-0.068087,13.7693,3686
581.0,-0.077933,13.7737,3686
582.0,-0.076605,13.7787,3686
583.0,-0.080203,13.7837,3686
584.0,-0.011623,13.7894,3686
585.0,0.028859,13.7938,3686
586.0,0.036065,13.7988,3686
587.0,0.023259,13.8038,3687
588.0,0.045724,13.8094,3687
589.0,0.028995,13.8138,3687
590.0,0.036388,13.8188,3687
591.0,0.026042,13.8238,3687
592.0,0.042202,13.8294,3687
593.0,0.027512,13.8338,3687
594.0,0.035090,13.8388,3687
595.0,0.025036,13.8438,3687
596.0,0.042207,13.8494,3687
597.0,0.029299,13.8538,3687
598.0,0.033315,13.8588,3687
599.0,0.027257,13.8638,3687
600.0,0.038798,13.8694,3687
601.0,0.029271,13.8738,3687
602.0,0.034987,13.8788,3687
603.0,0.026320,13.8838,3687
604.0,0.039060,13.8894,3687
605.0,0.029107,13.8938,3687
606.0,0.032619,13.8988,3687
607.0,0.023870,13.9038,3687
608.0,0.039317,13.9088,3687
609.0,0.028200,13.9138,3687
610.0,0.030285,13.9188,3687
611.0,0.021655,13.9238,3687
612.0,0.039935,13.9288,3687
613.0,0.026509,13.9338,3687
614.0,0.025964,13.9388,3687
615.0,0.023206,13.9438,3687
616.0,0.038532,13.9488,3687
617.0,0.024050,13.9538,3687
618.0,0.025247,13.9588,3687
619.0,0.023014,13.9638,3687
620.0,0.037056,13.9688,3687
621.0,0.025221,13.9738,3687
622.0,0.028127,13.9788,3687
623.0,0.019406,13.9838,3687
624.0,0.032609,13.9888,3687
625.0,0.021775,13.9938,3687
626.0,0.024842,13.9988,3687
627.0,0.020077,14.0031,3687
628.0,0.036439,14.0088,3687
629.0,0.022588,14.0138,3687
630.0,0.029843,14.0188,3687
631.0,0.019287,14.0231,3687
632.0,0.033442,14.0288,3687
633.0,0.021987,14.0338,3687
634.0,0.023909,14.0388,3687
635.0,0.016727,14.0431,3687
636.0,0.031408,14.0488,3687
637.0,0.022044,14.0538,3687
638.0,0.024550,14.0588,3687
639.0,0.018702,14.0631,3687
640.0,0.032743,14.0688,3687
641.0,0.022513,14.0738,3687
642.0,0.021711,14.0788,3687
643.0,0.021754,14.0831,3687
644.0,0.032312,14.0888,3687
645.0,0.019242,14.0938,3687
646.0,0.026607,14.0988,3687
647.0,0.017643,14.1031,3687
648.0,0.031438,14.1088,3687
649.0,0.021047,14.1138,3687
650.0,0.021789,14.1188,3687
651.0,0.016177,14.1231,3687
652.0,0.030390,14.1288,3687
653.0,0.022036,14.1338,3687
654.0,0.021704,14.1388,3687
655.0,0.015207,14.1431,3687
656.0,0.024066,14.1488,3687
657.0,0.017989,14.1531,3687
658.0,0.018062,14.1588,3687
659.0,0.013561,14.1631,3687
660.0,0.021824,14.1688,3687
661.0,0.017910,14.1738,3687
662.0,0.017861,14.1788,3687
663.0,0.013273,14.1831,3687
664.0,0.026731,14.1888,3687
665.0,0.020671,14.1931,3687
666.0,0.017683,14.1988,3687
667.0,0.008055,14.2031,3687
668.0,0.024622,14.2088,3687
669.0,0.021326,14.2131,3687
670.0,0.016752,14.2188,3687
671.0,0.008356,14.2231,3687
672.0,0.022913,14.2288,3687
673.0,0.016238,14.2331,3687
674.0,0.012455,14.2388,3687
675.0,0.007950,14.2431,3687
676.0,0.023004,14.2488,3687
