Point No.,Normal Force [N],Gap [mm],Time [s]
1.0,4.645877,10.9027,1.712E+04
2.0,4.647223,10.9027,1.712E+04
3.0,4.645997,10.9034,1.712E+04
4.0,4.621578,10.9040,1.712E+04
5.0,4.601473,10.9065,1.712E+04
6.0,4.536348,10.9102,1.712E+04
7.0,4.492899,10.9139,1.712E+04
8.0,4.456264,10.9183,1.712E+04
9.0,4.408798,10.9226,1.712E+04
10.0,4.344146,10.9276,1.713E+04
11.0,4.291364,10.9332,1.713E+04
12.0,4.226269,10.9375,1.713E+04
13.0,4.179203,10.9425,1.713E+04
14.0,4.124712,10.9481,1.713E+04
15.0,4.077351,10.9530,1.713E+04
16.0,4.008167,10.9574,1.713E+04
17.0,3.976138,10.9623,1.713E+04
18.0,3.934111,10.9673,1.713E+04
19.0,3.895125,10.9723,1.713E+04
20.0,3.837823,10.9773,1.713E+04
21.0,3.791670,10.9822,1.713E+04
22.0,3.733337,10.9872,1.713E+04
23.0,3.697714,10.9928,1.713E+04
24.0,3.644052,10.9978,1.713E+04
25.0,3.607919,11.0021,1.713E+04
26.0,3.555090,11.0071,1.713E+04
27.0,3.527113,11.0121,1.713E+04
28.0,3.472956,11.0170,1.713E+04
29.0,3.438244,11.0220,1.713E+04
30.0,3.391569,11.0270,1.713E+04
31.0,3.362860,11.0320,1.713E+04
32.0,3.308333,11.0376,1.713E+04
33.0,3.274211,11.0419,1.713E+04
34.0,3.233690,11.0469,1.713E+04
35.0,3.201822,11.0519,1.713E+04
36.0,3.160227,11.0569,1.713E+04
37.0,3.128532,11.0618,1.713E+04
38.0,3.083393,11.0668,1.713E+04
39.0,3.063255,11.0718,1.713E+04
40.0,3.017992,11.0768,1.713E+04
41.0,2.986965,11.0796,1.713E+04
42.0,2.947852,11.0867,1.713E+04
43.0,2.924658,11.0917,1.713E+04
44.0,2.877742,11.0967,1.713E+04
45.0,2.854948,11.1017,1.713E+04
46.0,2.820966,11.1067,1.713E+04
47.0,2.800868,11.1117,1.713E+04
48.0,2.756234,11.1166,1.713E+04
49.0,2.729107,11.1216,1.713E+04
50.0,2.694083,11.1241,1.713E+04
51.0,2.677842,11.1291,1.713E+04
52.0,2.641352,11.1366,1.713E+04
53.0,2.619535,11.1415,1.713E+04
54.0,2.589640,11.1465,1.713E+04
55.0,2.569266,11.1515,1.713E+04
56.0,2.528116,11.1565,1.713E+04
57.0,2.506309,11.1615,1.713E+04
58.0,2.474828,11.1665,1.713E+04
59.0,2.456177,11.1689,1.713E+04
60.0,2.420340,11.1739,1.713E+04
61.0,2.399413,11.1814,1.713E+04
62.0,2.364244,11.1864,1.713E+04
63.0,2.348504,11.1914,1.713E+04
64.0,2.313524,11.1964,1.713E+04
65.0,2.293786,11.2014,1.713E+04
66.0,2.260430,11.2063,1.713E+04
67.0,2.254211,11.2113,1.713E+04
68.0,2.228392,11.2138,1.713E+04
69.0,2.206533,11.2188,1.713E+04
70.0,2.181076,11.2238,1.713E+04
71.0,2.169149,11.2313,1.713E+04
72.0,2.135282,11.2363,1.713E+04
73.0,2.109982,11.2412,1.713E+04
74.0,2.075462,11.2462,1.713E+04
75.0,2.056587,11.2512,1.713E+04
76.0,2.022584,11.2562,1.713E+04
77.0,2.000035,11.2587,1.713E+04
78.0,1.964382,11.2637,1.713E+04
79.0,1.947484,11.2686,1.713E+04
80.0,1.909446,11.2736,1.713E+04
81.0,1.886077,11.2786,1.713E+04
82.0,1.850762,11.2861,1.713E+04
83.0,1.831808,11.2911,1.713E+04
84.0,1.794520,11.2961,1.713E+04
85.0,1.764269,11.3010,1.713E+04
86.0,1.735018,11.3060,1.713E+04
87.0,1.719472,11.3085,1.713E+04
88.0,1.678511,11.3135,1.713E+04
89.0,1.647936,11.3185,1.713E+04
90.0,1.617068,11.3235,1.713E+04
91.0,1.591113,11.3284,1.713E+04
92.0,1.556376,11.3359,1.713E+04
93.0,1.526722,11.3409,1.713E+04
94.0,1.492235,11.3459,1.713E+04
95.0,1.473804,11.3509,1.713E+04
96.0,1.432670,11.3558,1.713E+04
97.0,1.401452,11.3583,1.713E+04
98.0,1.362932,11.3633,1.713E+04
99.0,1.341969,11.3683,1.713E+04
100.0,1.306138,11.3733,1.713E+04
101.0,1.277281,11.3783,1.713E+04
102.0,1.242121,11.3832,1.713E+04
103.0,1.219429,11.3882,1.713E+04
104.0,1.182058,11.3932,1.713E+04
105.0,1.151193,11.3982,1.713E+04
106.0,1.116278,11.4032,1.713E+04
107.0,1.096453,11.4081,1.713E+04
108.0,1.055502,11.4131,1.713E+04
109.0,1.024265,11.4181,1.713E+04
110.0,0.988882,11.4231,1.713E+04
111.0,0.966547,11.4281,1.713E+04
112.0,0.926455,11.4330,1.713E+04
113.0,0.893720,11.4380,1.713E+04
114.0,0.860178,11.4430,1.713E+04
115.0,0.838565,11.4480,1.713E+04
116.0,0.802369,11.4530,1.713E+04
117.0,0.770858,11.4580,1.713E+04
118.0,0.737384,11.4629,1.713E+04
119.0,0.711976,11.4679,1.713E+04
120.0,0.674274,11.4729,1.713E+04
121.0,0.642609,11.4779,1.713E+04
122.0,0.602158,11.4829,1.713E+04
123.0,0.580793,11.4878,1.713E+04
124.0,0.541380,11.4928,1.713E+04
125.0,0.502411,11.4978,1.713E+04
126.0,0.467982,11.5028,1.713E+04
127.0,0.448840,11.5078,1.713E+04
128.0,0.419039,11.5127,1.713E+04
129.0,0.391931,11.5177,1.713E+04
130.0,0.364714,11.5227,1.713E+04
131.0,0.346163,11.5277,1.713E+04
132.0,0.315251,11.5327,1.713E+04
133.0,0.287255,11.5377,1.713E+04
134.0,0.256944,11.5427,1.713E+04
135.0,0.239053,11.5476,1.713E+04
136.0,0.209329,11.5526,1.713E+04
137.0,0.180865,11.5576,1.713E+04
138.0,0.148875,11.5626,1.713E+04
139.0,0.133902,11.5676,1.713E+04
140.0,0.102261,11.5726,1.713E+04
141.0,0.074372,11.5775,1.713E+04
142.0,0.044337,11.5825,1.713E+04
143.0,0.027723,11.5875,1.713E+04
144.0,0.002100,11.5925,1.713E+04
145.0,-0.028571,11.5975,1.713E+04
146.0,-0.054206,11.6025,1.713E+04
147.0,-0.075071,11.6075,1.713E+04
148.0,-0.102425,11.6124,1.713E+04
149.0,-0.130161,11.6174,1.713E+04
150.0,-0.155289,11.6224,1.713E+04
151.0,-0.177351,11.6274,1.713E+04
152.0,-0.200881,11.6324,1.713E+04
153.0,-0.229883,11.6374,1.713E+04
154.0,-0.256353,11.6423,1.713E+04
155.0,-0.277222,11.6473,1.713E+04
156.0,-0.294113,11.6523,1.713E+04
157.0,-0.323477,11.6573,1.713E+04
158.0,-0.354795,11.6623,1.713E+04
159.0,-0.371235,11.6673,1.713E+04
160.0,-0.386481,11.6723,1.713E+04
161.0,-0.414980,11.6773,1.713E+04
162.0,-0.428789,11.6822,1.713E+04
163.0,-0.444578,11.6872,1.713E+04
164.0,-0.458850,11.6922,1.713E+04
165.0,-0.476011,11.6972,1.713E+04
166.0,-0.492081,11.7022,1.713E+04
167.0,-0.537547,11.7072,1.713E+04
168.0,-0.540047,11.7122,1.713E+04
169.0,-0.585668,11.7172,1.713E+04
170.0,-0.607961,11.7221,1.713E+04
171.0,-0.624531,11.7271,1.713E+04
172.0,-0.645436,11.7321,1.713E+04
173.0,-0.667325,11.7371,1.713E+04
174.0,-0.692425,11.7421,1.713E+04
175.0,-0.708859,11.7471,1.713E+04
176.0,-0.730940,11.7521,1.713E+04
177.0,-0.749984,11.7571,1.713E+04
178.0,-0.774124,11.7617,1.713E+04
179.0,-0.790433,11.7667,1.713E+04
180.0,-0.810533,11.7720,1.713E+04
181.0,-0.830666,11.7770,1.713E+04
182.0,-0.854566,11.7820,1.713E+04
183.0,-0.868097,11.7870,1.713E+04
184.0,-0.887582,11.7920,1.713E+04
185.0,-0.909016,11.7970,1.713E+04
186.0,-0.933844,11.8016,1.713E+04
187.0,-0.949617,11.8066,1.713E+04
188.0,-0.969925,11.8116,1.713E+04
189.0,-0.989764,11.8163,1.713E+04
190.0,-1.012846,11.8213,1.713E+04
191.0,-1.022067,11.8266,1.713E+04
192.0,-1.043145,11.8319,1.713E+04
193.0,-1.065322,11.8369,1.713E+04
194.0,-1.086203,11.8419,1.713E+04
195.0,-1.099207,11.8469,1.713E+04
196.0,-1.113033,11.8515,1.713E+04
197.0,-1.129797,11.8562,1.713E+04
198.0,-1.148041,11.8612,1.713E+04
199.0,-1.157358,11.8665,1.713E+04
200.0,-1.171529,11.8715,1.713E+04
201.0,-1.182247,11.8762,1.713E+04
202.0,-1.202742,11.8815,1.713E+04
203.0,-1.214884,11.8868,1.713E+04
204.0,-1.220299,11.8915,1.713E+04
205.0,-1.242383,11.8961,1.713E+04
206.0,-1.260105,11.9011,1.713E+04
207.0,-1.276313,11.9061,1.713E+04
208.0,-1.283430,11.9111,1.713E+04
209.0,-1.297978,11.9161,1.713E+04
210.0,-1.318889,11.9211,1.713E+04
211.0,-1.333173,11.9264,1.713E+04
212.0,-1.345785,11.9314,1.713E+04
213.0,-1.360954,11.9361,1.713E+04
214.0,-1.378684,11.9411,1.713E+04
215.0,-1.388590,11.9461,1.713E+04
216.0,-1.404297,11.9510,1.713E+04
217.0,-1.420757,11.9560,1.713E+04
218.0,-1.440278,11.9610,1.713E+04
219.0,-1.450823,11.9660,1.713E+04
220.0,-1.468094,11.9710,1.713E+04
221.0,-1.481167,11.9760,1.713E+04
222.0,-1.494393,11.9810,1.713E+04
223.0,-1.504323,11.9860,1.713E+04
224.0,-1.518401,11.9910,1.713E+04
225.0,-1.525600,11.9960,1.713E+04
226.0,-1.549860,12.0010,1.713E+04
227.0,-1.567800,12.0060,1.713E+04
228.0,-1.578057,12.0109,1.713E+04
229.0,-1.587662,12.0159,1.713E+04
230.0,-1.610594,12.0209,1.713E+04
231.0,-1.625123,12.0259,1.713E+04
232.0,-1.632060,12.0309,1.713E+04
233.0,-1.642299,12.0359,1.713E+04
234.0,-1.659682,12.0409,1.713E+04
235.0,-1.679463,12.0459,1.713E+04
236.0,-1.686175,12.0509,1.713E+04
237.0,-1.697643,12.0559,1.713E+04
238.0,-1.720400,12.0609,1.713E+04
239.0,-1.734999,12.0659,1.713E+04
240.0,-1.746311,12.0708,1.713E+04
241.0,-1.758674,12.0758,1.713E+04
242.0,-1.781730,12.0808,1.713E+04
243.0,-1.792439,12.0858,1.713E+04
244.0,-1.799785,12.0908,1.713E+04
245.0,-1.809177,12.0958,1.713E+04
246.0,-1.807505,12.1008,1.713E+04
247.0,-1.824695,12.1058,1.713E+04
248.0,-1.831859,12.1108,1.713E+04
249.0,-1.846544,12.1158,1.713E+04
250.0,-1.858239,12.1208,1.713E+04
251.0,-1.873891,12.1258,1.713E+04
252.0,-1.886116,12.1308,1.713E+04
253.0,-1.894258,12.1358,1.713E+04
254.0,-1.915340,12.1407,1.713E+04
255.0,-1.919995,12.1457,1.713E+04
256.0,-1.923489,12.1482,1.713E+04
257.0,-1.919467,12.1532,1.713E+04
258.0,-1.937515,12.1607,1.713E+04
259.0,-1.952275,12.1657,1.713E+04
260.0,-1.951337,12.1707,1.713E+04
261.0,-1.969186,12.1757,1.713E+04
262.0,-1.982130,12.1807,1.713E+04
263.0,-1.995887,12.1857,1.713E+04
264.0,-2.004945,12.1904,1.713E+04
265.0,-2.011648,12.1926,1.713E+04
266.0,-2.027678,12.1982,1.713E+04
267.0,-2.037706,12.2032,1.713E+04
268.0,-2.042205,12.2107,1.713E+04
269.0,-2.033437,12.2157,1.713E+04
270.0,-2.031466,12.2207,1.713E+04
271.0,-2.033372,12.2257,1.713E+04
272.0,-2.041237,12.2304,1.713E+04
273.0,-2.048057,12.2354,1.713E+04
274.0,-2.063727,12.2403,1.713E+04
275.0,-2.076423,12.2425,1.713E+04
276.0,-2.087087,12.2481,1.713E+04
277.0,-2.093834,12.2531,1.713E+04
278.0,-2.110236,12.2606,1.713E+04
279.0,-2.124723,12.2656,1.713E+04
280.0,-2.129353,12.2703,1.713E+04
281.0,-2.136930,12.2753,1.713E+04
282.0,-2.148317,12.2803,1.713E+04
283.0,-2.128436,12.2853,1.713E+04
284.0,-2.139904,12.2881,1.713E+04
285.0,-2.145471,12.2925,1.713E+04
286.0,-2.160066,12.2981,1.713E+04
287.0,-2.173785,12.3031,1.713E+04
288.0,-2.179147,12.3103,1.713E+04
289.0,-2.184484,12.3153,1.713E+04
290.0,-2.200708,12.3206,1.713E+04
291.0,-2.213341,12.3256,1.713E+04
292.0,-2.222551,12.3306,1.713E+04
293.0,-2.230917,12.3331,1.713E+04
294.0,-2.241195,12.3381,1.713E+04
295.0,-2.253750,12.3430,1.713E+04
296.0,-2.259687,12.3480,1.713E+04
297.0,-2.269058,12.3555,1.713E+04
298.0,-2.278943,12.3605,1.713E+04
299.0,-2.295458,12.3655,1.713E+04
300.0,-2.299511,12.3705,1.713E+04
301.0,-2.301370,12.3755,1.713E+04
302.0,-2.316161,12.3805,1.713E+04
303.0,-2.321681,12.3855,1.713E+04
304.0,-2.302533,12.3880,1.713E+04
305.0,-2.305270,12.3930,1.713E+04
306.0,-2.319719,12.3980,1.713E+04
307.0,-2.334831,12.4030,1.713E+04
308.0,-2.336942,12.4080,1.713E+04
309.0,-2.345853,12.4130,1.713E+04
310.0,-2.353540,12.4180,1.713E+04
311.0,-2.367258,12.4230,1.713E+04
312.0,-2.374211,12.4280,1.713E+04
313.0,-2.380739,12.4330,1.713E+04
314.0,-2.391040,12.4380,1.713E+04
315.0,-2.399465,12.4430,1.713E+04
316.0,-2.404405,12.4480,1.713E+04
317.0,-2.413339,12.4530,1.713E+04
318.0,-2.395817,12.4580,1.713E+04
319.0,-2.377919,12.4630,1.713E+04
320.0,-2.368401,12.4680,1.713E+04
321.0,-2.375310,12.4730,1.713E+04
322.0,-2.385242,12.4780,1.713E+04
323.0,-2.393959,12.4830,1.713E+04
324.0,-2.402743,12.4880,1.713E+04
325.0,-2.403518,12.4930,1.713E+04
326.0,-2.422219,12.4979,1.713E+04
327.0,-2.428359,12.5029,1.713E+04
328.0,-2.421483,12.5079,1.713E+04
329.0,-2.399175,12.5130,1.713E+04
330.0,-2.411777,12.5180,1.713E+04
331.0,-2.426678,12.5229,1.713E+04
332.0,-2.430077,12.5279,1.713E+04
333.0,-2.432352,12.5329,1.713E+04
334.0,-2.445841,12.5379,1.713E+04
335.0,-2.457114,12.5429,1.713E+04
336.0,-2.460129,12.5479,1.713E+04
337.0,-2.462473,12.5529,1.713E+04
338.0,-2.478579,12.5579,1.713E+04
339.0,-2.486304,12.5629,1.713E+04
340.0,-2.493935,12.5679,1.713E+04
341.0,-2.492644,12.5729,1.713E+04
342.0,-2.507367,12.5779,1.713E+04
343.0,-2.503898,12.5829,1.713E+04
344.0,-2.479397,12.5879,1.713E+04
345.0,-2.478971,12.5929,1.713E+04
346.0,-2.485607,12.5979,1.713E+04
347.0,-2.500311,12.6029,1.713E+04
348.0,-2.505006,12.6079,1.713E+04
349.0,-2.502397,12.6129,1.713E+04
350.0,-2.512965,12.6179,1.713E+04
351.0,-2.482766,12.6229,1.713E+04
352.0,-2.463916,12.6279,1.713E+04
353.0,-2.466149,12.6329,1.713E+04
354.0,-2.476785,12.6379,1.713E+04
355.0,-2.483274,12.6429,1.713E+04
356.0,-2.490105,12.6479,1.713E+04
357.0,-2.493433,12.6529,1.713E+04
358.0,-2.506855,12.6579,1.713E+04
359.0,-2.511153,12.6629,1.713E+04
360.0,-2.491569,12.6679,1.713E+04
361.0,-2.486600,12.6729,1.713E+04
362.0,-2.496572,12.6779,1.713E+04
363.0,-2.505803,12.6829,1.713E+04
364.0,-2.511676,12.6879,1.713E+04
365.0,-2.515651,12.6929,1.713E+04
366.0,-2.523154,12.6979,1.713E+04
367.0,-2.533891,12.7029,1.713E+04
368.0,-2.539821,12.7079,1.713E+04
369.0,-2.541207,12.7129,1.713E+04
370.0,-2.548579,12.7179,1.713E+04
371.0,-2.560992,12.7229,1.713E+04
372.0,-2.525698,12.7279,1.713E+04
373.0,-2.519502,12.7329,1.713E+04
374.0,-2.529015,12.7379,1.713E+04
375.0,-2.542324,12.7429,1.713E+04
376.0,-2.548555,12.7479,1.713E+04
377.0,-2.549869,12.7529,1.713E+04
378.0,-2.556680,12.7579,1.713E+04
379.0,-2.566409,12.7629,1.713E+04
380.0,-2.573028,12.7679,1.713E+04
381.0,-2.573458,12.7729,1.713E+04
382.0,-2.582698,12.7779,1.713E+04
383.0,-2.594992,12.7828,1.713E+04
384.0,-2.595970,12.7878,1.713E+04
385.0,-2.596697,12.7928,1.713E+04
386.0,-2.560580,12.7979,1.713E+04
387.0,-2.566771,12.8029,1.713E+04
388.0,-2.572263,12.8079,1.713E+04
389.0,-2.575558,12.8129,1.713E+04
390.0,-2.582270,12.8179,1.713E+04
391.0,-2.589827,12.8228,1.713E+04
392.0,-2.597491,12.8278,1.713E+04
393.0,-2.603351,12.8328,1.713E+04
394.0,-2.605378,12.8378,1.713E+04
395.0,-2.618625,12.8428,1.713E+04
396.0,-2.622797,12.8478,1.713E+04
397.0,-2.624559,12.8528,1.713E+04
398.0,-2.626542,12.8578,1.713E+04
399.0,-2.630339,12.8628,1.713E+04
400.0,-2.604195,12.8678,1.713E+04
401.0,-2.600947,12.8728,1.713E+04
402.0,-2.611048,12.8778,1.713E+04
403.0,-2.616853,12.8828,1.713E+04
404.0,-2.571106,12.8879,1.713E+04
405.0,-2.575843,12.8922,1.713E+04
406.0,-2.580776,12.8979,1.713E+04
407.0,-2.587664,12.9028,1.713E+04
408.0,-2.594838,12.9078,1.713E+04
409.0,-2.595710,12.9122,1.713E+04
410.0,-2.604195,12.9178,1.713E+04
411.0,-2.613739,12.9222,1.713E+04
412.0,-2.618127,12.9278,1.713E+04
413.0,-2.618429,12.9322,1.713E+04
414.0,-2.623566,12.9378,1.713E+04
415.0,-2.633502,12.9422,1.713E+04
416.0,-2.642050,12.9478,1.713E+04
417.0,-2.639607,12.9522,1.713E+04
418.0,-2.644029,12.9578,1.713E+04
419.0,-2.657391,12.9622,1.713E+04
420.0,-2.660789,12.9678,1.713E+04
421.0,-2.661392,12.9722,1.713E+04
422.0,-2.666914,12.9778,1.713E+04
423.0,-2.675909,12.9822,1.713E+04
424.0,-2.679628,12.9878,1.713E+04
425.0,-2.663237,12.9922,1.713E+04
426.0,-2.644288,12.9972,1.713E+04
427.0,-2.650807,13.0022,1.713E+04
428.0,-2.657922,13.0078,1.713E+04
429.0,-2.660410,13.0122,1.713E+04
430.0,-2.657900,13.0172,1.713E+04
431.0,-2.629088,13.0222,1.713E+04
432.0,-2.636577,13.0278,1.713E+04
433.0,-2.637356,13.0322,1.713E+04
434.0,-2.642782,13.0372,1.713E+04
435.0,-2.649384,13.0422,1.713E+04
436.0,-2.654980,13.0478,1.713E+04
437.0,-2.656346,13.0522,1.713E+04
438.0,-2.660192,13.0572,1.713E+04
439.0,-2.669198,13.0622,1.713E+04
440.0,-2.673613,13.0678,1.713E+04
441.0,-2.677181,13.0722,1.713E+04
442.0,-2.681448,13.0772,1.713E+04
443.0,-2.650369,13.0822,1.713E+04
444.0,-2.645532,13.0878,1.713E+04
445.0,-2.652991,13.0922,1.713E+04
446.0,-2.654213,13.0972,1.713E+04
447.0,-2.659993,13.1022,1.713E+04
448.0,-2.660059,13.1078,1.713E+04
449.0,-2.667622,13.1122,1.713E+04
450.0,-2.671429,13.1172,1.713E+04
451.0,-2.676727,13.1222,1.713E+04
452.0,-2.685212,13.1278,1.713E+04
453.0,-2.687321,13.1322,1.713E+04
454.0,-2.685799,13.1372,1.713E+04
455.0,-2.694922,13.1422,1.713E+04
456.0,-2.699308,13.1478,1.713E+04
457.0,-2.702909,13.1522,1.713E+04
458.0,-2.702920,13.1572,1.713E+04
459.0,-2.709748,13.1622,1.713E+04
460.0,-2.679657,13.1678,1.713E+04
461.0,-2.665880,13.1722,1.713E+04
462.0,-2.666311,13.1772,1.713E+04
463.0,-2.672373,13.1822,1.713E+04
464.0,-2.673933,13.1878,1.713E+04
465.0,-2.674681,13.1922,1.713E+04
466.0,-2.631134,13.1972,1.713E+04
467.0,-2.640846,13.2022,1.713E+04
468.0,-2.644809,13.2078,1.713E+04
469.0,-2.650839,13.2122,1.713E+04
470.0,-2.646355,13.2172,1.713E+04
471.0,-2.656009,13.2222,1.713E+04
472.0,-2.658646,13.2278,1.713E+04
473.0,-2.665570,13.2322,1.713E+04
474.0,-2.662429,13.2372,1.713E+04
475.0,-2.671927,13.2422,1.713E+04
476.0,-2.675591,13.2478,1.713E+04
477.0,-2.680949,13.2522,1.713E+04
478.0,-2.652321,13.2572,1.713E+04
479.0,-2.638992,13.2622,1.713E+04
480.0,-2.642350,13.2678,1.713E+04
481.0,-2.649249,13.2722,1.713E+04
482.0,-2.641588,13.2772,1.713E+04
483.0,-2.651043,13.2822,1.713E+04
484.0,-2.654954,13.2878,1.713E+04
485.0,-2.663285,13.2922,1.713E+04
486.0,-2.660377,13.2972,1.713E+04
487.0,-2.646610,13.3022,1.713E+04
488.0,-2.616119,13.3078,1.713E+04
489.0,-2.622158,13.3122,1.713E+04
490.0,-2.570054,13.3172,1.713E+04
491.0,-2.577999,13.3222,1.713E+04
492.0,-2.576201,13.3279,1.713E+04
493.0,-2.584655,13.3322,1.713E+04
494.0,-2.580136,13.3372,1.713E+04
495.0,-2.577258,13.3422,1.713E+04
496.0,-2.487515,13.3479,1.713E+04
497.0,-2.487166,13.3523,1.713E+04
498.0,-2.438272,13.3573,1.713E+04
499.0,-2.449724,13.3623,1.713E+04
500.0,-2.445682,13.3679,1.713E+04
501.0,-2.451232,13.3723,1.713E+04
502.0,-2.365824,13.3774,1.713E+04
503.0,-2.345474,13.3824,1.713E+04
504.0,-2.264662,13.3880,1.713E+04
505.0,-2.258918,13.3924,1.713E+04
506.0,-2.251625,13.3980,1.713E+04
507.0,-2.214781,13.4024,1.713E+04
508.0,-2.211283,13.4081,1.713E+04
509.0,-2.221791,13.4124,1.713E+04
510.0,-2.215364,13.4174,1.713E+04
511.0,-2.219411,13.4224,1.713E+04
512.0,-2.221171,13.4281,1.713E+04
513.0,-2.229542,13.4324,1.713E+04
514.0,-2.221141,13.4374,1.713E+04
515.0,-2.224027,13.4424,1.713E+04
516.0,-2.194620,13.4481,1.713E+04
517.0,-2.185170,13.4525,1.713E+04
518.0,-2.156524,13.4575,1.713E+04
519.0,-2.092186,13.4625,1.713E+04
520.0,-2.082778,13.4681,1.713E+04
521.0,-2.087648,13.4725,1.713E+04
522.0,-2.036196,13.4775,1.713E+04
523.0,-2.041120,13.4825,1.713E+04
524.0,-1.990618,13.4882,1.713E+04
525.0,-2.002394,13.4926,1.713E+04
526.0,-1.997206,13.4982,1.713E+04
527.0,-2.000891,13.5026,1.713E+04
528.0,-1.993346,13.5082,1.713E+04
529.0,-2.004830,13.5126,1.713E+04
530.0,-1.999497,13.5182,1.713E+04
531.0,-2.001683,13.5226,1.713E+04
532.0,-1.978031,13.5282,1.713E+04
533.0,-1.951324,13.5326,1.713E+04
534.0,-1.937643,13.5382,1.713E+04
535.0,-1.890135,13.5426,1.713E+04
536.0,-1.874148,13.5483,1.713E+04
537.0,-1.798803,13.5527,1.713E+04
538.0,-1.778553,13.5583,1.713E+04
539.0,-1.783856,13.5627,1.713E+04
540.0,-1.765904,13.5683,1.713E+04
541.0,-1.731627,13.5727,1.713E+04
542.0,-1.717475,13.5784,1.713E+04
543.0,-1.723544,13.5827,1.713E+04
544.0,-1.693575,13.5884,1.713E+04
545.0,-1.657194,13.5928,1.713E+04
546.0,-1.614246,13.5984,1.713E+04
547.0,-1.518674,13.6029,1.713E+04
548.0,-1.508373,13.6085,1.713E+04
549.0,-1.520898,13.6129,1.713E+04
550.0,-1.512691,13.6185,1.713E+04
551.0,-1.505490,13.6229,1.713E+04
552.0,-1.355688,13.6286,1.713E+04
553.0,-1.303484,13.6330,1.713E+04
554.0,-1.232111,13.6386,1.713E+04
555.0,-1.197159,13.6430,1.713E+04
556.0,-1.179689,13.6487,1.713E+04
557.0,-1.160365,13.6531,1.713E+04
558.0,-1.115948,13.6587,1.713E+04
559.0,-1.109437,13.6631,1.713E+04
560.0,-1.018338,13.6688,1.713E+04
561.0,-1.003572,13.6732,1.713E+04
562.0,-0.992944,13.6788,1.713E+04
563.0,-0.958658,13.6832,1.713E+04
564.0,-0.887910,13.6889,1.713E+04
565.0,-0.888840,13.6932,1.713E+04
566.0,-0.825459,13.6989,1.713E+04
567.0,-0.811436,13.7033,1.713E+04
568.0,-0.717870,13.7090,1.713E+04
569.0,-0.645529,13.7134,1.713E+04
570.0,-0.613266,13.7190,1.713E+04
571.0,-0.570299,13.7234,1.713E+04
572.0,-0.538354,13.7291,1.713E+04
573.0,-0.467896,13.7335,1.713E+04
574.0,-0.419432,13.7391,1.713E+04
575.0,-0.420797,13.7435,1.713E+04
576.0,-0.361001,13.7492,1.713E+04
577.0,-0.370278,13.7535,1.713E+04
