Point No.,Normal Force [N],Gap [mm],Time [s]
1.0,4.653703,10.9027,7559
2.0,4.653807,10.9027,7559
3.0,4.652269,10.9027,7559
4.0,4.648443,10.9027,7559
5.0,4.634895,10.9034,7559
6.0,4.601891,10.9058,7559
7.0,4.554206,10.9096,7559
8.0,4.483285,10.9133,7559
9.0,4.392035,10.9182,7559
10.0,4.326274,10.9232,7559
11.0,4.256507,10.9275,7559
12.0,4.204767,10.9331,7559
13.0,4.142626,10.9374,7559
14.0,4.079853,10.9424,7559
15.0,4.028824,10.9474,7559
16.0,3.990730,10.9530,7559
17.0,3.948467,10.9573,7559
18.0,3.892196,10.9623,7559
19.0,3.839535,10.9673,7559
20.0,3.788275,10.9729,7559
21.0,3.747180,10.9772,7559
22.0,3.693009,10.9822,7559
23.0,3.652799,10.9872,7559
24.0,3.610520,10.9928,7559
25.0,3.563098,10.9977,7559
26.0,3.518174,11.0027,7559
27.0,3.469215,11.0070,7559
28.0,3.437903,11.0120,7559
29.0,3.394225,11.0170,7559
30.0,3.351941,11.0220,7559
31.0,3.309376,11.0270,7559
32.0,3.275567,11.0319,7559
33.0,3.236854,11.0369,7559
34.0,3.191565,11.0419,7559
35.0,3.149456,11.0469,7559
36.0,3.119199,11.0525,7559
37.0,3.084648,11.0568,7559
38.0,3.049911,11.0618,7559
39.0,3.010994,11.0668,7559
40.0,2.982397,11.0718,7559
41.0,2.951962,11.0767,7559
42.0,2.909673,11.0817,7559
43.0,2.872567,11.0867,7559
44.0,2.850042,11.0917,7559
45.0,2.822920,11.0973,7559
46.0,2.785843,11.1016,7559
47.0,2.745051,11.1066,7559
48.0,2.716514,11.1116,7559
49.0,2.695897,11.1166,7559
50.0,2.664625,11.1216,7559
51.0,2.629832,11.1266,7559
52.0,2.603856,11.1315,7559
53.0,2.577204,11.1365,7559
54.0,2.545100,11.1415,7559
55.0,2.519093,11.1465,7559
56.0,2.489991,11.1515,7559
57.0,2.465467,11.1565,7559
58.0,2.435025,11.1614,7559
59.0,2.405911,11.1664,7559
60.0,2.381038,11.1714,7559
61.0,2.357316,11.1764,7559
62.0,2.324073,11.1814,7559
63.0,2.297339,11.1864,7559
64.0,2.272976,11.1913,7559
65.0,2.255677,11.1963,7559
66.0,2.239198,11.2013,7559
67.0,2.211688,11.2063,7559
68.0,2.189268,11.2113,7559
69.0,2.173923,11.2163,7559
70.0,2.144896,11.2213,7559
71.0,2.117620,11.2263,7560
72.0,2.086621,11.2312,7560
73.0,2.070854,11.2362,7560
74.0,2.039275,11.2412,7560
75.0,2.004190,11.2462,7560
76.0,1.983299,11.2512,7560
77.0,1.959187,11.2562,7560
78.0,1.929179,11.2611,7560
79.0,1.896451,11.2661,7560
80.0,1.869680,11.2711,7560
81.0,1.848221,11.2761,7560
82.0,1.814632,11.2811,7560
83.0,1.783035,11.2861,7560
84.0,1.754078,11.2910,7560
85.0,1.735544,11.2960,7560
86.0,1.704405,11.3010,7560
87.0,1.671347,11.3060,7560
88.0,1.641013,11.3110,7560
89.0,1.617487,11.3160,7560
90.0,1.586325,11.3209,7560
91.0,1.550802,11.3259,7560
92.0,1.518254,11.3309,7560
93.0,1.493016,11.3359,7560
94.0,1.458088,11.3409,7560
95.0,1.424756,11.3458,7560
96.0,1.392637,11.3508,7560
97.0,1.359872,11.3558,7560
98.0,1.332754,11.3608,7560
99.0,1.299890,11.3658,7560
100.0,1.268955,11.3708,7560
101.0,1.246570,11.3757,7560
102.0,1.208480,11.3807,7560
103.0,1.180082,11.3857,7560
104.0,1.141992,11.3907,7560
105.0,1.113650,11.3957,7560
106.0,1.084351,11.4006,7560
107.0,1.048350,11.4056,7560
108.0,1.015651,11.4106,7560
109.0,0.987720,11.4156,7560
110.0,0.958066,11.4206,7560
111.0,0.922305,11.4255,7560
112.0,0.891751,11.4305,7560
113.0,0.863676,11.4355,7560
114.0,0.827720,11.4405,7560
115.0,0.795906,11.4455,7560
116.0,0.761906,11.4505,7560
117.0,0.735422,11.4554,7560
118.0,0.704856,11.4604,7560
119.0,0.671574,11.4654,7560
120.0,0.636802,11.4704,7560
121.0,0.613075,11.4754,7560
122.0,0.580065,11.4803,7560
123.0,0.535574,11.4853,7560
124.0,0.494854,11.4903,7560
125.0,0.470895,11.4953,7560
126.0,0.444573,11.5003,7560
127.0,0.414922,11.5052,7560
128.0,0.384461,11.5102,7560
129.0,0.367363,11.5152,7560
130.0,0.341010,11.5202,7560
131.0,0.308557,11.5252,7560
132.0,0.283575,11.5302,7560
133.0,0.262764,11.5352,7560
134.0,0.231108,11.5401,7560
135.0,0.204992,11.5451,7560
136.0,0.176621,11.5501,7560
137.0,0.157335,11.5551,7560
138.0,0.130290,11.5601,7560
139.0,0.101122,11.5651,7560
140.0,0.074003,11.5700,7560
141.0,0.055230,11.5750,7560
142.0,0.029432,11.5800,7560
143.0,-0.001235,11.5850,7560
144.0,-0.027559,11.5900,7560
145.0,-0.048204,11.5950,7560
146.0,-0.070809,11.6000,7560
147.0,-0.098256,11.6049,7560
148.0,-0.122577,11.6099,7560
149.0,-0.143030,11.6149,7560
150.0,-0.171791,11.6199,7560
151.0,-0.192768,11.6249,7560
152.0,-0.217812,11.6299,7560
153.0,-0.236862,11.6349,7560
154.0,-0.265920,11.6398,7560
155.0,-0.289308,11.6448,7560
156.0,-0.310914,11.6498,7560
157.0,-0.333622,11.6548,7560
158.0,-0.355247,11.6598,7560
159.0,-0.382605,11.6648,7560
160.0,-0.405934,11.6698,7560
161.0,-0.423033,11.6748,7560
162.0,-0.443168,11.6797,7560
163.0,-0.468859,11.6847,7560
164.0,-0.492338,11.6897,7560
165.0,-0.517643,11.6947,7560
166.0,-0.526371,11.6997,7560
167.0,-0.555506,11.7047,7560
168.0,-0.573661,11.7097,7560
169.0,-0.584262,11.7147,7560
170.0,-0.595712,11.7196,7560
171.0,-0.614601,11.7246,7561
172.0,-0.653584,11.7296,7561
173.0,-0.665343,11.7346,7561
174.0,-0.681380,11.7396,7561
175.0,-0.712635,11.7446,7561
176.0,-0.732848,11.7496,7561
177.0,-0.755312,11.7546,7561
178.0,-0.772212,11.7595,7561
179.0,-0.796322,11.7645,7561
180.0,-0.815064,11.7695,7561
181.0,-0.834739,11.7745,7561
182.0,-0.853035,11.7795,7561
183.0,-0.874239,11.7845,7561
184.0,-0.895551,11.7895,7561
185.0,-0.911305,11.7938,7561
186.0,-0.928976,11.7995,7561
187.0,-0.950393,11.8044,7561
188.0,-0.972205,11.8094,7561
189.0,-0.986549,11.8144,7561
190.0,-1.002794,11.8194,7561
191.0,-1.025749,11.8238,7561
192.0,-1.042406,11.8294,7561
193.0,-1.059684,11.8337,7561
194.0,-1.078158,11.8394,7561
195.0,-1.098031,11.8437,7561
196.0,-1.112224,11.8493,7561
197.0,-1.130140,11.8543,7561
198.0,-1.136357,11.8593,7561
199.0,-1.156390,11.8637,7561
200.0,-1.164319,11.8693,7561
201.0,-1.178240,11.8737,7561
202.0,-1.191969,11.8787,7561
203.0,-1.203360,11.8837,7561
204.0,-1.221020,11.8893,7561
205.0,-1.235245,11.8943,7561
206.0,-1.244307,11.8993,7561
207.0,-1.260533,11.9043,7561
208.0,-1.277017,11.9092,7561
209.0,-1.291805,11.9136,7561
210.0,-1.299925,11.9186,7561
211.0,-1.319839,11.9236,7561
212.0,-1.338200,11.9292,7561
213.0,-1.356593,11.9336,7561
214.0,-1.362448,11.9386,7561
215.0,-1.381761,11.9442,7561
216.0,-1.393636,11.9492,7561
217.0,-1.392953,11.9536,7561
218.0,-1.394742,11.9586,7561
219.0,-1.411237,11.9635,7561
220.0,-1.421788,11.9685,7561
221.0,-1.438548,11.9735,7561
222.0,-1.447265,11.9785,7561
223.0,-1.461316,11.9835,7561
224.0,-1.470479,11.9891,7561
225.0,-1.488572,11.9935,7561
226.0,-1.498808,11.9985,7561
227.0,-1.511833,12.0035,7561
228.0,-1.522511,12.0085,7561
229.0,-1.543701,12.0135,7561
230.0,-1.549860,12.0185,7561
231.0,-1.565834,12.0235,7561
232.0,-1.580211,12.0284,7561
233.0,-1.590288,12.0334,7561
234.0,-1.602729,12.0384,7561
235.0,-1.618130,12.0434,7561
236.0,-1.623042,12.0484,7561
237.0,-1.622446,12.0534,7561
238.0,-1.630566,12.0584,7561
239.0,-1.649161,12.0634,7561
240.0,-1.655237,12.0684,7561
241.0,-1.672946,12.0734,7561
242.0,-1.681592,12.0784,7561
243.0,-1.696117,12.0834,7561
244.0,-1.706659,12.0884,7561
245.0,-1.725373,12.0934,7561
246.0,-1.721174,12.0984,7561
247.0,-1.722273,12.1034,7561
248.0,-1.734328,12.1084,7561
249.0,-1.750998,12.1133,7561
250.0,-1.754758,12.1183,7561
251.0,-1.769654,12.1233,7561
252.0,-1.782948,12.1283,7561
253.0,-1.798929,12.1333,7561
254.0,-1.801934,12.1383,7561
255.0,-1.819752,12.1433,7561
256.0,-1.827826,12.1483,7561
257.0,-1.824548,12.1533,7561
258.0,-1.820865,12.1583,7561
259.0,-1.836678,12.1633,7561
260.0,-1.843051,12.1683,7561
261.0,-1.858770,12.1733,7561
262.0,-1.865240,12.1783,7561
263.0,-1.880601,12.1833,7561
264.0,-1.883692,12.1883,7561
265.0,-1.907788,12.1932,7561
266.0,-1.910206,12.1982,7561
267.0,-1.923839,12.2032,7561
268.0,-1.929837,12.2082,7561
269.0,-1.951270,12.2132,7561
270.0,-1.954159,12.2182,7561
271.0,-1.966049,12.2232,7562
272.0,-1.970631,12.2282,7562
273.0,-1.989993,12.2332,7562
274.0,-1.991188,12.2382,7562
275.0,-2.008695,12.2432,7562
276.0,-2.012261,12.2482,7562
277.0,-2.032012,12.2532,7562
278.0,-2.017982,12.2582,7562
279.0,-2.017611,12.2626,7562
280.0,-2.023432,12.2682,7562
281.0,-2.038405,12.2725,7562
282.0,-2.041177,12.2782,7562
283.0,-2.053449,12.2832,7562
284.0,-2.060432,12.2882,7562
285.0,-2.079236,12.2931,7562
286.0,-2.074152,12.2982,7562
287.0,-2.070905,12.3032,7562
288.0,-2.068391,12.3082,7562
289.0,-2.087626,12.3131,7562
290.0,-2.088798,12.3181,7562
291.0,-2.099629,12.3231,7562
292.0,-2.106168,12.3281,7562
293.0,-2.126114,12.3331,7562
294.0,-2.127225,12.3381,7562
295.0,-2.137629,12.3431,7562
296.0,-2.144087,12.3481,7562
297.0,-2.162794,12.3531,7562
298.0,-2.124950,12.3581,7562
299.0,-2.138588,12.3631,7562
300.0,-2.141314,12.3681,7562
301.0,-2.159542,12.3731,7562
302.0,-2.158059,12.3781,7562
303.0,-2.174452,12.3831,7562
304.0,-2.174941,12.3881,7562
305.0,-2.196989,12.3931,7562
306.0,-2.197951,12.3981,7562
307.0,-2.209329,12.4031,7562
308.0,-2.209053,12.4081,7562
309.0,-2.229531,12.4131,7562
310.0,-2.212859,12.4181,7562
311.0,-2.220902,12.4231,7562
312.0,-2.220938,12.4281,7562
313.0,-2.222939,12.4331,7562
314.0,-2.208025,12.4381,7562
315.0,-2.222939,12.4431,7562
316.0,-2.218794,12.4481,7562
317.0,-2.241309,12.4531,7562
318.0,-2.200316,12.4581,7562
319.0,-2.212708,12.4631,7562
320.0,-2.212382,12.4681,7562
321.0,-2.232193,12.4731,7562
322.0,-2.230870,12.4781,7562
323.0,-2.246995,12.4830,7562
324.0,-2.244753,12.4881,7562
325.0,-2.265352,12.4930,7562
326.0,-2.265101,12.4980,7562
327.0,-2.266951,12.5030,7562
328.0,-2.197915,12.5081,7562
329.0,-2.212418,12.5131,7562
330.0,-2.212319,12.5181,7562
331.0,-2.211033,12.5231,7562
332.0,-2.188829,12.5281,7562
333.0,-2.215490,12.5331,7562
334.0,-2.210208,12.5381,7562
335.0,-2.220680,12.5431,7562
336.0,-2.218328,12.5481,7562
337.0,-2.242633,12.5530,7562
338.0,-2.233542,12.5581,7562
339.0,-2.247954,12.5630,7562
340.0,-2.245469,12.5680,7562
341.0,-2.270269,12.5730,7562
342.0,-2.264138,12.5780,7562
343.0,-2.278202,12.5830,7562
344.0,-2.276224,12.5880,7562
345.0,-2.296622,12.5930,7562
346.0,-2.301169,12.5980,7562
347.0,-2.309114,12.6030,7562
348.0,-2.300989,12.6080,7562
349.0,-2.324950,12.6130,7562
350.0,-2.325478,12.6180,7562
351.0,-2.335033,12.6230,7562
352.0,-2.331578,12.6280,7562
353.0,-2.356806,12.6330,7562
354.0,-2.350746,12.6380,7562
355.0,-2.366916,12.6430,7562
356.0,-2.361691,12.6480,7562
357.0,-2.379060,12.6530,7562
358.0,-2.376638,12.6580,7562
359.0,-2.392036,12.6630,7562
360.0,-2.384386,12.6680,7562
361.0,-2.397952,12.6730,7562
362.0,-2.395022,12.6780,7562
363.0,-2.410767,12.6830,7562
364.0,-2.401522,12.6880,7562
365.0,-2.417494,12.6929,7562
366.0,-2.393839,12.6980,7562
367.0,-2.406536,12.7030,7562
368.0,-2.399415,12.7080,7562
369.0,-2.423274,12.7129,7562
370.0,-2.415027,12.7180,7562
371.0,-2.397031,12.7230,7563
372.0,-2.390351,12.7280,7563
373.0,-2.414962,12.7330,7563
374.0,-2.410300,12.7380,7563
375.0,-2.421322,12.7429,7563
376.0,-2.417403,12.7479,7563
377.0,-2.437232,12.7529,7563
378.0,-2.432560,12.7579,7563
379.0,-2.444201,12.7629,7563
380.0,-2.438520,12.7679,7563
381.0,-2.456818,12.7729,7563
382.0,-2.405918,12.7780,7563
383.0,-2.421345,12.7829,7563
384.0,-2.411973,12.7880,7563
385.0,-2.431410,12.7929,7563
386.0,-2.404638,12.7980,7563
387.0,-2.409318,12.8030,7563
388.0,-2.400257,12.8080,7563
389.0,-2.422623,12.8129,7563
390.0,-2.421973,12.8179,7563
391.0,-2.435198,12.8229,7563
392.0,-2.424211,12.8279,7563
393.0,-2.443544,12.8329,7563
394.0,-2.443161,12.8379,7563
395.0,-2.452041,12.8429,7563
396.0,-2.441221,12.8479,7563
397.0,-2.469746,12.8529,7563
398.0,-2.462462,12.8579,7563
399.0,-2.475058,12.8629,7563
400.0,-2.465466,12.8679,7563
401.0,-2.489002,12.8729,7563
402.0,-2.483812,12.8779,7563
403.0,-2.498787,12.8829,7563
404.0,-2.490447,12.8879,7563
405.0,-2.509788,12.8923,7563
406.0,-2.506694,12.8979,7563
407.0,-2.520907,12.9029,7563
408.0,-2.511476,12.9079,7563
409.0,-2.532591,12.9123,7563
410.0,-2.531075,12.9179,7563
411.0,-2.543989,12.9229,7563
412.0,-2.535981,12.9279,7563
413.0,-2.556968,12.9322,7563
414.0,-2.556374,12.9379,7563
415.0,-2.563556,12.9422,7563
416.0,-2.546052,12.9479,7563
417.0,-2.527540,12.9523,7563
418.0,-2.526905,12.9579,7563
419.0,-2.532918,12.9623,7563
420.0,-2.526152,12.9679,7563
421.0,-2.548340,12.9722,7563
422.0,-2.546526,12.9772,7563
423.0,-2.559163,12.9822,7563
424.0,-2.549069,12.9879,7563
425.0,-2.567131,12.9922,7563
426.0,-2.569610,12.9979,7563
427.0,-2.579341,13.0022,7563
428.0,-2.569974,13.0079,7563
429.0,-2.589296,13.0122,7563
430.0,-2.588158,13.0172,7563
431.0,-2.602544,13.0222,7563
432.0,-2.590166,13.0278,7563
433.0,-2.609974,13.0322,7563
434.0,-2.611008,13.0372,7563
435.0,-2.621431,13.0422,7563
436.0,-2.612144,13.0478,7563
437.0,-2.630879,13.0522,7563
438.0,-2.632455,13.0572,7563
439.0,-2.644096,13.0622,7563
440.0,-2.629042,13.0678,7563
441.0,-2.599425,13.0722,7563
442.0,-2.597099,13.0772,7563
443.0,-2.610540,13.0822,7563
444.0,-2.590694,13.0878,7563
445.0,-2.574281,13.0922,7563
446.0,-2.574650,13.0972,7563
447.0,-2.585219,13.1022,7563
448.0,-2.578134,13.1079,7563
449.0,-2.590587,13.1122,7563
450.0,-2.590816,13.1172,7563
451.0,-2.604459,13.1222,7563
452.0,-2.594518,13.1278,7563
453.0,-2.608480,13.1322,7563
454.0,-2.610561,13.1372,7563
455.0,-2.621924,13.1422,7563
456.0,-2.611118,13.1478,7563
457.0,-2.627316,13.1522,7563
458.0,-2.629871,13.1572,7563
459.0,-2.638116,13.1622,7563
460.0,-2.629888,13.1678,7563
461.0,-2.644732,13.1722,7563
462.0,-2.648136,13.1772,7563
463.0,-2.655377,13.1822,7563
464.0,-2.650233,13.1878,7563
465.0,-2.665502,13.1922,7563
466.0,-2.661144,13.1972,7563
467.0,-2.679005,13.2022,7563
468.0,-2.665855,13.2078,7563
469.0,-2.676058,13.2122,7563
470.0,-2.682109,13.2172,7563
471.0,-2.692523,13.2222,7564
472.0,-2.644849,13.2278,7564
473.0,-2.652881,13.2322,7564
474.0,-2.655083,13.2372,7564
475.0,-2.666222,13.2422,7564
476.0,-2.653755,13.2478,7564
477.0,-2.669886,13.2522,7564
478.0,-2.672053,13.2572,7564
479.0,-2.647447,13.2622,7564
480.0,-2.618796,13.2678,7564
481.0,-2.633743,13.2722,7564
482.0,-2.636117,13.2772,7564
483.0,-2.644690,13.2822,7564
484.0,-2.637723,13.2878,7564
485.0,-2.650229,13.2922,7564
486.0,-2.650068,13.2972,7564
487.0,-2.663737,13.3022,7564
488.0,-2.653479,13.3078,7564
489.0,-2.666168,13.3122,7564
490.0,-2.667754,13.3172,7564
491.0,-2.678010,13.3222,7564
492.0,-2.668364,13.3278,7564
493.0,-2.678845,13.3322,7564
494.0,-2.645170,13.3372,7564
495.0,-2.631983,13.3422,7564
496.0,-2.578777,13.3479,7564
497.0,-2.545013,13.3522,7564
498.0,-2.523652,13.3573,7564
499.0,-2.501945,13.3623,7564
500.0,-2.493917,13.3679,7564
501.0,-2.502153,13.3723,7564
502.0,-2.504288,13.3779,7564
503.0,-2.462144,13.3823,7564
504.0,-2.436032,13.3879,7564
505.0,-2.363049,13.3924,7564
506.0,-2.308948,13.3974,7564
507.0,-2.227358,13.4024,7564
508.0,-2.208359,13.4081,7564
509.0,-2.215195,13.4124,7564
510.0,-2.216942,13.4174,7564
511.0,-2.175733,13.4225,7564
512.0,-2.173409,13.4281,7564
513.0,-2.175806,13.4325,7564
514.0,-2.178258,13.4375,7564
515.0,-2.190091,13.4425,7564
516.0,-2.176993,13.4481,7564
517.0,-2.187353,13.4525,7564
518.0,-2.139467,13.4581,7564
519.0,-2.146058,13.4625,7564
520.0,-2.109757,13.4681,7564
521.0,-2.075022,13.4725,7564
522.0,-2.040376,13.4782,7564
523.0,-1.994391,13.4826,7564
524.0,-1.935167,13.4882,7564
525.0,-1.943465,13.4926,7564
526.0,-1.941835,13.4982,7564
527.0,-1.949331,13.5026,7564
528.0,-1.938918,13.5082,7564
529.0,-1.861716,13.5127,7564
530.0,-1.833220,13.5183,7564
531.0,-1.795160,13.5227,7564
532.0,-1.786273,13.5283,7564
533.0,-1.789486,13.5327,7564
534.0,-1.790135,13.5383,7564
535.0,-1.745165,13.5427,7564
536.0,-1.716231,13.5484,7564
537.0,-1.666996,13.5528,7564
538.0,-1.632976,13.5584,7564
539.0,-1.642502,13.5634,7564
540.0,-1.631221,13.5684,7564
541.0,-1.589123,13.5728,7564
542.0,-1.592623,13.5784,7564
543.0,-1.596322,13.5828,7564
544.0,-1.588298,13.5884,7564
545.0,-1.589373,13.5928,7564
546.0,-1.590566,13.5984,7564
547.0,-1.541660,13.6028,7564
548.0,-1.534316,13.6085,7564
549.0,-1.493788,13.6135,7564
550.0,-1.438567,13.6185,7564
551.0,-1.381097,13.6229,7564
552.0,-1.373311,13.6286,7564
553.0,-1.377024,13.6329,7564
554.0,-1.376149,13.6386,7564
555.0,-1.377966,13.6429,7564
556.0,-1.372761,13.6486,7564
557.0,-1.370582,13.6529,7564
558.0,-1.276189,13.6586,7564
559.0,-1.231934,13.6630,7564
560.0,-1.172189,13.6687,7564
561.0,-0.996626,13.6732,7564
562.0,-0.952245,13.6788,7564
563.0,-0.902095,13.6832,7564
564.0,-0.784700,13.6889,7564
565.0,-0.736367,13.6933,7564
566.0,-0.736222,13.6989,7564
567.0,-0.739612,13.7033,7564
568.0,-0.728735,13.7089,7564
569.0,-0.708784,13.7133,7564
570.0,-0.575763,13.7190,7564
571.0,-0.518936,13.7234,7565
572.0,-0.509018,13.7291,7565
573.0,-0.511169,13.7334,7565
574.0,-0.486208,13.7391,7565
575.0,-0.458754,13.7435,7565
576.0,-0.393210,13.7491,7565
577.0,-0.275555,13.7536,7565
578.0,-0.212775,13.7593,7565
579.0,-0.120166,13.7637,7565
580.0,-0.115618,13.7693,7565
581.0,-0.108443,13.7737,7565
582.0,-0.112195,13.7793,7565
583.0,-0.062001,13.7837,7565
584.0,-0.056133,13.7893,7565
585.0,-0.052754,13.7937,7565
586.0,-0.054297,13.7993,7565
587.0,-0.060313,13.8037,7565
588.0,-0.057262,13.8093,7565
589.0,-0.053140,13.8137,7565
590.0,-0.052130,13.8193,7565
591.0,-0.062418,13.8237,7565
592.0,-0.056060,13.8293,7565
593.0,-0.057129,13.8337,7565
594.0,-0.058871,13.8393,7565
595.0,-0.061994,13.8437,7565
596.0,-0.057278,13.8493,7565
597.0,-0.048113,13.8537,7565
598.0,-0.003444,13.8594,7565
599.0,-0.009813,13.8637,7565
600.0,-0.004728,13.8694,7565
601.0,-0.002397,13.8738,7565
602.0,-0.004382,13.8787,7565
603.0,-0.006799,13.8837,7565
604.0,-0.001431,13.8894,7565
605.0,-0.003958,13.8937,7565
606.0,-0.003039,13.8987,7565
607.0,-0.009156,13.9037,7565
608.0,-0.007926,13.9094,7565
609.0,-0.004220,13.9137,7565
610.0,-0.005576,13.9187,7565
611.0,-0.009663,13.9237,7565
612.0,-0.007987,13.9294,7565
613.0,-0.002925,13.9337,7565
614.0,-0.004924,13.9387,7565
615.0,-0.011192,13.9437,7565
616.0,-0.005209,13.9494,7565
617.0,-0.007674,13.9537,7565
618.0,-0.007388,13.9587,7565
619.0,-0.012163,13.9637,7565
620.0,-0.011440,13.9694,7565
621.0,-0.008796,13.9737,7565
622.0,-0.007769,13.9787,7565
623.0,-0.012488,13.9837,7565
624.0,-0.011765,13.9894,7565
625.0,-0.008511,13.9937,7565
626.0,-0.005721,13.9987,7565
627.0,-0.011001,14.0037,7565
628.0,-0.015494,14.0094,7565
629.0,-0.007935,14.0137,7565
630.0,-0.007889,14.0187,7565
631.0,-0.013732,14.0237,7565
632.0,-0.013767,14.0294,7565
633.0,-0.007005,14.0337,7565
634.0,-0.011108,14.0387,7565
635.0,-0.017762,14.0437,7565
636.0,-0.016156,14.0494,7565
637.0,-0.009895,14.0537,7565
638.0,-0.009649,14.0587,7565
639.0,-0.014587,14.0637,7565
640.0,-0.014982,14.0694,7565
641.0,-0.011835,14.0737,7565
642.0,-0.010049,14.0787,7565
643.0,-0.020830,14.0837,7565
644.0,-0.013919,14.0894,7565
645.0,-0.011354,14.0937,7565
646.0,-0.013675,14.0987,7565
647.0,-0.019121,14.1037,7565
648.0,-0.016292,14.1087,7565
649.0,-0.016748,14.1137,7565
650.0,-0.014372,14.1187,7565
651.0,-0.015766,14.1237,7565
652.0,-0.016159,14.1294,7565
653.0,-0.011417,14.1337,7565
654.0,-0.013049,14.1387,7565
655.0,-0.018957,14.1437,7565
656.0,-0.022600,14.1487,7565
657.0,-0.017942,14.1537,7565
658.0,-0.012254,14.1587,7565
659.0,-0.022897,14.1637,7565
660.0,-0.020206,14.1687,7565
661.0,-0.014873,14.1737,7565
662.0,-0.013783,14.1787,7565
663.0,-0.020891,14.1837,7565
664.0,-0.020615,14.1887,7565
665.0,-0.016173,14.1937,7565
666.0,-0.012371,14.1987,7565
667.0,-0.024122,14.2037,7565
668.0,-0.023624,14.2087,7565
669.0,-0.016780,14.2137,7565
670.0,-0.016116,14.2162,7565
671.0,-0.021854,14.2212,7566
672.0,-0.019497,14.2287,7566
673.0,-0.020606,14.2337,7566
