Point No.,Normal Force [N],Gap [mm],Time [s]
1,2.351312,10.3058,746.7551
2,2.351064,10.3058,746.7600
3,2.350835,10.3058,746.7650
4,2.351457,10.3058,746.7700
5,2.352561,10.3058,746.7750
6,2.352079,10.3058,746.7800
7,2.350480,10.3058,746.7850
8,2.348408,10.3064,746.7900
9,2.346486,10.3064,746.7940
10,2.342072,10.3064,746.7990
11,2.332696,10.3083,746.8040
12,2.324508,10.3082,746.8090
13,2.302581,10.3120,746.8140
14,2.285022,10.3120,746.8190
15,2.256694,10.3163,746.8240
16,2.222161,10.3207,746.8300
17,2.199243,10.3207,746.8350
18,2.156956,10.3256,746.8400
19,2.132850,10.3256,746.8450
20,2.092659,10.3306,746.8500
21,2.068109,10.3306,746.8550
22,2.032074,10.3356,746.8600
23,2.011443,10.3356,746.8651
24,1.976105,10.3405,746.8701
25,1.954454,10.3405,746.8751
26,1.915025,10.3455,746.8801
27,1.893112,10.3455,746.8850
28,1.852233,10.3505,746.8900
29,1.829151,10.3505,746.8950
30,1.800328,10.3504,746.8990
31,1.764246,10.3554,746.9041
32,1.735006,10.3554,746.9091
33,1.698812,10.3604,746.9141
34,1.672023,10.3604,746.9190
35,1.638644,10.3653,746.9240
36,1.612528,10.3653,746.9290
37,1.579481,10.3703,746.9340
38,1.551663,10.3703,746.9390
39,1.518621,10.3753,746.9440
40,1.490816,10.3753,746.9490
41,1.458359,10.3802,746.9540
42,1.431967,10.3802,746.9590
43,1.400426,10.3852,746.9641
44,1.374969,10.3852,746.9691
45,1.341899,10.3902,746.9741
46,1.314117,10.3902,746.9791
47,1.281160,10.3951,746.9840
48,1.254828,10.3951,746.9890
49,1.224845,10.4001,746.9940
50,1.200107,10.4001,746.9990
51,1.171326,10.4051,747.0040
52,1.147342,10.4051,747.0090
53,1.117035,10.4100,747.0140
54,1.091807,10.4100,747.0190
55,1.063989,10.4150,747.0240
56,1.040898,10.4150,747.0291
57,1.012715,10.4200,747.0341
58,0.989619,10.4200,747.0391
59,0.962782,10.4249,747.0440
60,0.941712,10.4249,747.0490
61,0.915651,10.4299,747.0540
62,0.892757,10.4299,747.0590
63,0.865681,10.4349,747.0640
64,0.842319,10.4349,747.0690
65,0.815614,10.4399,747.0740
66,0.792977,10.4398,747.0790
67,0.765307,10.4448,747.0840
68,0.742764,10.4448,747.0891
69,0.715684,10.4498,747.0941
70,0.693879,10.4498,747.0991
71,0.668099,10.4548,747.1041
72,0.646481,10.4548,747.1090
73,0.621370,10.4597,747.1140
74,0.600491,10.4597,747.1190
75,0.576834,10.4647,747.1240
76,0.557087,10.4647,747.1290
77,0.533145,10.4697,747.1340
78,0.512523,10.4697,747.1390
79,0.489857,10.4747,747.1440
80,0.469895,10.4747,747.1490
81,0.446556,10.4796,747.1541
82,0.425943,10.4796,747.1591
83,0.402694,10.4846,747.1641
84,0.382951,10.4846,747.1690
85,0.358681,10.4896,747.1740
86,0.336610,10.4896,747.1790
87,0.312411,10.4946,747.1840
88,0.291326,10.4945,747.1890
89,0.266846,10.4995,747.1940
90,0.247603,10.4995,747.1990
91,0.226346,10.5045,747.2040
92,0.209722,10.5045,747.2090
93,0.191368,10.5095,747.2141
94,0.173617,10.5095,747.2191
95,0.155216,10.5145,747.2241
96,0.139490,10.5145,747.2291
97,0.124054,10.5194,747.2340
98,0.109100,10.5194,747.2390
99,0.092967,10.5244,747.2440
100,0.077437,10.5244,747.2490
101,0.059294,10.5294,747.2540
102,0.041992,10.5294,747.2590
103,0.025336,10.5344,747.2640
104,0.010802,10.5344,747.2690
105,-0.005275,10.5394,747.2740
106,-0.020145,10.5394,747.2791
107,-0.036918,10.5444,747.2841
108,-0.052668,10.5443,747.2891
109,-0.069184,10.5493,747.2940
110,-0.083891,10.5493,747.2990
111,-0.098494,10.5543,747.3040
112,-0.113177,10.5543,747.3090
113,-0.128941,10.5593,747.3140
114,-0.144176,10.5593,747.3190
115,-0.158910,10.5643,747.3240
116,-0.172616,10.5643,747.3290
117,-0.187042,10.5693,747.3340
118,-0.201019,10.5693,747.3391
119,-0.215296,10.5742,747.3441
120,-0.229292,10.5742,747.3491
121,-0.243689,10.5792,747.3541
122,-0.257886,10.5792,747.3590
123,-0.271452,10.5842,747.3640
124,-0.284382,10.5842,747.3690
125,-0.297423,10.5892,747.3740
126,-0.310938,10.5892,747.3790
127,-0.324924,10.5942,747.3840
128,-0.338387,10.5942,747.3890
129,-0.351040,10.5992,747.3940
130,-0.364017,10.5992,747.3990
131,-0.375735,10.6042,747.4041
132,-0.387870,10.6041,747.4091
133,-0.400131,10.6091,747.4141
134,-0.413206,10.6091,747.4190
135,-0.426584,10.6141,747.4240
136,-0.439682,10.6141,747.4290
137,-0.452256,10.6191,747.4340
138,-0.464639,10.6191,747.4390
139,-0.475721,10.6241,747.4440
140,-0.487519,10.6241,747.4490
141,-0.499140,10.6291,747.4540
142,-0.512158,10.6291,747.4590
143,-0.523919,10.6341,747.4641
144,-0.536367,10.6341,747.4691
145,-0.547837,10.6391,747.4741
146,-0.559734,10.6390,747.4791
147,-0.570732,10.6440,747.4840
148,-0.581908,10.6440,747.4890
149,-0.591966,10.6490,747.4940
150,-0.602436,10.6490,747.4990
151,-0.611555,10.6540,747.5040
152,-0.621861,10.6540,747.5090
153,-0.631003,10.6590,747.5140
154,-0.641735,10.6590,747.5190
155,-0.650232,10.6640,747.5240
156,-0.660126,10.6640,747.5291
157,-0.668880,10.6690,747.5341
158,-0.679112,10.6690,747.5391
159,-0.688080,10.6740,747.5440
160,-0.699083,10.6740,747.5490
161,-0.709427,10.6790,747.5540
162,-0.720557,10.6790,747.5590
163,-0.729034,10.6839,747.5640
164,-0.739084,10.6839,747.5690
165,-0.747426,10.6889,747.5740
166,-0.757985,10.6889,747.5790
167,-0.766420,10.6939,747.5840
168,-0.776189,10.6939,747.5891
169,-0.783512,10.6989,747.5941
170,-0.793570,10.6989,747.5991
171,-0.802399,10.7039,747.6041
172,-0.812167,10.7039,747.6090
173,-0.821305,10.7089,747.6140
174,-0.831630,10.7089,747.6190
175,-0.838410,10.7139,747.6240
176,-0.847599,10.7139,747.6290
177,-0.854721,10.7189,747.6340
178,-0.864274,10.7189,747.6390
179,-0.871808,10.7239,747.6440
180,-0.881164,10.7239,747.6490
181,-0.889067,10.7289,747.6541
182,-0.898536,10.7288,747.6591
183,-0.905060,10.7338,747.6641
184,-0.913954,10.7338,747.6690
185,-0.921150,10.7388,747.6740
186,-0.930545,10.7388,747.6790
187,-0.936736,10.7438,747.6840
188,-0.945205,10.7438,747.6890
189,-0.952383,10.7488,747.6940
190,-0.961436,10.7488,747.6990
191,-0.967276,10.7538,747.7040
192,-0.975198,10.7538,747.7090
193,-0.980977,10.7588,747.7141
194,-0.989193,10.7588,747.7191
195,-0.994375,10.7638,747.7241
196,-1.001609,10.7638,747.7291
197,-1.006205,10.7682,747.7340
198,-1.013233,10.7682,747.7390
199,-1.016624,10.7738,747.7440
200,-1.022970,10.7738,747.7490
201,-1.026439,10.7781,747.7540
202,-1.033047,10.7781,747.7590
203,-1.036427,10.7838,747.7640
204,-1.042670,10.7838,747.7690
205,-1.045850,10.7881,747.7740
206,-1.052046,10.7881,747.7791
207,-1.054169,10.7938,747.7841
208,-1.059916,10.7938,747.7891
209,-1.063835,10.7987,747.7940
210,-1.070727,10.7987,747.7990
211,-1.073444,10.8037,747.8040
212,-1.079593,10.8037,747.8090
213,-1.083432,10.8081,747.8140
214,-1.090245,10.8081,747.8190
215,-1.094000,10.8137,747.8240
216,-1.100037,10.8137,747.8290
217,-1.103895,10.8181,747.8340
218,-1.110877,10.8181,747.8391
219,-1.115586,10.8231,747.8441
220,-1.122642,10.8231,747.8491
221,-1.127262,10.8281,747.8541
222,-1.133972,10.8281,747.8590
223,-1.138321,10.8337,747.8640
224,-1.145495,10.8337,747.8690
225,-1.150035,10.8387,747.8740
226,-1.157045,10.8387,747.8790
227,-1.160215,10.8437,747.8840
228,-1.165177,10.8437,747.8890
229,-1.166369,10.8487,747.8940
230,-1.171433,10.8487,747.8990
231,-1.172677,10.8537,747.9041
232,-1.177396,10.8537,747.9091
233,-1.178415,10.8581,747.9141
234,-1.183185,10.8581,747.9190
235,-1.184302,10.8631,747.9240
236,-1.189390,10.8630,747.9290
237,-1.191976,10.8680,747.9340
238,-1.197653,10.8680,747.9390
239,-1.200421,10.8737,747.9440
240,-1.205275,10.8737,747.9490
241,-1.207304,10.8780,747.9540
242,-1.212214,10.8780,747.9590
243,-1.213505,10.8830,747.9641
244,-1.218055,10.8830,747.9691
245,-1.219995,10.8887,747.9741
246,-1.225509,10.8887,747.9791
247,-1.228585,10.8937,747.9840
248,-1.234136,10.8936,747.9890
249,-1.239172,10.8980,747.9940
250,-1.246285,10.8980,747.9990
251,-1.250044,10.9030,748.0040
252,-1.255375,10.9030,748.0090
253,-1.257975,10.9080,748.0140
254,-1.263708,10.9080,748.0190
255,-1.267216,10.9130,748.0240
256,-1.272930,10.9130,748.0291
257,-1.276301,10.9180,748.0341
258,-1.282058,10.9180,748.0391
259,-1.281866,10.9230,748.0440
260,-1.282722,10.9230,748.0490
261,-1.279102,10.9280,748.0540
262,-1.279855,10.9280,748.0590
263,-1.275520,10.9330,748.0640
264,-1.276783,10.9330,748.0690
265,-1.275979,10.9386,748.0740
266,-1.279958,10.9386,748.0790
267,-1.279696,10.9430,748.0840
268,-1.283072,10.9430,748.0891
269,-1.284919,10.9480,748.0941
270,-1.290302,10.9480,748.0991
271,-1.291705,10.9530,748.1041
272,-1.294211,10.9530,748.1090
273,-1.293271,10.9580,748.1140
274,-1.297564,10.9580,748.1190
275,-1.299285,10.9630,748.1240
276,-1.304185,10.9630,748.1290
277,-1.307225,10.9680,748.1340
278,-1.312340,10.9680,748.1390
279,-1.314749,10.9730,748.1440
280,-1.318995,10.9730,748.1490
281,-1.321674,10.9780,748.1541
282,-1.327430,10.9780,748.1591
283,-1.331125,10.9830,748.1641
284,-1.336021,10.9830,748.1690
285,-1.339439,10.9880,748.1740
286,-1.344611,10.9880,748.1790
287,-1.347103,10.9930,748.1840
288,-1.350274,10.9930,748.1890
289,-1.351485,10.9980,748.1940
290,-1.355090,10.9980,748.1990
291,-1.355375,11.0030,748.2040
292,-1.358008,11.0029,748.2090
293,-1.358728,11.0079,748.2141
294,-1.362291,11.0079,748.2191
295,-1.364424,11.0129,748.2241
296,-1.367248,11.0129,748.2291
297,-1.368221,11.0179,748.2340
298,-1.371223,11.0179,748.2390
299,-1.369801,11.0229,748.2440
300,-1.371012,11.0229,748.2490
301,-1.371012,11.0279,748.2540
302,-1.373972,11.0279,748.2590
303,-1.375478,11.0329,748.2640
304,-1.378448,11.0329,748.2690
305,-1.380280,11.0379,748.2740
306,-1.384508,11.0379,748.2791
307,-1.387262,11.0429,748.2841
308,-1.391078,11.0429,748.2891
309,-1.394164,11.0479,748.2940
310,-1.398102,11.0479,748.2990
311,-1.399991,11.0529,748.3040
312,-1.403133,11.0529,748.3090
313,-1.405569,11.0579,748.3140
314,-1.409586,11.0579,748.3190
315,-1.411980,11.0629,748.3240
316,-1.415726,11.0629,748.3290
317,-1.418780,11.0679,748.3340
318,-1.422871,11.0679,748.3391
319,-1.425556,11.0729,748.3441
320,-1.429170,11.0729,748.3491
321,-1.432172,11.0779,748.3541
322,-1.436965,11.0779,748.3590
323,-1.438345,11.0829,748.3640
324,-1.439822,11.0829,748.3690
325,-1.439070,11.0879,748.3740
326,-1.441202,11.0879,748.3790
327,-1.442113,11.0929,748.3840
328,-1.444554,11.0929,748.3890
329,-1.446724,11.0979,748.3940
330,-1.450503,11.0979,748.3990
331,-1.451719,11.1029,748.4041
332,-1.454870,11.1029,748.4091
333,-1.457260,11.1079,748.4141
334,-1.461347,11.1079,748.4190
335,-1.461225,11.1129,748.4240
336,-1.460510,11.1129,748.4290
337,-1.457424,11.1179,748.4340
338,-1.458985,11.1179,748.4390
339,-1.458719,11.1229,748.4440
340,-1.461033,11.1229,748.4490
341,-1.462525,11.1279,748.4540
342,-1.466486,11.1279,748.4590
343,-1.468927,11.1329,748.4641
344,-1.471634,11.1329,748.4691
345,-1.473481,11.1379,748.4741
346,-1.474300,11.1379,748.4791
347,-1.469245,11.1429,748.4840
348,-1.468389,11.1429,748.4890
349,-1.467005,11.1479,748.4940
350,-1.467903,11.1479,748.4990
351,-1.465018,11.1529,748.5040
352,-1.463610,11.1529,748.5090
353,-1.461455,11.1579,748.5140
354,-1.463596,11.1579,748.5190
355,-1.464129,11.1629,748.5240
356,-1.466257,11.1629,748.5291
357,-1.467618,11.1679,748.5341
358,-1.470578,11.1679,748.5391
359,-1.472930,11.1729,748.5440
360,-1.474936,11.1729,748.5490
361,-1.477648,11.1779,748.5540
362,-1.481562,11.1779,748.5590
363,-1.484545,11.1829,748.5640
364,-1.487917,11.1829,748.5690
365,-1.491312,11.1879,748.5740
366,-1.495272,11.1879,748.5790
367,-1.497166,11.1929,748.5840
368,-1.498579,11.1929,748.5891
369,-1.500921,11.1979,748.5941
370,-1.504994,11.1979,748.5991
371,-1.508590,11.2029,748.6041
372,-1.511803,11.2029,748.6090
373,-1.514772,11.2079,748.6140
374,-1.516185,11.2079,748.6190
375,-1.512551,11.2129,748.6240
376,-1.510339,11.2129,748.6290
377,-1.509352,11.2179,748.6340
378,-1.511536,11.2179,748.6390
379,-1.512958,11.2229,748.6440
380,-1.514940,11.2229,748.6490
381,-1.517578,11.2279,748.6541
382,-1.521609,11.2279,748.6591
383,-1.525855,11.2328,748.6641
384,-1.528557,11.2328,748.6690
385,-1.530989,11.2378,748.6740
386,-1.534127,11.2378,748.6790
387,-1.536694,11.2428,748.6840
388,-1.539289,11.2428,748.6890
389,-1.542937,11.2478,748.6940
390,-1.546392,11.2478,748.6990
391,-1.549395,11.2528,748.7040
392,-1.550681,11.2528,748.7090
393,-1.549310,11.2578,748.7141
394,-1.547603,11.2578,748.7191
395,-1.541347,11.2628,748.7241
396,-1.536362,11.2628,748.7291
397,-1.530231,11.2678,748.7340
398,-1.529273,11.2678,748.7390
399,-1.528614,11.2728,748.7440
400,-1.528230,11.2728,748.7490
401,-1.529797,11.2778,748.7540
402,-1.532747,11.2778,748.7590
403,-1.536081,11.2828,748.7640
404,-1.538527,11.2828,748.7690
405,-1.541688,11.2878,748.7740
406,-1.544667,11.2878,748.7791
407,-1.547917,11.2928,748.7841
408,-1.548548,11.2928,748.7891
409,-1.549680,11.2978,748.7940
410,-1.551948,11.2978,748.7990
411,-1.554281,11.3028,748.8040
412,-1.555614,11.3028,748.8090
413,-1.554809,11.3078,748.8140
414,-1.551349,11.3078,748.8190
415,-1.536554,11.3128,748.8240
416,-1.523540,11.3129,748.8300
417,-1.515394,11.3179,748.8350
418,-1.511690,11.3179,748.8400
419,-1.502142,11.3229,748.8450
420,-1.483133,11.3229,748.8500
421,-1.469811,11.3279,748.8550
422,-1.461501,11.3279,748.8600
423,-1.456329,11.3329,748.8651
424,-1.454753,11.3329,748.8701
425,-1.452471,11.3379,748.8751
426,-1.453374,11.3379,748.8801
427,-1.448310,11.3429,748.8850
428,-1.443769,11.3429,748.8900
429,-1.439504,11.3479,748.8950
430,-1.434188,11.3479,748.9000
431,-1.428558,11.3529,748.9050
432,-1.424241,11.3529,748.9100
433,-1.419224,11.3579,748.9150
434,-1.415983,11.3579,748.9200
435,-1.412780,11.3629,748.9250
436,-1.412205,11.3629,748.9301
437,-1.410442,11.3679,748.9351
438,-1.412336,11.3679,748.9401
439,-1.412233,11.3729,748.9450
440,-1.414492,11.3729,748.9500
441,-1.414590,11.3779,748.9550
442,-1.418532,11.3779,748.9600
443,-1.418719,11.3829,748.9650
444,-1.421960,11.3829,748.9700
445,-1.422268,11.3879,748.9750
446,-1.426187,11.3879,748.9800
447,-1.424045,11.3929,748.9850
448,-1.418630,11.3929,748.9901
449,-1.413921,11.3979,748.9951
450,-1.413116,11.3979,749.0001
451,-1.412018,11.4029,749.0051
452,-1.413949,11.4029,749.0100
453,-1.413870,11.4079,749.0150
454,-1.416320,11.4079,749.0200
455,-1.414015,11.4129,749.0250
456,-1.409423,11.4129,749.0300
457,-1.405527,11.4179,749.0350
458,-1.402586,11.4179,749.0400
459,-1.396124,11.4229,749.0450
460,-1.386477,11.4229,749.0500
461,-1.377414,11.4279,749.0551
462,-1.370227,11.4279,749.0601
463,-1.365939,11.4329,749.0651
464,-1.363657,11.4329,749.0700
465,-1.362072,11.4379,749.0750
466,-1.365256,11.4379,749.0800
467,-1.365738,11.4429,749.0850
468,-1.368338,11.4429,749.0900
469,-1.367912,11.4479,749.0950
470,-1.370620,11.4479,749.1000
471,-1.371574,11.4529,749.1050
472,-1.374141,11.4529,749.1100
473,-1.374244,11.4579,749.1151
474,-1.374987,11.4579,749.1201
475,-1.370615,11.4629,749.1251
476,-1.365700,11.4629,749.1301
477,-1.361866,11.4679,749.1350
478,-1.362198,11.4679,749.1400
479,-1.362151,11.4729,749.1450
480,-1.362993,11.4729,749.1500
481,-1.362128,11.4779,749.1550
482,-1.364625,11.4779,749.1600
483,-1.365186,11.4829,749.1650
484,-1.367617,11.4829,749.1700
485,-1.368155,11.4879,749.1750
486,-1.371382,11.4879,749.1801
487,-1.370835,11.4929,749.1851
488,-1.366257,11.4929,749.1901
489,-1.361188,11.4979,749.1950
490,-1.358471,11.4979,749.2000
491,-1.356320,11.5030,749.2050
492,-1.356577,11.5029,749.2100
493,-1.356142,11.5080,749.2150
494,-1.358709,11.5079,749.2200
495,-1.359692,11.5129,749.2250
496,-1.360973,11.5129,749.2300
497,-1.360533,11.5179,749.2350
498,-1.363606,11.5179,749.2401
499,-1.364349,11.5229,749.2451
500,-1.366467,11.5229,749.2501
501,-1.367042,11.5279,749.2551
502,-1.370288,11.5279,749.2600
503,-1.370643,11.5329,749.2650
504,-1.370905,11.5329,749.2700
505,-1.370288,11.5379,749.2750
506,-1.371574,11.5379,749.2800
507,-1.370531,11.5429,749.2850
508,-1.363124,11.5429,749.2900
509,-1.351859,11.5480,749.2950
510,-1.334328,11.5480,749.3000
511,-1.322296,11.5530,749.3051
512,-1.309956,11.5530,749.3101
513,-1.304517,11.5580,749.3151
514,-1.302511,11.5580,749.3200
515,-1.301001,11.5630,749.3250
516,-1.301132,11.5630,749.3300
517,-1.300879,11.5680,749.3350
518,-1.297049,11.5680,749.3400
519,-1.291129,11.5730,749.3450
520,-1.282824,11.5730,749.3500
521,-1.279163,11.5780,749.3550
522,-1.278350,11.5780,749.3600
523,-1.277601,11.5830,749.3651
524,-1.279430,11.5830,749.3701
525,-1.279921,11.5880,749.3751
526,-1.280528,11.5880,749.3801
527,-1.275707,11.5930,749.3850
528,-1.264896,11.5930,749.3900
529,-1.259243,11.5980,749.3950
530,-1.255675,11.5980,749.4000
531,-1.253626,11.6030,749.4050
532,-1.246154,11.6030,749.4100
533,-1.238190,11.6080,749.4150
534,-1.223825,11.6080,749.4200
535,-1.213009,11.6130,749.4250
536,-1.199799,11.6130,749.4301
537,-1.194599,11.6180,749.4351
538,-1.191036,11.6180,749.4401
539,-1.185752,11.6231,749.4450
540,-1.176376,11.6231,749.4500
541,-1.171008,11.6281,749.4550
542,-1.167416,11.6281,749.4600
543,-1.166790,11.6331,749.4650
544,-1.165452,11.6331,749.4700
545,-1.165055,11.6381,749.4750
546,-1.165551,11.6381,749.4800
547,-1.166257,11.6431,749.4850
548,-1.168174,11.6431,749.4901
549,-1.169310,11.6481,749.4951
550,-1.171723,11.6481,749.5001
551,-1.172925,11.6531,749.5051
552,-1.172177,11.6531,749.5100
553,-1.172808,11.6581,749.5150
554,-1.174468,11.6581,749.5200
555,-1.175960,11.6631,749.5250
556,-1.177971,11.6631,749.5300
557,-1.178836,11.6681,749.5350
558,-1.180430,11.6681,749.5400
559,-1.181478,11.6731,749.5450
560,-1.181258,11.6731,749.5500
561,-1.182319,11.6781,749.5551
562,-1.184489,11.6781,749.5601
563,-1.185214,11.6831,749.5651
564,-1.185415,11.6831,749.5700
565,-1.185719,11.6881,749.5750
566,-1.186018,11.6881,749.5800
567,-1.186018,11.6931,749.5850
568,-1.177405,11.6931,749.5900
569,-1.171246,11.6981,749.5950
570,-1.163993,11.6981,749.6000
571,-1.161202,11.7031,749.6050
572,-1.158592,11.7031,749.6100
573,-1.157840,11.7081,749.6151
574,-1.157297,11.7081,749.6201
575,-1.158190,11.7131,749.6251
576,-1.155179,11.7131,749.6301
577,-1.150012,11.7181,749.6350
578,-1.139032,11.7181,749.6400
579,-1.134085,11.7231,749.6450
580,-1.128038,11.7231,749.6500
581,-1.126748,11.7281,749.6550
582,-1.125789,11.7281,749.6600
583,-1.122488,11.7331,749.6650
584,-1.111036,11.7331,749.6700
585,-1.104639,11.7381,749.6750
586,-1.091391,11.7381,749.6801
587,-1.083077,11.7431,749.6851
588,-1.072448,11.7431,749.6901
589,-1.069479,11.7481,749.6950
590,-1.066752,11.7481,749.7000
591,-1.067351,11.7531,749.7050
592,-1.066341,11.7531,749.7100
593,-1.068057,11.7581,749.7150
594,-1.069492,11.7581,749.7200
595,-1.069876,11.7631,749.7250
596,-1.068707,11.7631,749.7300
597,-1.069740,11.7681,749.7350
598,-1.070348,11.7681,749.7401
599,-1.071877,11.7731,749.7451
600,-1.070358,11.7731,749.7501
601,-1.071382,11.7781,749.7551
602,-1.071583,11.7781,749.7600
603,-1.069885,11.7831,749.7650
604,-1.060299,11.7831,749.7700
605,-1.055263,11.7881,749.7750
606,-1.047889,11.7881,749.7800
607,-1.041964,11.7931,749.7850
608,-1.026837,11.7931,749.7900
609,-1.020683,11.7981,749.7950
610,-1.013897,11.7982,749.8000
611,-1.012813,11.8032,749.8051
612,-1.010129,11.8032,749.8101
613,-1.010783,11.8082,749.8151
614,-1.011246,11.8082,749.8200
615,-1.013617,11.8132,749.8250
616,-1.012710,11.8132,749.8300
617,-1.013182,11.8182,749.8350
618,-1.009755,11.8182,749.8400
619,-1.004929,11.8232,749.8450
620,-0.994262,11.8232,749.8500
621,-0.990872,11.8282,749.8550
622,-0.985850,11.8282,749.8600
623,-0.984110,11.8332,749.8651
624,-0.970063,11.8332,749.8701
625,-0.957849,11.8382,749.8751
626,-0.937653,11.8382,749.8801
627,-0.926355,11.8432,749.8850
628,-0.904279,11.8432,749.8900
629,-0.894571,11.8482,749.8950
630,-0.883980,11.8482,749.9000
631,-0.881576,11.8532,749.9050
632,-0.872560,11.8532,749.9100
633,-0.865579,11.8576,749.9150
634,-0.845485,11.8576,749.9200
635,-0.832794,11.8633,749.9250
636,-0.815614,11.8633,749.9301
637,-0.810470,11.8683,749.9351
638,-0.805523,11.8683,749.9401
639,-0.805331,11.8733,749.9450
640,-0.795464,11.8733,749.9500
641,-0.788908,11.8783,749.9550
642,-0.777447,11.8783,749.9600
643,-0.774407,11.8833,749.9650
644,-0.768964,11.8833,749.9700
645,-0.769493,11.8883,749.9750
646,-0.769119,11.8883,749.9800
647,-0.771017,11.8933,749.9850
648,-0.768071,11.8933,749.9901
649,-0.769030,11.8977,749.9951
650,-0.767061,11.8977,750.0001
