Data stamp = , 29-03-2022 05:23:55 128

Calibration Values: 
Slope = , 26.54 , g/V 
Offset Voltage at no contact = , -0.501760 , V 

No , Time , Stage Position ,   Mass , Force 
   ,  (s) ,      (mm)      ,   (g)  , (mN)  

1 ,0.0000 ,0.69951 ,5.26430 ,51.65327 
2 ,0.2326 ,0.69960 ,5.28141 ,51.82116 
3 ,0.6652 ,0.70085 ,5.28141 ,51.82116 
4 ,0.8411 ,0.70276 ,5.25745 ,51.58611 
5 ,1.0174 ,0.70442 ,5.28141 ,51.82116 
6 ,1.1933 ,0.70614 ,5.28483 ,51.85474 
7 ,1.3853 ,0.70796 ,5.28141 ,51.82116 
8 ,1.5773 ,0.71002 ,5.25745 ,51.58611 
9 ,1.7697 ,0.71187 ,5.25061 ,51.51896 
10 ,1.9618 ,0.71387 ,5.22323 ,51.25033 
11 ,2.1537 ,0.71573 ,5.22323 ,51.25033 
12 ,2.3455 ,0.71758 ,5.21296 ,51.14960 
13 ,2.5381 ,0.71954 ,5.18901 ,50.91455 
14 ,2.7136 ,0.72139 ,5.16848 ,50.71308 
15 ,2.9059 ,0.72325 ,5.14110 ,50.44445 
16 ,3.0978 ,0.72521 ,5.13425 ,50.37729 
17 ,3.2743 ,0.72699 ,5.12741 ,50.31014 
18 ,3.4663 ,0.72885 ,5.08977 ,49.94078 
19 ,3.6424 ,0.73064 ,5.07608 ,49.80646 
20 ,3.8185 ,0.73242 ,5.07608 ,49.80646 
21 ,3.9946 ,0.73420 ,5.07608 ,49.80646 
22 ,4.1865 ,0.73607 ,5.03501 ,49.40352 
23 ,4.3787 ,0.73798 ,5.03159 ,49.36995 
24 ,4.5547 ,0.73980 ,5.02817 ,49.33637 
25 ,4.7303 ,0.74155 ,4.99394 ,49.00058 
26 ,4.9066 ,0.74327 ,4.97341 ,48.79911 
27 ,5.0827 ,0.74499 ,4.95972 ,48.66480 
28 ,5.2590 ,0.74691 ,4.96315 ,48.69838 
29 ,5.4347 ,0.74854 ,4.93919 ,48.46333 
30 ,5.6111 ,0.75035 ,4.93577 ,48.42975 
31 ,5.7872 ,0.75210 ,4.89812 ,48.06039 
32 ,5.9793 ,0.75392 ,4.88444 ,47.92608 
33 ,6.1711 ,0.75596 ,4.89128 ,47.99324 
34 ,6.3639 ,0.75778 ,4.86390 ,47.72461 
35 ,6.5391 ,0.75971 ,4.85364 ,47.62387 
36 ,6.7155 ,0.76140 ,4.84337 ,47.52314 
37 ,6.8915 ,0.76315 ,4.81599 ,47.25451 
38 ,7.0838 ,0.76503 ,4.78519 ,46.95231 
39 ,7.2755 ,0.76698 ,4.77493 ,46.85157 
40 ,7.4516 ,0.76874 ,4.76808 ,46.78442 
41 ,7.6277 ,0.77048 ,4.74755 ,46.58295 
42 ,7.8039 ,0.77226 ,4.72702 ,46.38148 
43 ,7.9797 ,0.77401 ,4.70990 ,46.21359 
44 ,8.1721 ,0.77581 ,4.71333 ,46.24716 
45 ,8.3642 ,0.77781 ,4.66884 ,45.81065 
46 ,8.5243 ,0.77954 ,4.66884 ,45.81065 
47 ,8.7004 ,0.78124 ,4.65857 ,45.70991 
48 ,8.8766 ,0.78297 ,4.63804 ,45.50844 
49 ,9.0524 ,0.78479 ,4.63119 ,45.44128 
50 ,9.2285 ,0.78647 ,4.60382 ,45.17266 
51 ,9.4047 ,0.78833 ,4.60382 ,45.17266 
52 ,9.5968 ,0.79004 ,4.57644 ,44.90403 
53 ,9.7886 ,0.79205 ,4.55933 ,44.73614 
54 ,9.9808 ,0.79389 ,4.53880 ,44.53467 
55 ,10.1730 ,0.79596 ,4.52853 ,44.43394 
56 ,10.3487 ,0.79781 ,4.50457 ,44.19889 
57 ,10.5251 ,0.79944 ,4.48062 ,43.96384 
58 ,10.7331 ,0.80150 ,4.46693 ,43.82953 
59 ,10.9253 ,0.80346 ,4.43955 ,43.56090 
60 ,11.1170 ,0.80536 ,4.44640 ,43.62806 
61 ,11.2930 ,0.80712 ,4.43271 ,43.49374 
62 ,11.4695 ,0.80884 ,4.39849 ,43.15796 
63 ,11.6614 ,0.81071 ,4.39507 ,43.12438 
64 ,11.8534 ,0.81263 ,4.38138 ,42.99007 
65 ,12.0297 ,0.81447 ,4.34716 ,42.65429 
66 ,12.2215 ,0.81641 ,4.34373 ,42.62071 
67 ,12.4137 ,0.81823 ,4.31978 ,42.38566 
68 ,12.6059 ,0.82024 ,4.30267 ,42.21777 
69 ,12.7980 ,0.82216 ,4.28213 ,42.01630 
70 ,12.9740 ,0.82390 ,4.27187 ,41.91556 
71 ,13.1662 ,0.82588 ,4.24449 ,41.64694 
72 ,13.3423 ,0.82763 ,4.22396 ,41.44547 
73 ,13.5343 ,0.82958 ,4.21711 ,41.37831 
74 ,13.7264 ,0.83148 ,4.20000 ,41.21042 
75 ,13.9024 ,0.83321 ,4.18289 ,41.04253 
76 ,14.0942 ,0.83514 ,4.17947 ,41.00895 
77 ,14.2705 ,0.83691 ,4.14183 ,40.63959 
78 ,14.4624 ,0.83875 ,4.13840 ,40.60601 
79 ,14.6387 ,0.84063 ,4.11445 ,40.37096 
80 ,14.8630 ,0.84277 ,4.10418 ,40.27023 
81 ,15.0547 ,0.84481 ,4.06654 ,39.90087 
82 ,15.2311 ,0.84649 ,4.04943 ,39.73297 
83 ,15.4069 ,0.84827 ,4.02889 ,39.53150 
84 ,15.5832 ,0.85002 ,4.02889 ,39.53150 
85 ,15.7750 ,0.85191 ,4.00494 ,39.29646 
86 ,15.9514 ,0.85369 ,3.99125 ,39.16214 
87 ,16.1271 ,0.85547 ,3.97756 ,39.02783 
88 ,16.3032 ,0.85722 ,3.95018 ,38.75920 
89 ,16.4792 ,0.85904 ,3.94676 ,38.72562 
90 ,16.6556 ,0.86073 ,3.94334 ,38.69205 
91 ,16.8316 ,0.86251 ,3.90570 ,38.32268 
92 ,17.0238 ,0.86436 ,3.89201 ,38.18837 
93 ,17.1995 ,0.86615 ,3.87832 ,38.05406 
94 ,17.3756 ,0.86796 ,3.86805 ,37.95332 
95 ,17.5517 ,0.86968 ,3.84410 ,37.71828 
96 ,17.7437 ,0.87155 ,3.83041 ,37.58396 
97 ,17.9198 ,0.87338 ,3.82356 ,37.51681 
98 ,18.0798 ,0.87507 ,3.79961 ,37.28176 
99 ,18.2561 ,0.87678 ,3.79619 ,37.24818 
100 ,18.4320 ,0.87848 ,3.76539 ,36.94597 
101 ,18.6081 ,0.88028 ,3.74143 ,36.71093 
102 ,18.7842 ,0.88200 ,3.71748 ,36.47588 
103 ,18.9602 ,0.88375 ,3.73117 ,36.61019 
104 ,19.1363 ,0.88554 ,3.69694 ,36.27441 
105 ,19.3124 ,0.88726 ,3.67299 ,36.03936 
106 ,19.4884 ,0.88904 ,3.64903 ,35.80431 
107 ,19.6650 ,0.89086 ,3.64219 ,35.73716 
108 ,19.8570 ,0.89277 ,3.63192 ,35.63642 
109 ,20.0491 ,0.89463 ,3.59770 ,35.30064 
110 ,20.2411 ,0.89657 ,3.60112 ,35.33422 
111 ,20.4331 ,0.89844 ,3.55663 ,34.89770 
112 ,20.6092 ,0.90030 ,3.56690 ,34.99843 
113 ,20.7853 ,0.90202 ,3.53610 ,34.69623 
114 ,20.9616 ,0.90376 ,3.54295 ,34.76338 
115 ,21.1375 ,0.90555 ,3.51557 ,34.49476 
116 ,21.3134 ,0.90727 ,3.48477 ,34.19255 
117 ,21.4896 ,0.90903 ,3.46424 ,33.99108 
118 ,21.6497 ,0.91077 ,3.45739 ,33.92393 
119 ,21.8258 ,0.91246 ,3.44028 ,33.75604 
120 ,22.0016 ,0.91416 ,3.43001 ,33.65530 
121 ,22.1779 ,0.91593 ,3.42317 ,33.58814 
122 ,22.3540 ,0.91772 ,3.40264 ,33.38667 
123 ,22.5300 ,0.91951 ,3.39237 ,33.28594 
124 ,22.7381 ,0.92139 ,3.36499 ,33.01731 
125 ,22.9143 ,0.92332 ,3.35473 ,32.91658 
126 ,23.0904 ,0.92507 ,3.32393 ,32.61437 
127 ,23.2665 ,0.92685 ,3.32051 ,32.58080 
128 ,23.4424 ,0.92855 ,3.31366 ,32.51364 
129 ,23.6343 ,0.93040 ,3.28628 ,32.24501 
130 ,23.8105 ,0.93227 ,3.25891 ,31.97639 
131 ,23.9866 ,0.93400 ,3.25206 ,31.90923 
132 ,24.1627 ,0.93574 ,3.23495 ,31.74134 
133 ,24.3388 ,0.93754 ,3.22811 ,31.67418 
134 ,24.4989 ,0.93923 ,3.19731 ,31.37198 
135 ,24.6750 ,0.94090 ,3.19388 ,31.33840 
136 ,24.8509 ,0.94270 ,3.17335 ,31.13693 
137 ,25.0431 ,0.94460 ,3.16651 ,31.06977 
138 ,25.2191 ,0.94633 ,3.14255 ,30.83472 
139 ,25.3792 ,0.94804 ,3.11518 ,30.56610 
140 ,25.5551 ,0.94969 ,3.10491 ,30.46536 
141 ,25.7474 ,0.95158 ,3.09464 ,30.36463 
142 ,25.9392 ,0.95347 ,3.09464 ,30.36463 
143 ,26.1155 ,0.95530 ,3.06384 ,30.06242 
144 ,26.3075 ,0.95716 ,3.04673 ,29.89453 
145 ,26.4836 ,0.95896 ,3.03989 ,29.82737 
146 ,26.6598 ,0.96075 ,3.01935 ,29.62590 
147 ,26.8518 ,0.96263 ,2.98855 ,29.32370 
148 ,27.0279 ,0.96441 ,2.98855 ,29.32370 
149 ,27.2039 ,0.96614 ,2.97144 ,29.15581 
150 ,27.3801 ,0.96795 ,2.96460 ,29.08865 
151 ,27.5723 ,0.96981 ,2.92696 ,28.71929 
152 ,27.7483 ,0.97164 ,2.91669 ,28.61856 
153 ,27.9403 ,0.97353 ,2.90300 ,28.48424 
154 ,28.1163 ,0.97525 ,2.87905 ,28.24919 
155 ,28.2924 ,0.97701 ,2.85167 ,27.98057 
156 ,28.4686 ,0.97882 ,2.84482 ,27.91341 
157 ,28.6445 ,0.98060 ,2.85167 ,27.98057 
158 ,28.8208 ,0.98235 ,2.83114 ,27.77910 
159 ,28.9967 ,0.98410 ,2.81060 ,27.57763 
160 ,29.1888 ,0.98602 ,2.78665 ,27.34258 
161 ,29.3648 ,0.98774 ,2.77638 ,27.24185 
162 ,29.5409 ,0.98951 ,2.77638 ,27.24185 
163 ,29.7331 ,0.99143 ,2.72847 ,26.77175 
164 ,29.9092 ,0.99327 ,2.72163 ,26.70459 
165 ,30.1012 ,0.99515 ,2.72505 ,26.73817 
166 ,30.2931 ,0.99706 ,2.69083 ,26.40239 
167 ,30.4693 ,0.99878 ,2.67029 ,26.20092 
168 ,30.6454 ,1.00055 ,2.66687 ,26.16734 
169 ,30.8215 ,1.00227 ,2.65318 ,26.03303 
170 ,30.9975 ,1.00411 ,2.64634 ,25.96587 
171 ,31.1735 ,1.00590 ,2.61896 ,25.69724 
172 ,31.3657 ,1.00775 ,2.61212 ,25.63009 
173 ,31.5258 ,1.00950 ,2.60527 ,25.56293 
174 ,31.7017 ,1.01114 ,2.58474 ,25.36146 
175 ,31.8940 ,1.01305 ,2.55394 ,25.05926 
176 ,32.0860 ,1.01498 ,2.54367 ,24.95852 
177 ,32.2622 ,1.01672 ,2.54025 ,24.92494 
178 ,32.4382 ,1.01847 ,2.52314 ,24.75705 
179 ,32.6142 ,1.02029 ,2.49576 ,24.48842 
180 ,32.7904 ,1.02198 ,2.48207 ,24.35411 
181 ,32.9824 ,1.02392 ,2.47181 ,24.25338 
182 ,33.1584 ,1.02574 ,2.44101 ,23.95117 
183 ,33.3344 ,1.02745 ,2.42390 ,23.78328 
184 ,33.5102 ,1.02919 ,2.41363 ,23.68255 
185 ,33.6867 ,1.03100 ,2.41363 ,23.68255 
186 ,33.8788 ,1.03290 ,2.39652 ,23.51465 
187 ,34.0547 ,1.03463 ,2.37941 ,23.34676 
188 ,34.2309 ,1.03642 ,2.36572 ,23.21245 
189 ,34.4388 ,1.03838 ,2.35545 ,23.11171 
190 ,34.6310 ,1.04040 ,2.31781 ,22.74235 
191 ,34.8071 ,1.04214 ,2.31097 ,22.67520 
192 ,34.9832 ,1.04392 ,2.31097 ,22.67520 
193 ,35.1590 ,1.04569 ,2.28359 ,22.40657 
194 ,35.3355 ,1.04746 ,2.26990 ,22.27226 
195 ,35.5274 ,1.04935 ,2.25963 ,22.17152 
196 ,35.7035 ,1.05112 ,2.24252 ,22.00363 
197 ,35.8798 ,1.05287 ,2.21515 ,21.73500 
198 ,36.0557 ,1.05464 ,2.20488 ,21.63427 
199 ,36.2318 ,1.05642 ,2.18092 ,21.39922 
200 ,36.4077 ,1.05811 ,2.19119 ,21.49996 
201 ,36.5839 ,1.05992 ,2.17066 ,21.29849 
202 ,36.7598 ,1.06171 ,2.15355 ,21.13059 
203 ,36.9360 ,1.06343 ,2.12617 ,20.86197 
204 ,37.1121 ,1.06517 ,2.11248 ,20.72766 
205 ,37.2882 ,1.06696 ,2.10906 ,20.69408 
206 ,37.4801 ,1.06890 ,2.09879 ,20.59334 
207 ,37.6563 ,1.07068 ,2.07484 ,20.35829 
208 ,37.8325 ,1.07240 ,2.05773 ,20.19040 
209 ,38.0086 ,1.07418 ,2.04061 ,20.02251 
210 ,38.2005 ,1.07607 ,2.03377 ,19.95535 
211 ,38.3768 ,1.07788 ,2.02350 ,19.85462 
212 ,38.5848 ,1.07983 ,2.00639 ,19.68673 
213 ,38.7769 ,1.08187 ,1.98586 ,19.48526 
214 ,38.9529 ,1.08368 ,1.96875 ,19.31737 
215 ,39.1450 ,1.08554 ,1.95506 ,19.18305 
216 ,39.3208 ,1.08726 ,1.94137 ,19.04874 
217 ,39.4968 ,1.08906 ,1.91742 ,18.81369 
218 ,39.6731 ,1.09078 ,1.89688 ,18.61222 
219 ,39.8490 ,1.09257 ,1.91057 ,18.74654 
220 ,40.0254 ,1.09429 ,1.89688 ,18.61222 
221 ,40.2174 ,1.09618 ,1.85582 ,18.20928 
222 ,40.3775 ,1.09796 ,1.84897 ,18.14213 
223 ,40.5534 ,1.09955 ,1.83528 ,18.00781 
224 ,40.7296 ,1.10139 ,1.83871 ,18.04139 
225 ,40.9057 ,1.10318 ,1.82844 ,17.94066 
226 ,41.0818 ,1.10489 ,1.81133 ,17.77276 
227 ,41.2739 ,1.10684 ,1.77369 ,17.40340 
228 ,41.4499 ,1.10860 ,1.77711 ,17.43698 
229 ,41.6420 ,1.11054 ,1.77369 ,17.40340 
230 ,41.8340 ,1.11247 ,1.75657 ,17.23551 
231 ,42.0101 ,1.11414 ,1.72920 ,16.96689 
232 ,42.1858 ,1.11592 ,1.72235 ,16.89973 
233 ,42.3619 ,1.11768 ,1.71209 ,16.79899 
234 ,42.5221 ,1.11940 ,1.68471 ,16.53037 
235 ,42.6984 ,1.12104 ,1.68129 ,16.49679 
236 ,42.8745 ,1.12283 ,1.66075 ,16.29532 
237 ,43.0666 ,1.12472 ,1.66418 ,16.32890 
238 ,43.2427 ,1.12650 ,1.64022 ,16.09385 
239 ,43.4504 ,1.12851 ,1.62311 ,15.92596 
240 ,43.6429 ,1.13047 ,1.60942 ,15.79164 
241 ,43.8350 ,1.13240 ,1.58204 ,15.52302 
242 ,44.0110 ,1.13421 ,1.57862 ,15.48944 
243 ,44.1871 ,1.13598 ,1.56836 ,15.38871 
244 ,44.3790 ,1.13783 ,1.55467 ,15.25439 
245 ,44.5714 ,1.13977 ,1.53071 ,15.01934 
246 ,44.7635 ,1.14173 ,1.52387 ,14.95219 
247 ,44.9714 ,1.14366 ,1.49649 ,14.68356 
248 ,45.1475 ,1.14552 ,1.49649 ,14.68356 
249 ,45.3396 ,1.14748 ,1.48622 ,14.58283 
250 ,45.5152 ,1.14924 ,1.45885 ,14.31420 
251 ,45.6917 ,1.15102 ,1.44516 ,14.17989 
252 ,45.8838 ,1.15293 ,1.43831 ,14.11273 
253 ,46.0599 ,1.15466 ,1.42120 ,13.94484 
254 ,46.2358 ,1.15644 ,1.41094 ,13.84410 
255 ,46.4118 ,1.15816 ,1.39383 ,13.67621 
256 ,46.5878 ,1.15995 ,1.39040 ,13.64263 
257 ,46.7800 ,1.16180 ,1.36645 ,13.40759 
258 ,46.9563 ,1.16360 ,1.34591 ,13.20612 
259 ,47.1323 ,1.16539 ,1.31854 ,12.93749 
260 ,47.3084 ,1.16712 ,1.33565 ,13.10538 
261 ,47.4843 ,1.16887 ,1.34249 ,13.17254 
262 ,47.6602 ,1.17067 ,1.31169 ,12.87033 
263 ,47.8367 ,1.17247 ,1.29116 ,12.66886 
264 ,48.0287 ,1.17437 ,1.29116 ,12.66886 
265 ,48.2046 ,1.17610 ,1.28089 ,12.56813 
266 ,48.3804 ,1.17785 ,1.25352 ,12.29950 
267 ,48.5568 ,1.17963 ,1.22956 ,12.06445 
268 ,48.7326 ,1.18133 ,1.22272 ,11.99730 
269 ,48.9090 ,1.18313 ,1.21929 ,11.96372 
270 ,49.0850 ,1.18486 ,1.21587 ,11.93014 
271 ,49.2611 ,1.18665 ,1.19192 ,11.69509 
272 ,49.4532 ,1.18851 ,1.17138 ,11.49362 
273 ,49.6615 ,1.19059 ,1.16796 ,11.46004 
274 ,49.8373 ,1.19243 ,1.14058 ,11.19142 
275 ,50.0294 ,1.19431 ,1.14058 ,11.19142 
276 ,50.2055 ,1.19613 ,1.12347 ,11.02353 
277 ,50.3815 ,1.19783 ,1.10979 ,10.88921 
278 ,50.5737 ,1.19970 ,1.08925 ,10.68774 
279 ,50.7659 ,1.20164 ,1.06872 ,10.48627 
280 ,50.9418 ,1.20345 ,1.07899 ,10.58701 
281 ,51.1340 ,1.20536 ,1.05503 ,10.35196 
282 ,51.3101 ,1.20715 ,1.04476 ,10.25123 
283 ,51.4862 ,1.20891 ,1.04134 ,10.21765 
284 ,51.6781 ,1.21084 ,1.00712 ,9.88186 
285 ,51.8540 ,1.21256 ,0.99343 ,9.74755 
286 ,52.0303 ,1.21438 ,0.98317 ,9.64682 
287 ,52.2063 ,1.21613 ,0.97974 ,9.61324 
288 ,52.3985 ,1.21798 ,0.95579 ,9.37819 
289 ,52.5904 ,1.21992 ,0.95921 ,9.41177 
290 ,52.7668 ,1.22172 ,0.93525 ,9.17672 
291 ,52.9422 ,1.22347 ,0.93183 ,9.14314 
292 ,53.1188 ,1.22519 ,0.89761 ,8.80736 
293 ,53.2948 ,1.22694 ,0.88392 ,8.67305 
294 ,53.4713 ,1.22872 ,0.89419 ,8.77378 
295 ,53.6630 ,1.23069 ,0.88050 ,8.63947 
296 ,53.8389 ,1.23239 ,0.86339 ,8.47158 
297 ,54.0152 ,1.23419 ,0.83259 ,8.16937 
298 ,54.2072 ,1.23608 ,0.84286 ,8.27011 
299 ,54.3834 ,1.23787 ,0.83259 ,8.16937 
300 ,54.5594 ,1.23967 ,0.80179 ,7.86717 
301 ,54.7354 ,1.24136 ,0.78810 ,7.73285 
302 ,54.9115 ,1.24311 ,0.79495 ,7.80001 
303 ,55.0876 ,1.24490 ,0.78126 ,7.66570 
304 ,55.2794 ,1.24679 ,0.75730 ,7.43065 
305 ,55.4557 ,1.24857 ,0.74019 ,7.26276 
306 ,55.6478 ,1.25050 ,0.75046 ,7.36349 
307 ,55.8399 ,1.25243 ,0.72308 ,7.09486 
308 ,56.0317 ,1.25433 ,0.71281 ,6.99413 
309 ,56.2081 ,1.25612 ,0.71281 ,6.99413 
310 ,56.4001 ,1.25805 ,0.68544 ,6.72550 
311 ,56.5922 ,1.25990 ,0.67859 ,6.65835 
312 ,56.7841 ,1.26184 ,0.67517 ,6.62477 
313 ,56.9763 ,1.26372 ,0.64095 ,6.28899 
314 ,57.1525 ,1.26554 ,0.64437 ,6.32256 
315 ,57.3286 ,1.26733 ,0.64437 ,6.32256 
316 ,57.4886 ,1.26902 ,0.62042 ,6.08752 
317 ,57.6648 ,1.27071 ,0.61015 ,5.98678 
318 ,57.8568 ,1.27253 ,0.58277 ,5.71815 
319 ,58.0328 ,1.27438 ,0.57251 ,5.61742 
320 ,58.2248 ,1.27621 ,0.56224 ,5.51668 
321 ,58.4169 ,1.27815 ,0.54855 ,5.38237 
322 ,58.5930 ,1.27992 ,0.53828 ,5.28164 
323 ,58.7690 ,1.28172 ,0.54513 ,5.34879 
324 ,58.9612 ,1.28361 ,0.50064 ,4.91228 
325 ,59.1371 ,1.28543 ,0.49722 ,4.87870 
326 ,59.3134 ,1.28717 ,0.47326 ,4.64365 
327 ,59.5053 ,1.28905 ,0.48011 ,4.71081 
328 ,59.6815 ,1.29084 ,0.47326 ,4.64365 
329 ,59.8737 ,1.29272 ,0.45273 ,4.44218 
330 ,60.0497 ,1.29453 ,0.43904 ,4.30787 
331 ,60.2413 ,1.29634 ,0.43904 ,4.30787 
332 ,60.4178 ,1.29817 ,0.41166 ,4.03924 
333 ,60.5778 ,1.29986 ,0.41509 ,4.07282 
334 ,60.7540 ,1.30154 ,0.39455 ,3.87135 
335 ,60.9301 ,1.30330 ,0.39113 ,3.83777 
336 ,61.1062 ,1.30511 ,0.38771 ,3.80419 
337 ,61.2818 ,1.30686 ,0.35349 ,3.46841 
338 ,61.4581 ,1.30861 ,0.33980 ,3.33410 
339 ,61.6341 ,1.31031 ,0.34664 ,3.40125 
340 ,61.8104 ,1.31214 ,0.31926 ,3.13263 
341 ,61.9864 ,1.31387 ,0.32269 ,3.16620 
342 ,62.1625 ,1.31563 ,0.30558 ,2.99831 
343 ,62.3383 ,1.31735 ,0.27820 ,2.72969 
344 ,62.5147 ,1.31915 ,0.28162 ,2.76326 
345 ,62.7067 ,1.32107 ,0.27820 ,2.72969 
346 ,62.8987 ,1.32289 ,0.26793 ,2.62895 
347 ,63.0750 ,1.32473 ,0.26451 ,2.59537 
348 ,63.2510 ,1.32654 ,0.24740 ,2.42748 
349 ,63.4271 ,1.32824 ,0.23371 ,2.29317 
350 ,63.6192 ,1.33018 ,0.20633 ,2.02454 
351 ,63.7951 ,1.33196 ,0.19264 ,1.89023 
352 ,63.9717 ,1.33366 ,0.19264 ,1.89023 
353 ,64.1472 ,1.33547 ,0.18238 ,1.78949 
354 ,64.3234 ,1.33719 ,0.16527 ,1.62160 
355 ,64.4995 ,1.33898 ,0.14131 ,1.38655 
356 ,64.7072 ,1.34107 ,0.12420 ,1.21866 
357 ,64.8672 ,1.34276 ,0.12762 ,1.25224 
358 ,65.0436 ,1.34444 ,0.11051 ,1.08435 
359 ,65.2198 ,1.34617 ,0.09682 ,0.95004 
360 ,65.3959 ,1.34795 ,0.09340 ,0.91646 
361 ,65.5719 ,1.34968 ,0.07629 ,0.74857 
362 ,65.7480 ,1.35148 ,0.07629 ,0.74857 
363 ,65.9241 ,1.35322 ,0.05918 ,0.58067 
364 ,66.1162 ,1.35509 ,0.04549 ,0.44636 
365 ,66.3082 ,1.35706 ,0.03865 ,0.37920 
366 ,66.4841 ,1.35878 ,0.02496 ,0.24489 
367 ,66.6762 ,1.36072 ,0.00100 ,0.00984 
368 ,66.8684 ,1.36261 ,0.00443 ,0.04342 
369 ,67.0445 ,1.36440 ,-0.01269 ,-0.12447 
370 ,67.2205 ,1.36621 ,-0.04348 ,-0.42667 
371 ,67.4127 ,1.36806 ,-0.04006 ,-0.39310 
372 ,67.5888 ,1.36985 ,-0.05375 ,-0.52741 
373 ,67.7650 ,1.37165 ,-0.06402 ,-0.62814 
374 ,67.9409 ,1.37341 ,-0.07771 ,-0.76246 
375 ,68.1169 ,1.37516 ,-0.10166 ,-0.99751 
376 ,68.2931 ,1.37692 ,-0.09824 ,-0.96393 
377 ,68.4852 ,1.37873 ,-0.10851 ,-1.06466 
378 ,68.6614 ,1.38061 ,-0.13931 ,-1.36687 
379 ,68.8532 ,1.38248 ,-0.14273 ,-1.40045 
380 ,69.0454 ,1.38431 ,-0.13931 ,-1.36687 
381 ,69.2534 ,1.38641 ,-0.15642 ,-1.53476 
382 ,69.4295 ,1.38823 ,-0.18037 ,-1.76981 
383 ,69.6056 ,1.39000 ,-0.18379 ,-1.80338 
384 ,69.7816 ,1.39178 ,-0.20433 ,-2.00485 
385 ,69.9737 ,1.39366 ,-0.21117 ,-2.07201 
386 ,70.1498 ,1.39543 ,-0.21459 ,-2.10559 
387 ,70.3258 ,1.39717 ,-0.22486 ,-2.20632 
388 ,70.5020 ,1.39898 ,-0.24197 ,-2.37422 
389 ,70.6617 ,1.40068 ,-0.26250 ,-2.57569 
390 ,70.8380 ,1.40234 ,-0.27277 ,-2.67642 
391 ,71.0141 ,1.40408 ,-0.28988 ,-2.84431 
392 ,71.2062 ,1.40599 ,-0.27619 ,-2.71000 
393 ,71.3823 ,1.40778 ,-0.29330 ,-2.87789 
394 ,71.5743 ,1.40968 ,-0.31726 ,-3.11294 
395 ,71.7500 ,1.41145 ,-0.31384 ,-3.07936 
396 ,71.9263 ,1.41319 ,-0.32752 ,-3.21367 
397 ,72.1026 ,1.41498 ,-0.35490 ,-3.48230 
398 ,72.2784 ,1.41674 ,-0.35832 ,-3.51588 
399 ,72.4546 ,1.41848 ,-0.37544 ,-3.68377 
400 ,72.6305 ,1.42029 ,-0.38228 ,-3.75093 
401 ,72.8229 ,1.42220 ,-0.38912 ,-3.81808 
402 ,72.9989 ,1.42390 ,-0.40623 ,-3.98597 
403 ,73.1750 ,1.42571 ,-0.41992 ,-4.12029 
404 ,73.3511 ,1.42749 ,-0.41650 ,-4.08671 
405 ,73.5432 ,1.42932 ,-0.44730 ,-4.38891 
406 ,73.7352 ,1.43129 ,-0.46441 ,-4.55681 
407 ,73.8950 ,1.43301 ,-0.45414 ,-4.45607 
408 ,74.0873 ,1.43476 ,-0.45072 ,-4.42249 
409 ,74.2633 ,1.43660 ,-0.47468 ,-4.65754 
410 ,74.4395 ,1.43835 ,-0.49521 ,-4.85901 
411 ,74.6150 ,1.44011 ,-0.51574 ,-5.06048 
412 ,74.7751 ,1.44183 ,-0.51574 ,-5.06048 
413 ,74.9512 ,1.44343 ,-0.52259 ,-5.12764 
414 ,75.1438 ,1.44525 ,-0.52601 ,-5.16121 
415 ,75.3676 ,1.44762 ,-0.53970 ,-5.29553 
416 ,75.5439 ,1.44936 ,-0.55681 ,-5.46342 
417 ,75.7359 ,1.45132 ,-0.59445 ,-5.83278 
418 ,75.9118 ,1.45304 ,-0.58077 ,-5.69847 
419 ,76.0882 ,1.45482 ,-0.58077 ,-5.69847 
420 ,76.2802 ,1.45670 ,-0.59445 ,-5.83278 
421 ,76.4564 ,1.45846 ,-0.61841 ,-6.06783 
422 ,76.6484 ,1.46040 ,-0.62183 ,-6.10141 
423 ,76.8244 ,1.46213 ,-0.61841 ,-6.06783 
424 ,77.0002 ,1.46395 ,-0.64236 ,-6.30288 
425 ,77.1762 ,1.46566 ,-0.66290 ,-6.50435 
426 ,77.3524 ,1.46744 ,-0.66632 ,-6.53793 
427 ,77.5282 ,1.46922 ,-0.67316 ,-6.60508 
428 ,77.6885 ,1.47097 ,-0.66632 ,-6.53793 
429 ,77.8647 ,1.47264 ,-0.68343 ,-6.70582 
430 ,78.0727 ,1.47459 ,-0.71423 ,-7.00802 
431 ,78.2649 ,1.47652 ,-0.69712 ,-6.84013 
432 ,78.4571 ,1.47840 ,-0.71423 ,-7.00802 
433 ,78.6331 ,1.48024 ,-0.73818 ,-7.24307 
434 ,78.8409 ,1.48220 ,-0.74161 ,-7.27665 
435 ,79.0174 ,1.48410 ,-0.75187 ,-7.37738 
436 ,79.2093 ,1.48602 ,-0.75872 ,-7.44454 
437 ,79.3854 ,1.48780 ,-0.76898 ,-7.54527 
438 ,79.5615 ,1.48953 ,-0.79294 ,-7.78032 
439 ,79.7376 ,1.49136 ,-0.78267 ,-7.67959 
440 ,79.9137 ,1.49311 ,-0.81347 ,-7.98179 
441 ,80.1055 ,1.49494 ,-0.80663 ,-7.91464 
442 ,80.2819 ,1.49675 ,-0.81689 ,-8.01537 
443 ,80.4738 ,1.49864 ,-0.83058 ,-8.14968 
444 ,80.6500 ,1.50041 ,-0.83743 ,-8.21684 
445 ,80.8261 ,1.50216 ,-0.84769 ,-8.31758 
446 ,81.0019 ,1.50395 ,-0.85112 ,-8.35115 
447 ,81.1777 ,1.50583 ,-0.87849 ,-8.61978 
448 ,81.3543 ,1.50743 ,-0.89903 ,-8.82125 
449 ,81.5459 ,1.50937 ,-0.89560 ,-8.78767 
450 ,81.7224 ,1.51114 ,-0.89560 ,-8.78767 
451 ,81.8983 ,1.51291 ,-0.91272 ,-8.95556 
452 ,82.0747 ,1.51469 ,-0.92983 ,-9.12345 
453 ,82.2506 ,1.51647 ,-0.94351 ,-9.25777 
454 ,82.4105 ,1.51812 ,-0.93325 ,-9.15703 
455 ,82.5864 ,1.51979 ,-0.94351 ,-9.25777 
456 ,82.7789 ,1.52169 ,-0.96747 ,-9.49282 
457 ,82.9715 ,1.52360 ,-0.97431 ,-9.55997 
458 ,83.1470 ,1.52541 ,-0.97089 ,-9.52639 
459 ,83.3230 ,1.52714 ,-0.97774 ,-9.59355 
460 ,83.4992 ,1.52887 ,-1.00854 ,-9.89576 
461 ,83.6752 ,1.53068 ,-1.00854 ,-9.89576 
462 ,83.8511 ,1.53240 ,-1.02907 ,-10.09723 
463 ,84.0434 ,1.53438 ,-1.02907 ,-10.09723 
