Data stamp = , 28-03-2022 20:05:45 358

Calibration Values: 
Slope = , 26.54 , g/V 
Offset Voltage at no contact = , -0.501760 , V 

No , Time , Stage Position ,   Mass , Force 
   ,  (s) ,      (mm)      ,   (g)  , (mN)  

1 ,0.0000 ,0.69942 ,5.17532 ,50.78023 
2 ,0.2182 ,0.69951 ,5.17532 ,50.78023 
3 ,0.6506 ,0.70069 ,5.18559 ,50.88097 
4 ,0.8266 ,0.70261 ,5.16848 ,50.71308 
5 ,1.0187 ,0.70436 ,5.17874 ,50.81381 
6 ,1.2268 ,0.70632 ,5.15821 ,50.61234 
7 ,1.4028 ,0.70827 ,5.19585 ,50.98170 
8 ,1.5791 ,0.70998 ,5.19243 ,50.94813 
9 ,1.7717 ,0.71187 ,5.15479 ,50.57876 
10 ,1.9467 ,0.71362 ,5.15136 ,50.54519 
11 ,2.1230 ,0.71544 ,5.13425 ,50.37729 
12 ,2.3152 ,0.71732 ,5.13768 ,50.41087 
13 ,2.4911 ,0.71909 ,5.10688 ,50.10867 
14 ,2.6672 ,0.72085 ,5.10003 ,50.04151 
15 ,2.8435 ,0.72263 ,5.09661 ,50.00793 
16 ,3.0193 ,0.72435 ,5.09661 ,50.00793 
17 ,3.1955 ,0.72614 ,5.08977 ,49.94078 
18 ,3.3718 ,0.72789 ,5.06581 ,49.70573 
19 ,3.5637 ,0.72980 ,5.05554 ,49.60499 
20 ,3.7396 ,0.73153 ,5.06581 ,49.70573 
21 ,3.9319 ,0.73341 ,5.03159 ,49.36995 
22 ,4.1079 ,0.73523 ,5.02817 ,49.33637 
23 ,4.2838 ,0.73700 ,5.01790 ,49.23563 
24 ,4.4600 ,0.73875 ,5.01448 ,49.20205 
25 ,4.6522 ,0.74073 ,4.99052 ,48.96701 
26 ,4.8279 ,0.74252 ,4.98710 ,48.93343 
27 ,5.0043 ,0.74423 ,4.96657 ,48.73196 
28 ,5.1962 ,0.74615 ,4.97683 ,48.83269 
29 ,5.3884 ,0.74799 ,4.95288 ,48.59764 
30 ,5.5644 ,0.74984 ,4.94261 ,48.49691 
31 ,5.7566 ,0.75162 ,4.93235 ,48.39618 
32 ,5.9647 ,0.75370 ,4.92208 ,48.29544 
33 ,6.1567 ,0.75576 ,4.89470 ,48.02681 
34 ,6.3327 ,0.75746 ,4.86732 ,47.75819 
35 ,6.5247 ,0.75934 ,4.85706 ,47.65745 
36 ,6.7009 ,0.76118 ,4.85021 ,47.59030 
37 ,6.8769 ,0.76293 ,4.85021 ,47.59030 
38 ,7.0531 ,0.76469 ,4.81941 ,47.28809 
39 ,7.2448 ,0.76660 ,4.80915 ,47.18736 
40 ,7.4372 ,0.76850 ,4.79888 ,47.08662 
41 ,7.6134 ,0.77029 ,4.78177 ,46.91873 
42 ,7.8055 ,0.77218 ,4.74755 ,46.58295 
43 ,7.9814 ,0.77396 ,4.75097 ,46.61653 
44 ,8.1572 ,0.77571 ,4.72702 ,46.38148 
45 ,8.3336 ,0.77747 ,4.71675 ,46.28074 
46 ,8.5097 ,0.77930 ,4.70306 ,46.14643 
47 ,8.6856 ,0.78099 ,4.68253 ,45.94496 
48 ,8.8619 ,0.78278 ,4.66542 ,45.77707 
49 ,9.0378 ,0.78451 ,4.65515 ,45.67633 
50 ,9.2138 ,0.78629 ,4.64488 ,45.57560 
51 ,9.4060 ,0.78814 ,4.60724 ,45.20624 
52 ,9.5981 ,0.79008 ,4.62093 ,45.34055 
53 ,9.7743 ,0.79188 ,4.59013 ,45.03835 
54 ,9.9501 ,0.79364 ,4.56960 ,44.83688 
55 ,10.1264 ,0.79540 ,4.55249 ,44.66898 
56 ,10.3182 ,0.79727 ,4.53880 ,44.53467 
57 ,10.4945 ,0.79911 ,4.53195 ,44.46751 
58 ,10.6866 ,0.80100 ,4.50115 ,44.16531 
59 ,10.8627 ,0.80279 ,4.49431 ,44.09815 
60 ,11.0547 ,0.80459 ,4.49431 ,44.09815 
61 ,11.2468 ,0.80660 ,4.44640 ,43.62806 
62 ,11.4548 ,0.80856 ,4.46009 ,43.76237 
63 ,11.6469 ,0.81061 ,4.42244 ,43.39301 
64 ,11.8389 ,0.81251 ,4.41902 ,43.35943 
65 ,12.0150 ,0.81428 ,4.40875 ,43.25870 
66 ,12.2071 ,0.81617 ,4.37111 ,42.88933 
67 ,12.3668 ,0.81788 ,4.38138 ,42.99007 
68 ,12.5431 ,0.81955 ,4.35742 ,42.75502 
69 ,12.7191 ,0.82129 ,4.34716 ,42.65429 
70 ,12.8952 ,0.82305 ,4.33004 ,42.48639 
71 ,13.0716 ,0.82489 ,4.30609 ,42.25135 
72 ,13.2473 ,0.82661 ,4.27871 ,41.98272 
73 ,13.4232 ,0.82839 ,4.27529 ,41.94914 
74 ,13.5995 ,0.83009 ,4.26160 ,41.81483 
75 ,13.7756 ,0.83187 ,4.24791 ,41.68051 
76 ,13.9517 ,0.83365 ,4.23765 ,41.57978 
77 ,14.1277 ,0.83543 ,4.20342 ,41.24400 
78 ,14.3036 ,0.83721 ,4.18631 ,41.07611 
79 ,14.4798 ,0.83890 ,4.19658 ,41.17684 
80 ,14.6556 ,0.84063 ,4.18631 ,41.07611 
81 ,14.8319 ,0.84248 ,4.15551 ,40.77390 
82 ,15.0403 ,0.84441 ,4.13840 ,40.60601 
83 ,15.2162 ,0.84629 ,4.13156 ,40.53885 
84 ,15.4084 ,0.84815 ,4.10076 ,40.23665 
85 ,15.5844 ,0.84997 ,4.08023 ,40.03518 
86 ,15.7605 ,0.85174 ,4.08023 ,40.03518 
87 ,15.9366 ,0.85349 ,4.06996 ,39.93444 
88 ,16.1126 ,0.85525 ,4.04258 ,39.66582 
89 ,16.2882 ,0.85694 ,4.01520 ,39.39719 
90 ,16.4647 ,0.85875 ,4.00836 ,39.33003 
91 ,16.6407 ,0.86050 ,3.99467 ,39.19572 
92 ,16.8168 ,0.86226 ,3.99125 ,39.16214 
93 ,16.9930 ,0.86407 ,3.96387 ,38.89352 
94 ,17.1689 ,0.86574 ,3.92965 ,38.55773 
95 ,17.3611 ,0.86773 ,3.92281 ,38.49058 
96 ,17.5530 ,0.86958 ,3.89885 ,38.25553 
97 ,17.7132 ,0.87136 ,3.88858 ,38.15479 
98 ,17.8894 ,0.87302 ,3.87490 ,38.02048 
99 ,18.0655 ,0.87477 ,3.86463 ,37.91975 
100 ,18.2415 ,0.87656 ,3.85436 ,37.81901 
101 ,18.4175 ,0.87826 ,3.84410 ,37.71828 
102 ,18.6256 ,0.88023 ,3.80303 ,37.31534 
103 ,18.8177 ,0.88229 ,3.80303 ,37.31534 
104 ,19.0418 ,0.88440 ,3.76539 ,36.94597 
105 ,19.2178 ,0.88630 ,3.77223 ,37.01313 
106 ,19.4098 ,0.88813 ,3.73801 ,36.67735 
107 ,19.5860 ,0.88998 ,3.72090 ,36.50946 
108 ,19.7780 ,0.89188 ,3.72090 ,36.50946 
109 ,19.9541 ,0.89364 ,3.69694 ,36.27441 
110 ,20.1301 ,0.89542 ,3.67983 ,36.10652 
111 ,20.3219 ,0.89736 ,3.66272 ,35.93863 
112 ,20.4983 ,0.89911 ,3.64561 ,35.77073 
113 ,20.6746 ,0.90086 ,3.64219 ,35.73716 
114 ,20.8505 ,0.90258 ,3.61481 ,35.46853 
115 ,21.0424 ,0.90449 ,3.60112 ,35.33422 
116 ,21.2187 ,0.90628 ,3.59770 ,35.30064 
117 ,21.3946 ,0.90806 ,3.57717 ,35.09917 
118 ,21.5867 ,0.90994 ,3.54637 ,34.79696 
119 ,21.7629 ,0.91172 ,3.53610 ,34.69623 
120 ,21.9389 ,0.91345 ,3.51899 ,34.52834 
121 ,22.1310 ,0.91536 ,3.50188 ,34.36045 
122 ,22.3068 ,0.91712 ,3.48477 ,34.19255 
123 ,22.4834 ,0.91887 ,3.45739 ,33.92393 
124 ,22.6752 ,0.92085 ,3.47108 ,34.05824 
125 ,22.8670 ,0.92263 ,3.44370 ,33.78961 
126 ,23.0435 ,0.92451 ,3.41290 ,33.48741 
127 ,23.2353 ,0.92642 ,3.41290 ,33.48741 
128 ,23.4116 ,0.92820 ,3.39237 ,33.28594 
129 ,23.6036 ,0.93007 ,3.35815 ,32.95016 
130 ,23.7797 ,0.93189 ,3.36499 ,33.01731 
131 ,23.9557 ,0.93362 ,3.35130 ,32.88300 
132 ,24.1318 ,0.93539 ,3.34104 ,32.78227 
133 ,24.3075 ,0.93714 ,3.30682 ,32.44648 
134 ,24.4842 ,0.93893 ,3.29313 ,32.31217 
135 ,24.6921 ,0.94091 ,3.27944 ,32.17786 
136 ,24.8681 ,0.94276 ,3.26575 ,32.04354 
137 ,25.0443 ,0.94457 ,3.23495 ,31.74134 
138 ,25.2363 ,0.94645 ,3.23153 ,31.70776 
139 ,25.4125 ,0.94823 ,3.21442 ,31.53987 
140 ,25.6044 ,0.95012 ,3.19388 ,31.33840 
141 ,25.7805 ,0.95183 ,3.18020 ,31.20409 
142 ,25.9565 ,0.95366 ,3.18362 ,31.23766 
143 ,26.1327 ,0.95538 ,3.16309 ,31.03619 
144 ,26.3085 ,0.95715 ,3.12544 ,30.66683 
145 ,26.4849 ,0.95885 ,3.11518 ,30.56610 
146 ,26.6609 ,0.96069 ,3.09464 ,30.36463 
147 ,26.8370 ,0.96250 ,3.08095 ,30.23031 
148 ,27.0128 ,0.96422 ,3.08780 ,30.29747 
149 ,27.1889 ,0.96598 ,3.05700 ,29.99527 
150 ,27.3650 ,0.96773 ,3.03647 ,29.79380 
151 ,27.5411 ,0.96949 ,3.02278 ,29.65948 
152 ,27.7494 ,0.97139 ,3.00909 ,29.52517 
153 ,27.9254 ,0.97331 ,2.98171 ,29.25654 
154 ,28.0851 ,0.97505 ,2.97144 ,29.15581 
155 ,28.2615 ,0.97664 ,2.96460 ,29.08865 
156 ,28.4373 ,0.97841 ,2.95091 ,28.95434 
157 ,28.6136 ,0.98021 ,2.95433 ,28.98792 
158 ,28.8057 ,0.98210 ,2.91327 ,28.58498 
159 ,28.9820 ,0.98388 ,2.89616 ,28.41709 
160 ,29.1579 ,0.98560 ,2.88931 ,28.34993 
161 ,29.3340 ,0.98741 ,2.87905 ,28.24919 
162 ,29.5259 ,0.98921 ,2.85509 ,28.01415 
163 ,29.7181 ,0.99124 ,2.82771 ,27.74552 
164 ,29.8940 ,0.99296 ,2.82771 ,27.74552 
165 ,30.0703 ,0.99472 ,2.79007 ,27.37616 
166 ,30.2463 ,0.99652 ,2.78322 ,27.30900 
167 ,30.4383 ,0.99840 ,2.76954 ,27.17469 
168 ,30.6145 ,1.00017 ,2.76611 ,27.14111 
169 ,30.8066 ,1.00204 ,2.73189 ,26.80533 
170 ,30.9828 ,1.00386 ,2.72163 ,26.70459 
171 ,31.1743 ,1.00579 ,2.70794 ,26.57028 
172 ,31.3507 ,1.00756 ,2.70109 ,26.50312 
173 ,31.5269 ,1.00934 ,2.68056 ,26.30165 
174 ,31.7029 ,1.01109 ,2.64976 ,25.99945 
175 ,31.8789 ,1.01287 ,2.66003 ,26.10018 
176 ,32.0551 ,1.01459 ,2.64634 ,25.96587 
177 ,32.2308 ,1.01643 ,2.61212 ,25.63009 
178 ,32.3911 ,1.01807 ,2.58816 ,25.39504 
179 ,32.5673 ,1.01976 ,2.58132 ,25.32788 
180 ,32.7434 ,1.02151 ,2.55736 ,25.09283 
181 ,32.9195 ,1.02325 ,2.55736 ,25.09283 
182 ,33.0954 ,1.02504 ,2.54710 ,24.99210 
183 ,33.2713 ,1.02679 ,2.53683 ,24.89136 
184 ,33.4477 ,1.02857 ,2.51972 ,24.72347 
185 ,33.6397 ,1.03043 ,2.51287 ,24.65632 
186 ,33.8158 ,1.03218 ,2.48550 ,24.38769 
187 ,33.9919 ,1.03398 ,2.47523 ,24.28696 
188 ,34.1676 ,1.03571 ,2.45812 ,24.11906 
189 ,34.3439 ,1.03747 ,2.43416 ,23.88402 
190 ,34.5200 ,1.03921 ,2.42048 ,23.74970 
191 ,34.7122 ,1.04109 ,2.42048 ,23.74970 
192 ,34.9040 ,1.04298 ,2.38625 ,23.41392 
193 ,35.0805 ,1.04491 ,2.37941 ,23.34676 
194 ,35.2726 ,1.04677 ,2.37599 ,23.31318 
195 ,35.4484 ,1.04849 ,2.33834 ,22.94382 
196 ,35.6405 ,1.05042 ,2.34177 ,22.97740 
197 ,35.8167 ,1.05218 ,2.31781 ,22.74235 
198 ,35.9926 ,1.05397 ,2.31439 ,22.70877 
199 ,36.1849 ,1.05578 ,2.26648 ,22.23868 
200 ,36.3448 ,1.05762 ,2.25279 ,22.10437 
201 ,36.5208 ,1.05925 ,2.25279 ,22.10437 
202 ,36.6970 ,1.06097 ,2.24937 ,22.07079 
203 ,36.8886 ,1.06285 ,2.23910 ,21.97005 
204 ,37.0652 ,1.06469 ,2.20830 ,21.66785 
205 ,37.2573 ,1.06660 ,2.20488 ,21.63427 
206 ,37.4330 ,1.06839 ,2.20146 ,21.60069 
207 ,37.6249 ,1.07023 ,2.15012 ,21.09702 
208 ,37.8011 ,1.07202 ,2.15012 ,21.09702 
209 ,37.9771 ,1.07380 ,2.13301 ,20.92912 
210 ,38.1532 ,1.07553 ,2.12617 ,20.86197 
211 ,38.3134 ,1.07729 ,2.10906 ,20.69408 
212 ,38.4894 ,1.07888 ,2.09879 ,20.59334 
213 ,38.6659 ,1.08070 ,2.07141 ,20.32472 
214 ,38.8739 ,1.08275 ,2.05430 ,20.15682 
215 ,39.0498 ,1.08447 ,2.05088 ,20.12325 
216 ,39.2260 ,1.08630 ,2.00982 ,19.72031 
217 ,39.4020 ,1.08801 ,2.02008 ,19.82104 
218 ,39.5940 ,1.08987 ,2.01324 ,19.75388 
219 ,39.8022 ,1.09188 ,1.97559 ,19.38452 
220 ,39.9783 ,1.09378 ,1.97559 ,19.38452 
221 ,40.1705 ,1.09573 ,1.95848 ,19.21663 
222 ,40.3624 ,1.09764 ,1.95164 ,19.14948 
223 ,40.5386 ,1.09945 ,1.92768 ,18.91443 
224 ,40.7144 ,1.10117 ,1.92426 ,18.88085 
225 ,40.9065 ,1.10305 ,1.88662 ,18.51149 
226 ,41.0828 ,1.10483 ,1.86951 ,18.34360 
227 ,41.2589 ,1.10663 ,1.87293 ,18.37717 
228 ,41.4349 ,1.10835 ,1.86266 ,18.27644 
229 ,41.6110 ,1.11010 ,1.83528 ,18.00781 
230 ,41.8031 ,1.11207 ,1.81133 ,17.77276 
231 ,41.9794 ,1.11381 ,1.80449 ,17.70561 
232 ,42.1551 ,1.11557 ,1.79422 ,17.60487 
233 ,42.3310 ,1.11732 ,1.77369 ,17.40340 
234 ,42.5073 ,1.11916 ,1.76000 ,17.26909 
235 ,42.6834 ,1.12085 ,1.74973 ,17.16836 
236 ,42.8593 ,1.12257 ,1.73604 ,17.03404 
237 ,43.0351 ,1.12437 ,1.73604 ,17.03404 
238 ,43.2117 ,1.12611 ,1.70182 ,16.69826 
239 ,43.3875 ,1.12789 ,1.68129 ,16.49679 
240 ,43.5958 ,1.12991 ,1.67444 ,16.42963 
241 ,43.7717 ,1.13172 ,1.65733 ,16.26174 
242 ,43.9479 ,1.13354 ,1.64022 ,16.09385 
243 ,44.1240 ,1.13525 ,1.62995 ,15.99311 
244 ,44.3157 ,1.13714 ,1.64364 ,16.12743 
245 ,44.4922 ,1.13896 ,1.60600 ,15.75807 
246 ,44.6682 ,1.14079 ,1.58547 ,15.55660 
247 ,44.8439 ,1.14246 ,1.58204 ,15.52302 
248 ,45.0203 ,1.14424 ,1.57178 ,15.42228 
249 ,45.2125 ,1.14611 ,1.56151 ,15.32155 
250 ,45.3885 ,1.14790 ,1.53413 ,15.05292 
251 ,45.5807 ,1.14984 ,1.54098 ,15.12008 
252 ,45.7566 ,1.15156 ,1.52729 ,14.98577 
253 ,45.9166 ,1.15326 ,1.49649 ,14.68356 
254 ,46.0927 ,1.15487 ,1.48622 ,14.58283 
255 ,46.2688 ,1.15670 ,1.47253 ,14.44851 
256 ,46.4606 ,1.15854 ,1.47253 ,14.44851 
257 ,46.6371 ,1.16036 ,1.45885 ,14.31420 
258 ,46.8451 ,1.16234 ,1.42805 ,14.01199 
259 ,47.0372 ,1.16435 ,1.43489 ,14.07915 
260 ,47.2133 ,1.16615 ,1.41094 ,13.84410 
261 ,47.3894 ,1.16788 ,1.38356 ,13.57548 
262 ,47.5654 ,1.16967 ,1.37329 ,13.47474 
263 ,47.7414 ,1.17136 ,1.37671 ,13.50832 
264 ,47.9175 ,1.17314 ,1.36645 ,13.40759 
265 ,48.0776 ,1.17486 ,1.33565 ,13.10538 
266 ,48.2537 ,1.17651 ,1.33223 ,13.07180 
267 ,48.4295 ,1.17823 ,1.31512 ,12.90391 
268 ,48.6219 ,1.18017 ,1.31512 ,12.90391 
269 ,48.8135 ,1.18202 ,1.28774 ,12.63528 
270 ,48.9897 ,1.18384 ,1.26720 ,12.43381 
271 ,49.1657 ,1.18566 ,1.26378 ,12.40024 
272 ,49.3420 ,1.18737 ,1.25694 ,12.33308 
273 ,49.5341 ,1.18926 ,1.23298 ,12.09803 
274 ,49.7583 ,1.19144 ,1.22956 ,12.06445 
275 ,49.9344 ,1.19330 ,1.20218 ,11.79583 
276 ,50.1104 ,1.19506 ,1.19192 ,11.69509 
277 ,50.2867 ,1.19687 ,1.17481 ,11.52720 
278 ,50.4784 ,1.19865 ,1.16454 ,11.42647 
279 ,50.6547 ,1.20050 ,1.16796 ,11.46004 
280 ,50.8628 ,1.20248 ,1.14058 ,11.19142 
281 ,51.0388 ,1.20441 ,1.14401 ,11.22500 
282 ,51.2148 ,1.20608 ,1.11321 ,10.92279 
283 ,51.3909 ,1.20786 ,1.08925 ,10.68774 
284 ,51.5671 ,1.20970 ,1.08241 ,10.62059 
285 ,51.7591 ,1.21154 ,1.07899 ,10.58701 
286 ,51.9353 ,1.21331 ,1.06872 ,10.48627 
287 ,52.1429 ,1.21532 ,1.06187 ,10.41912 
288 ,52.3195 ,1.21715 ,1.04134 ,10.21765 
289 ,52.5273 ,1.21916 ,1.01054 ,9.91544 
290 ,52.7032 ,1.22102 ,1.01054 ,9.91544 
291 ,52.8797 ,1.22277 ,1.00028 ,9.81471 
292 ,53.0713 ,1.22470 ,0.98317 ,9.64682 
293 ,53.2472 ,1.22639 ,0.97290 ,9.54608 
294 ,53.4235 ,1.22819 ,0.95921 ,9.41177 
295 ,53.6320 ,1.23018 ,0.94210 ,9.24388 
296 ,53.8395 ,1.23231 ,0.93525 ,9.17672 
297 ,54.0161 ,1.23410 ,0.92157 ,9.04241 
298 ,54.2078 ,1.23604 ,0.89761 ,8.80736 
299 ,54.3842 ,1.23779 ,0.89077 ,8.74020 
300 ,54.5603 ,1.23953 ,0.89419 ,8.77378 
301 ,54.7362 ,1.24137 ,0.87366 ,8.57231 
302 ,54.9284 ,1.24327 ,0.84628 ,8.30368 
303 ,55.1205 ,1.24515 ,0.85312 ,8.37084 
304 ,55.2806 ,1.24691 ,0.83259 ,8.16937 
305 ,55.4566 ,1.24853 ,0.80521 ,7.90074 
306 ,55.6327 ,1.25028 ,0.79837 ,7.83359 
307 ,55.8248 ,1.25220 ,0.79152 ,7.76643 
308 ,56.0008 ,1.25401 ,0.78468 ,7.69927 
309 ,56.1771 ,1.25573 ,0.76072 ,7.46423 
310 ,56.3686 ,1.25774 ,0.76072 ,7.46423 
311 ,56.5449 ,1.25939 ,0.74361 ,7.29633 
312 ,56.7692 ,1.26149 ,0.72992 ,7.16202 
313 ,56.9452 ,1.26341 ,0.71281 ,6.99413 
314 ,57.1214 ,1.26516 ,0.71624 ,7.02771 
315 ,57.2972 ,1.26694 ,0.69913 ,6.85982 
316 ,57.4891 ,1.26889 ,0.68201 ,6.69193 
317 ,57.6816 ,1.27076 ,0.68201 ,6.69193 
318 ,57.8575 ,1.27249 ,0.66490 ,6.52403 
319 ,58.0336 ,1.27430 ,0.63410 ,6.22183 
320 ,58.2258 ,1.27619 ,0.64437 ,6.32256 
321 ,58.4014 ,1.27797 ,0.63068 ,6.18825 
322 ,58.5779 ,1.27972 ,0.59988 ,5.88605 
323 ,58.7699 ,1.28169 ,0.58277 ,5.71815 
324 ,58.9459 ,1.28339 ,0.58277 ,5.71815 
325 ,59.1221 ,1.28514 ,0.57935 ,5.68458 
326 ,59.2981 ,1.28693 ,0.57593 ,5.65100 
327 ,59.4740 ,1.28873 ,0.55197 ,5.41595 
328 ,59.6499 ,1.29042 ,0.52459 ,5.14732 
329 ,59.8263 ,1.29220 ,0.52459 ,5.14732 
330 ,60.0022 ,1.29395 ,0.52117 ,5.11375 
331 ,60.1944 ,1.29580 ,0.51091 ,5.01301 
332 ,60.3703 ,1.29763 ,0.48011 ,4.71081 
333 ,60.5306 ,1.29934 ,0.47668 ,4.67723 
334 ,60.7067 ,1.30096 ,0.47668 ,4.67723 
335 ,60.8827 ,1.30275 ,0.46642 ,4.57649 
336 ,61.0588 ,1.30454 ,0.44931 ,4.40860 
337 ,61.2349 ,1.30625 ,0.42877 ,4.20713 
338 ,61.4270 ,1.30823 ,0.42193 ,4.13997 
339 ,61.6030 ,1.30993 ,0.40824 ,4.00566 
340 ,61.7791 ,1.31176 ,0.40140 ,3.93850 
341 ,61.9552 ,1.31346 ,0.38771 ,3.80419 
342 ,62.1473 ,1.31539 ,0.37060 ,3.63630 
343 ,62.3234 ,1.31718 ,0.36375 ,3.56914 
344 ,62.5311 ,1.31920 ,0.33638 ,3.30052 
345 ,62.7074 ,1.32098 ,0.32953 ,3.23336 
346 ,62.8838 ,1.32278 ,0.33638 ,3.30052 
347 ,63.0756 ,1.32464 ,0.31926 ,3.13263 
348 ,63.2518 ,1.32646 ,0.28847 ,2.83042 
349 ,63.4277 ,1.32821 ,0.28162 ,2.76326 
350 ,63.6355 ,1.33014 ,0.27135 ,2.66253 
351 ,63.8119 ,1.33206 ,0.25767 ,2.52822 
352 ,63.9879 ,1.33378 ,0.26109 ,2.56179 
353 ,64.1800 ,1.33566 ,0.24740 ,2.42748 
354 ,64.3718 ,1.33753 ,0.21660 ,2.12528 
355 ,64.5481 ,1.33935 ,0.21318 ,2.09170 
356 ,64.7242 ,1.34117 ,0.21318 ,2.09170 
357 ,64.9002 ,1.34290 ,0.19264 ,1.89023 
358 ,65.0924 ,1.34474 ,0.17553 ,1.72234 
359 ,65.2684 ,1.34664 ,0.15842 ,1.55445 
360 ,65.4446 ,1.34839 ,0.16185 ,1.58802 
361 ,65.6206 ,1.35012 ,0.15842 ,1.55445 
362 ,65.7967 ,1.35190 ,0.12762 ,1.25224 
363 ,65.9887 ,1.35384 ,0.12078 ,1.18508 
364 ,66.1648 ,1.35559 ,0.11051 ,1.08435 
365 ,66.3568 ,1.35745 ,0.07629 ,0.74857 
366 ,66.5329 ,1.35927 ,0.06945 ,0.68141 
367 ,66.6927 ,1.36098 ,0.05576 ,0.54710 
368 ,66.8853 ,1.36265 ,0.07287 ,0.71499 
369 ,67.0612 ,1.36455 ,0.05918 ,0.58067 
370 ,67.2532 ,1.36644 ,0.02496 ,0.24489 
371 ,67.4453 ,1.36835 ,0.03180 ,0.31205 
372 ,67.6374 ,1.37020 ,-0.00242 ,-0.02373 
373 ,67.8134 ,1.37211 ,0.00100 ,0.00984 
374 ,67.9894 ,1.37380 ,-0.02637 ,-0.25878 
375 ,68.1656 ,1.37554 ,-0.03664 ,-0.35952 
376 ,68.3417 ,1.37733 ,-0.02295 ,-0.22520 
377 ,68.5336 ,1.37924 ,-0.04691 ,-0.46025 
378 ,68.7098 ,1.38101 ,-0.06402 ,-0.62814 
379 ,68.8857 ,1.38280 ,-0.06744 ,-0.66172 
380 ,69.0618 ,1.38450 ,-0.07428 ,-0.72888 
381 ,69.2538 ,1.38635 ,-0.08455 ,-0.82961 
382 ,69.4460 ,1.38835 ,-0.09824 ,-0.96393 
383 ,69.6220 ,1.39013 ,-0.09824 ,-0.96393 
384 ,69.7981 ,1.39185 ,-0.13588 ,-1.33329 
385 ,69.9744 ,1.39366 ,-0.14615 ,-1.43402 
386 ,70.1659 ,1.39561 ,-0.14957 ,-1.46760 
387 ,70.3424 ,1.39730 ,-0.14957 ,-1.46760 
388 ,70.5184 ,1.39908 ,-0.17011 ,-1.66907 
389 ,70.6946 ,1.40084 ,-0.18722 ,-1.83696 
390 ,70.8703 ,1.40261 ,-0.18722 ,-1.83696 
391 ,71.0467 ,1.40436 ,-0.19064 ,-1.87054 
392 ,71.2231 ,1.40609 ,-0.20775 ,-2.03843 
393 ,71.4148 ,1.40800 ,-0.23513 ,-2.30706 
394 ,71.5907 ,1.40978 ,-0.23513 ,-2.30706 
395 ,71.7671 ,1.41157 ,-0.24539 ,-2.40779 
396 ,71.9426 ,1.41332 ,-0.24197 ,-2.37422 
397 ,72.1191 ,1.41502 ,-0.26935 ,-2.64284 
398 ,72.2952 ,1.41685 ,-0.28988 ,-2.84431 
399 ,72.4711 ,1.41857 ,-0.28304 ,-2.77716 
400 ,72.6634 ,1.42045 ,-0.29330 ,-2.87789 
401 ,72.8715 ,1.42252 ,-0.32068 ,-3.14652 
402 ,73.0474 ,1.42435 ,-0.32068 ,-3.14652 
403 ,73.2396 ,1.42628 ,-0.33437 ,-3.28083 
404 ,73.4157 ,1.42811 ,-0.35490 ,-3.48230 
405 ,73.5917 ,1.42979 ,-0.35490 ,-3.48230 
406 ,73.7841 ,1.43168 ,-0.35832 ,-3.51588 
407 ,73.9599 ,1.43346 ,-0.37886 ,-3.71735 
408 ,74.1358 ,1.43523 ,-0.38570 ,-3.78450 
409 ,74.3123 ,1.43699 ,-0.40623 ,-3.98597 
410 ,74.5037 ,1.43890 ,-0.39597 ,-3.88524 
411 ,74.6639 ,1.44062 ,-0.43019 ,-4.22102 
412 ,74.8240 ,1.44222 ,-0.43703 ,-4.28818 
413 ,74.9844 ,1.44383 ,-0.43361 ,-4.25460 
414 ,75.1444 ,1.44541 ,-0.45757 ,-4.48965 
415 ,75.3526 ,1.44731 ,-0.47126 ,-4.62396 
416 ,75.5445 ,1.44926 ,-0.46783 ,-4.59038 
417 ,75.7527 ,1.45124 ,-0.49521 ,-4.85901 
418 ,75.9287 ,1.45320 ,-0.50890 ,-4.99332 
419 ,76.1045 ,1.45502 ,-0.51232 ,-5.02690 
420 ,76.2810 ,1.45664 ,-0.53285 ,-5.22837 
421 ,76.4730 ,1.45863 ,-0.53628 ,-5.26195 
422 ,76.6490 ,1.46038 ,-0.55339 ,-5.42984 
423 ,76.8410 ,1.46216 ,-0.54654 ,-5.36268 
424 ,77.0171 ,1.46404 ,-0.56365 ,-5.53058 
425 ,77.2093 ,1.46600 ,-0.57392 ,-5.63131 
426 ,77.3856 ,1.46782 ,-0.59103 ,-5.79920 
427 ,77.5611 ,1.46951 ,-0.59788 ,-5.86636 
428 ,77.7374 ,1.47127 ,-0.62525 ,-6.13499 
429 ,77.9136 ,1.47299 ,-0.62525 ,-6.13499 
430 ,78.1216 ,1.47509 ,-0.62868 ,-6.16856 
431 ,78.2976 ,1.47681 ,-0.64236 ,-6.30288 
432 ,78.4739 ,1.47873 ,-0.65605 ,-6.43719 
433 ,78.6498 ,1.48034 ,-0.66974 ,-6.57150 
434 ,78.8420 ,1.48228 ,-0.66974 ,-6.57150 
435 ,79.0341 ,1.48417 ,-0.68001 ,-6.67224 
436 ,79.2101 ,1.48599 ,-0.70396 ,-6.90729 
437 ,79.3859 ,1.48777 ,-0.70054 ,-6.87371 
438 ,79.5623 ,1.48949 ,-0.70739 ,-6.94086 
439 ,79.7384 ,1.49121 ,-0.74161 ,-7.27665 
440 ,79.9144 ,1.49302 ,-0.74845 ,-7.34380 
441 ,80.1063 ,1.49487 ,-0.73818 ,-7.24307 
442 ,80.2828 ,1.49668 ,-0.76214 ,-7.47812 
443 ,80.4746 ,1.49853 ,-0.77925 ,-7.64601 
444 ,80.6505 ,1.50036 ,-0.78610 ,-7.71317 
445 ,80.8267 ,1.50213 ,-0.79294 ,-7.78032 
446 ,81.0029 ,1.50391 ,-0.79294 ,-7.78032 
447 ,81.1949 ,1.50579 ,-0.81689 ,-8.01537 
448 ,81.3870 ,1.50768 ,-0.81347 ,-7.98179 
449 ,81.5631 ,1.50952 ,-0.82032 ,-8.04895 
450 ,81.7390 ,1.51124 ,-0.85454 ,-8.38473 
451 ,81.9154 ,1.51303 ,-0.84769 ,-8.31758 
452 ,82.0913 ,1.51478 ,-0.87507 ,-8.58620 
453 ,82.2675 ,1.51654 ,-0.86138 ,-8.45189 
454 ,82.4593 ,1.51844 ,-0.88876 ,-8.72051 
455 ,82.6355 ,1.52019 ,-0.90245 ,-8.85483 
456 ,82.8116 ,1.52194 ,-0.90587 ,-8.88841 
457 ,83.0037 ,1.52389 ,-0.91956 ,-9.02272 
458 ,83.1797 ,1.52567 ,-0.92640 ,-9.08988 
459 ,83.3718 ,1.52750 ,-0.94009 ,-9.22419 
460 ,83.5637 ,1.52936 ,-0.94351 ,-9.25777 
461 ,83.7560 ,1.53138 ,-0.95720 ,-9.39208 
462 ,83.9319 ,1.53326 ,-0.97431 ,-9.55997 
463 ,84.1081 ,1.53503 ,-0.98116 ,-9.62713 
