Data stamp = , 29-03-2022 06:48:17 035

Calibration Values: 
Slope = , 26.54 , g/V 
Offset Voltage at no contact = , -0.501760 , V 

No , Time , Stage Position ,   Mass , Force 
   ,  (s) ,      (mm)      ,   (g)  , (mN)  

1 ,0.0000 ,0.69948 ,5.32247 ,52.22410 
2 ,0.2049 ,0.69955 ,5.32932 ,52.29126 
3 ,0.4447 ,0.70012 ,5.31905 ,52.19052 
4 ,0.6216 ,0.70111 ,5.32589 ,52.25768 
5 ,0.7973 ,0.70240 ,5.32932 ,52.29126 
6 ,0.9892 ,0.70410 ,5.31563 ,52.15694 
7 ,1.1651 ,0.70585 ,5.30878 ,52.08979 
8 ,1.3411 ,0.70754 ,5.32932 ,52.29126 
9 ,1.5176 ,0.70931 ,5.31221 ,52.12337 
10 ,1.7098 ,0.71133 ,5.30194 ,52.02263 
11 ,1.8857 ,0.71305 ,5.28141 ,51.82116 
12 ,2.0616 ,0.71480 ,5.26772 ,51.68685 
13 ,2.2539 ,0.71681 ,5.25061 ,51.51896 
14 ,2.4298 ,0.71852 ,5.22665 ,51.28391 
15 ,2.6060 ,0.72027 ,5.21639 ,51.18317 
16 ,2.7820 ,0.72207 ,5.21981 ,51.21675 
17 ,2.9582 ,0.72378 ,5.20270 ,51.04886 
18 ,3.1662 ,0.72583 ,5.18216 ,50.84739 
19 ,3.3424 ,0.72760 ,5.17190 ,50.74666 
20 ,3.5343 ,0.72943 ,5.16163 ,50.64592 
21 ,3.7108 ,0.73134 ,5.12741 ,50.31014 
22 ,3.9026 ,0.73318 ,5.10688 ,50.10867 
23 ,4.0947 ,0.73513 ,5.10003 ,50.04151 
24 ,4.2707 ,0.73694 ,5.07950 ,49.84004 
25 ,4.4628 ,0.73884 ,5.07950 ,49.84004 
26 ,4.6543 ,0.74073 ,5.05554 ,49.60499 
27 ,4.8309 ,0.74245 ,5.02817 ,49.33637 
28 ,5.0228 ,0.74443 ,5.02817 ,49.33637 
29 ,5.1989 ,0.74612 ,5.01790 ,49.23563 
30 ,5.3752 ,0.74793 ,4.99052 ,48.96701 
31 ,5.5349 ,0.74965 ,4.96657 ,48.73196 
32 ,5.6947 ,0.75122 ,4.94603 ,48.53049 
33 ,5.8711 ,0.75293 ,4.93235 ,48.39618 
34 ,6.0475 ,0.75471 ,4.93235 ,48.39618 
35 ,6.2396 ,0.75662 ,4.92208 ,48.29544 
36 ,6.4316 ,0.75853 ,4.89128 ,47.99324 
37 ,6.6074 ,0.76028 ,4.87417 ,47.82534 
38 ,6.7836 ,0.76205 ,4.86732 ,47.75819 
39 ,6.9598 ,0.76379 ,4.85021 ,47.59030 
40 ,7.1518 ,0.76567 ,4.81257 ,47.22093 
41 ,7.3440 ,0.76762 ,4.81599 ,47.25451 
42 ,7.5358 ,0.76946 ,4.78177 ,46.91873 
43 ,7.7122 ,0.77132 ,4.76466 ,46.75084 
44 ,7.9039 ,0.77328 ,4.76466 ,46.75084 
45 ,8.0803 ,0.77503 ,4.75097 ,46.61653 
46 ,8.2885 ,0.77699 ,4.72359 ,46.34790 
47 ,8.4805 ,0.77896 ,4.70306 ,46.14643 
48 ,8.6563 ,0.78075 ,4.69622 ,46.07927 
49 ,8.8321 ,0.78261 ,4.67226 ,45.84422 
50 ,8.9924 ,0.78419 ,4.65857 ,45.70991 
51 ,9.1689 ,0.78589 ,4.65173 ,45.64275 
52 ,9.3606 ,0.78779 ,4.63462 ,45.47486 
53 ,9.5369 ,0.78951 ,4.61066 ,45.23981 
54 ,9.7289 ,0.79147 ,4.59013 ,45.03835 
55 ,9.9045 ,0.79319 ,4.57986 ,44.93761 
56 ,10.0811 ,0.79502 ,4.56960 ,44.83688 
57 ,10.2732 ,0.79693 ,4.53880 ,44.53467 
58 ,10.4491 ,0.79867 ,4.52169 ,44.36678 
59 ,10.6572 ,0.80074 ,4.49773 ,44.13173 
60 ,10.8653 ,0.80281 ,4.49431 ,44.09815 
61 ,11.0415 ,0.80460 ,4.47720 ,43.93026 
62 ,11.2338 ,0.80651 ,4.44640 ,43.62806 
63 ,11.4256 ,0.80839 ,4.44640 ,43.62806 
64 ,11.6017 ,0.81021 ,4.42586 ,43.42659 
65 ,11.7939 ,0.81211 ,4.39849 ,43.15796 
66 ,11.9696 ,0.81393 ,4.38138 ,42.99007 
67 ,12.1459 ,0.81572 ,4.37453 ,42.92291 
68 ,12.3219 ,0.81735 ,4.36084 ,42.78860 
69 ,12.4983 ,0.81916 ,4.33689 ,42.55355 
70 ,12.6900 ,0.82098 ,4.30951 ,42.28492 
71 ,12.8821 ,0.82294 ,4.30609 ,42.25135 
72 ,13.0580 ,0.82470 ,4.28213 ,42.01630 
73 ,13.2341 ,0.82651 ,4.26160 ,41.81483 
74 ,13.4265 ,0.82846 ,4.26160 ,41.81483 
75 ,13.6026 ,0.83019 ,4.23422 ,41.54620 
76 ,13.7944 ,0.83207 ,4.20342 ,41.24400 
77 ,13.9706 ,0.83385 ,4.19658 ,41.17684 
78 ,14.1467 ,0.83562 ,4.19658 ,41.17684 
79 ,14.3388 ,0.83748 ,4.15894 ,40.80748 
80 ,14.5309 ,0.83948 ,4.14525 ,40.67317 
81 ,14.7069 ,0.84120 ,4.14183 ,40.63959 
82 ,14.8831 ,0.84299 ,4.11103 ,40.33738 
83 ,15.0912 ,0.84492 ,4.10076 ,40.23665 
84 ,15.2833 ,0.84701 ,4.07680 ,40.00160 
85 ,15.4912 ,0.84895 ,4.05285 ,39.76655 
86 ,15.6674 ,0.85080 ,4.03574 ,39.59866 
87 ,15.8435 ,0.85263 ,4.02889 ,39.53150 
88 ,16.0194 ,0.85435 ,4.01178 ,39.36361 
89 ,16.1953 ,0.85610 ,3.98441 ,39.09499 
90 ,16.3717 ,0.85789 ,3.98441 ,39.09499 
91 ,16.5794 ,0.85989 ,3.95018 ,38.75920 
92 ,16.7558 ,0.86168 ,3.93650 ,38.62489 
93 ,16.9315 ,0.86346 ,3.92965 ,38.55773 
94 ,17.1241 ,0.86531 ,3.91596 ,38.42342 
95 ,17.3000 ,0.86711 ,3.88858 ,38.15479 
96 ,17.4920 ,0.86904 ,3.87147 ,37.98690 
97 ,17.6682 ,0.87083 ,3.85779 ,37.85259 
98 ,17.8282 ,0.87252 ,3.84752 ,37.75185 
99 ,17.9882 ,0.87413 ,3.83725 ,37.65112 
100 ,18.1644 ,0.87577 ,3.81672 ,37.44965 
101 ,18.3565 ,0.87768 ,3.78250 ,37.11387 
102 ,18.5323 ,0.87950 ,3.78250 ,37.11387 
103 ,18.7087 ,0.88125 ,3.76196 ,36.91240 
104 ,18.8847 ,0.88300 ,3.75512 ,36.84524 
105 ,19.0768 ,0.88487 ,3.71063 ,36.40872 
106 ,19.2529 ,0.88666 ,3.70379 ,36.34157 
107 ,19.4288 ,0.88847 ,3.70379 ,36.34157 
108 ,19.6212 ,0.89038 ,3.66957 ,36.00578 
109 ,19.7969 ,0.89216 ,3.64903 ,35.80431 
110 ,19.9731 ,0.89383 ,3.63877 ,35.70358 
111 ,20.1652 ,0.89578 ,3.62850 ,35.60284 
112 ,20.3411 ,0.89758 ,3.60112 ,35.33422 
113 ,20.5333 ,0.89943 ,3.60112 ,35.33422 
114 ,20.7095 ,0.90119 ,3.58743 ,35.19990 
115 ,20.8855 ,0.90299 ,3.56348 ,34.96485 
116 ,21.0616 ,0.90476 ,3.54295 ,34.76338 
117 ,21.2537 ,0.90667 ,3.52241 ,34.56192 
118 ,21.4293 ,0.90844 ,3.50530 ,34.39402 
119 ,21.6057 ,0.91017 ,3.49846 ,34.32687 
120 ,21.7818 ,0.91191 ,3.47450 ,34.09182 
121 ,21.9578 ,0.91368 ,3.46081 ,33.95751 
122 ,22.1338 ,0.91548 ,3.45055 ,33.85677 
123 ,22.3101 ,0.91728 ,3.43686 ,33.72246 
124 ,22.4861 ,0.91896 ,3.42317 ,33.58814 
125 ,22.6623 ,0.92074 ,3.38553 ,33.21878 
126 ,22.8861 ,0.92284 ,3.38895 ,33.25236 
127 ,23.0784 ,0.92491 ,3.34788 ,32.84942 
128 ,23.2543 ,0.92667 ,3.33077 ,32.68153 
129 ,23.4303 ,0.92843 ,3.32735 ,32.64795 
130 ,23.6066 ,0.93017 ,3.31366 ,32.51364 
131 ,23.7826 ,0.93195 ,3.28628 ,32.24501 
132 ,23.9584 ,0.93371 ,3.27259 ,32.11070 
133 ,24.1349 ,0.93552 ,3.26917 ,32.07712 
134 ,24.3108 ,0.93727 ,3.25548 ,31.94281 
135 ,24.5030 ,0.93910 ,3.22468 ,31.64060 
136 ,24.6791 ,0.94094 ,3.19388 ,31.33840 
137 ,24.8552 ,0.94269 ,3.19046 ,31.30482 
138 ,25.0310 ,0.94444 ,3.19388 ,31.33840 
139 ,25.2233 ,0.94632 ,3.14940 ,30.90188 
140 ,25.4313 ,0.94837 ,3.14255 ,30.83472 
141 ,25.6070 ,0.95017 ,3.12202 ,30.63325 
142 ,25.7834 ,0.95194 ,3.10491 ,30.46536 
143 ,25.9591 ,0.95372 ,3.07753 ,30.19674 
144 ,26.1357 ,0.95544 ,3.09122 ,30.33105 
145 ,26.3116 ,0.95725 ,3.07411 ,30.16316 
146 ,26.4878 ,0.95897 ,3.03989 ,29.82737 
147 ,26.6636 ,0.96076 ,3.02278 ,29.65948 
148 ,26.8399 ,0.96257 ,2.99882 ,29.42444 
149 ,27.0320 ,0.96446 ,3.01593 ,29.59233 
150 ,27.1920 ,0.96616 ,2.98855 ,29.32370 
151 ,27.3684 ,0.96777 ,2.97829 ,29.22297 
152 ,27.5602 ,0.96974 ,2.95091 ,28.95434 
153 ,27.7359 ,0.97143 ,2.94064 ,28.85360 
154 ,27.9124 ,0.97321 ,2.92011 ,28.65213 
155 ,28.1204 ,0.97522 ,2.89616 ,28.41709 
156 ,28.2963 ,0.97704 ,2.89273 ,28.38351 
157 ,28.4727 ,0.97879 ,2.88247 ,28.28277 
158 ,28.6646 ,0.98077 ,2.86193 ,28.08130 
159 ,28.8247 ,0.98247 ,2.83798 ,27.84625 
160 ,29.0168 ,0.98426 ,2.82429 ,27.71194 
161 ,29.1928 ,0.98602 ,2.81745 ,27.64479 
162 ,29.3850 ,0.98783 ,2.80718 ,27.54405 
163 ,29.5610 ,0.98970 ,2.76954 ,27.17469 
164 ,29.7372 ,0.99146 ,2.76954 ,27.17469 
165 ,29.9292 ,0.99340 ,2.75927 ,27.07395 
166 ,30.1214 ,0.99525 ,2.72847 ,26.77175 
167 ,30.3133 ,0.99725 ,2.71820 ,26.67101 
168 ,30.4894 ,0.99899 ,2.71136 ,26.60386 
169 ,30.6814 ,1.00085 ,2.68056 ,26.30165 
170 ,30.8571 ,1.00280 ,2.66687 ,26.16734 
171 ,31.0336 ,1.00437 ,2.65660 ,26.06661 
172 ,31.2258 ,1.00624 ,2.63265 ,25.83156 
173 ,31.4178 ,1.00828 ,2.62238 ,25.73082 
174 ,31.5937 ,1.00998 ,2.60869 ,25.59651 
175 ,31.7859 ,1.01194 ,2.57447 ,25.26073 
176 ,31.9617 ,1.01370 ,2.54710 ,24.99210 
177 ,32.1379 ,1.01548 ,2.56078 ,25.12641 
178 ,32.3303 ,1.01739 ,2.52656 ,24.79063 
179 ,32.5062 ,1.01920 ,2.50945 ,24.62274 
180 ,32.6823 ,1.02087 ,2.51287 ,24.65632 
181 ,32.8585 ,1.02266 ,2.49234 ,24.45485 
182 ,33.0343 ,1.02447 ,2.48207 ,24.35411 
183 ,33.2262 ,1.02628 ,2.45812 ,24.11906 
184 ,33.4021 ,1.02810 ,2.44443 ,23.98475 
185 ,33.5783 ,1.02987 ,2.43416 ,23.88402 
186 ,33.7547 ,1.03161 ,2.42390 ,23.78328 
187 ,33.9944 ,1.03392 ,2.40336 ,23.58181 
188 ,34.1709 ,1.03578 ,2.38283 ,23.38034 
189 ,34.3470 ,1.03755 ,2.35888 ,23.14529 
190 ,34.5230 ,1.03928 ,2.33492 ,22.91024 
191 ,34.6993 ,1.04109 ,2.32465 ,22.80951 
192 ,34.8753 ,1.04282 ,2.32123 ,22.77593 
193 ,35.0510 ,1.04462 ,2.31781 ,22.74235 
194 ,35.2272 ,1.04641 ,2.29043 ,22.47373 
195 ,35.4197 ,1.04826 ,2.28701 ,22.44015 
196 ,35.5955 ,1.05001 ,2.25963 ,22.17152 
197 ,35.7715 ,1.05177 ,2.25279 ,22.10437 
198 ,35.9636 ,1.05370 ,2.23226 ,21.90290 
199 ,36.1397 ,1.05546 ,2.21857 ,21.76858 
200 ,36.3158 ,1.05724 ,2.20488 ,21.63427 
201 ,36.4919 ,1.05899 ,2.18777 ,21.46638 
202 ,36.6680 ,1.06077 ,2.16039 ,21.19775 
203 ,36.8600 ,1.06265 ,2.15355 ,21.13059 
204 ,37.0361 ,1.06439 ,2.15355 ,21.13059 
205 ,37.2282 ,1.06630 ,2.11932 ,20.79481 
206 ,37.4042 ,1.06807 ,2.10564 ,20.66050 
207 ,37.5802 ,1.06988 ,2.10221 ,20.62692 
208 ,37.7564 ,1.07162 ,2.08852 ,20.49261 
209 ,37.9323 ,1.07339 ,2.06457 ,20.25756 
210 ,38.1406 ,1.07546 ,2.04746 ,20.08967 
211 ,38.3326 ,1.07740 ,2.04746 ,20.08967 
212 ,38.5087 ,1.07916 ,2.01324 ,19.75388 
213 ,38.6847 ,1.08091 ,1.97902 ,19.41810 
214 ,38.8607 ,1.08267 ,2.00297 ,19.65315 
215 ,39.0208 ,1.08436 ,1.98586 ,19.48526 
216 ,39.1969 ,1.08602 ,1.96875 ,19.31737 
217 ,39.3731 ,1.08779 ,1.94822 ,19.11590 
218 ,39.5651 ,1.08974 ,1.91742 ,18.81369 
219 ,39.7410 ,1.09146 ,1.92768 ,18.91443 
220 ,39.9333 ,1.09336 ,1.90715 ,18.71296 
221 ,40.1094 ,1.09518 ,1.89004 ,18.54507 
222 ,40.2852 ,1.09691 ,1.87293 ,18.37717 
223 ,40.4615 ,1.09869 ,1.84897 ,18.14213 
224 ,40.6531 ,1.10059 ,1.82844 ,17.94066 
225 ,40.8296 ,1.10233 ,1.80791 ,17.73919 
226 ,40.9896 ,1.10404 ,1.80449 ,17.70561 
227 ,41.1658 ,1.10567 ,1.80106 ,17.67203 
228 ,41.3575 ,1.10751 ,1.78053 ,17.47056 
229 ,41.5338 ,1.10938 ,1.76684 ,17.33625 
230 ,41.7100 ,1.11118 ,1.74973 ,17.16836 
231 ,41.8861 ,1.11295 ,1.72578 ,16.93331 
232 ,42.0621 ,1.11465 ,1.71893 ,16.86615 
233 ,42.2382 ,1.11643 ,1.71551 ,16.83257 
234 ,42.4140 ,1.11819 ,1.70182 ,16.69826 
235 ,42.6065 ,1.12002 ,1.67102 ,16.39605 
236 ,42.7981 ,1.12204 ,1.67444 ,16.42963 
237 ,42.9580 ,1.12375 ,1.66418 ,16.32890 
238 ,43.1344 ,1.12539 ,1.63338 ,16.02669 
239 ,43.3265 ,1.12735 ,1.62653 ,15.95954 
240 ,43.5189 ,1.12923 ,1.62311 ,15.92596 
241 ,43.7107 ,1.13118 ,1.59231 ,15.62375 
242 ,43.8869 ,1.13287 ,1.58204 ,15.52302 
243 ,44.0788 ,1.13479 ,1.57520 ,15.45586 
244 ,44.2546 ,1.13660 ,1.55467 ,15.25439 
245 ,44.4311 ,1.13837 ,1.53071 ,15.01934 
246 ,44.6232 ,1.14023 ,1.54782 ,15.18724 
247 ,44.8150 ,1.14220 ,1.51702 ,14.88503 
248 ,44.9909 ,1.14396 ,1.49991 ,14.71714 
249 ,45.1673 ,1.14565 ,1.48622 ,14.58283 
250 ,45.3434 ,1.14745 ,1.47596 ,14.48209 
251 ,45.5196 ,1.14927 ,1.46911 ,14.41493 
252 ,45.7115 ,1.15112 ,1.44858 ,14.21346 
253 ,45.8874 ,1.15288 ,1.43147 ,14.04557 
254 ,46.0634 ,1.15465 ,1.43147 ,14.04557 
255 ,46.2235 ,1.15637 ,1.41436 ,13.87768 
256 ,46.3834 ,1.15800 ,1.39383 ,13.67621 
257 ,46.5435 ,1.15959 ,1.38356 ,13.57548 
258 ,46.7035 ,1.16119 ,1.38014 ,13.54190 
259 ,46.8636 ,1.16278 ,1.36645 ,13.40759 
260 ,47.0398 ,1.16440 ,1.34591 ,13.20612 
261 ,47.2158 ,1.16618 ,1.32538 ,13.00465 
262 ,47.3759 ,1.16793 ,1.31169 ,12.87033 
263 ,47.5359 ,1.16951 ,1.30827 ,12.83675 
264 ,47.6960 ,1.17109 ,1.28432 ,12.60171 
265 ,47.8561 ,1.17271 ,1.28089 ,12.56813 
266 ,48.0162 ,1.17432 ,1.26720 ,12.43381 
267 ,48.1762 ,1.17591 ,1.25352 ,12.29950 
268 ,48.3523 ,1.17750 ,1.24325 ,12.19877 
269 ,48.5284 ,1.17931 ,1.22614 ,12.03088 
270 ,48.7044 ,1.18103 ,1.22272 ,11.99730 
271 ,48.8645 ,1.18278 ,1.20903 ,11.86298 
272 ,49.0405 ,1.18441 ,1.21245 ,11.89656 
273 ,49.2006 ,1.18613 ,1.18165 ,11.59436 
274 ,49.3606 ,1.18775 ,1.16796 ,11.46004 
275 ,49.5208 ,1.18934 ,1.15085 ,11.29215 
276 ,49.6808 ,1.19094 ,1.14743 ,11.25857 
277 ,49.8569 ,1.19256 ,1.14401 ,11.22500 
278 ,50.0329 ,1.19434 ,1.10979 ,10.88921 
279 ,50.1929 ,1.19606 ,1.10636 ,10.85563 
280 ,50.3694 ,1.19769 ,1.09267 ,10.72132 
281 ,50.5772 ,1.19973 ,1.08241 ,10.62059 
282 ,50.7532 ,1.20152 ,1.06872 ,10.48627 
283 ,50.9296 ,1.20327 ,1.04819 ,10.28480 
284 ,51.1057 ,1.20506 ,1.05161 ,10.31838 
285 ,51.2815 ,1.20680 ,1.03792 ,10.18407 
286 ,51.4578 ,1.20859 ,1.01396 ,9.94902 
287 ,51.6340 ,1.21037 ,0.99685 ,9.78113 
288 ,51.8259 ,1.21226 ,1.00028 ,9.81471 
289 ,52.0020 ,1.21400 ,0.97974 ,9.61324 
290 ,52.1782 ,1.21579 ,0.95921 ,9.41177 
291 ,52.3702 ,1.21774 ,0.95921 ,9.41177 
292 ,52.5463 ,1.21951 ,0.93868 ,9.21030 
293 ,52.7383 ,1.22139 ,0.92157 ,9.04241 
294 ,52.8984 ,1.22306 ,0.91472 ,8.97525 
295 ,53.0584 ,1.22473 ,0.89761 ,8.80736 
296 ,53.2505 ,1.22648 ,0.89761 ,8.80736 
297 ,53.4267 ,1.22830 ,0.88734 ,8.70662 
298 ,53.6187 ,1.23021 ,0.85997 ,8.43800 
299 ,53.7948 ,1.23190 ,0.84286 ,8.27011 
300 ,53.9867 ,1.23375 ,0.83259 ,8.16937 
301 ,54.1790 ,1.23572 ,0.80863 ,7.93432 
302 ,54.3710 ,1.23774 ,0.80521 ,7.90074 
303 ,54.5308 ,1.23943 ,0.80179 ,7.86717 
304 ,54.7072 ,1.24109 ,0.77784 ,7.63212 
305 ,54.8991 ,1.24295 ,0.76757 ,7.53138 
306 ,55.0914 ,1.24488 ,0.76072 ,7.46423 
307 ,55.2831 ,1.24687 ,0.74704 ,7.32991 
308 ,55.4595 ,1.24857 ,0.71966 ,7.06129 
309 ,55.6355 ,1.25036 ,0.70597 ,6.92697 
310 ,55.8117 ,1.25214 ,0.70597 ,6.92697 
311 ,55.9872 ,1.25385 ,0.70255 ,6.89340 
312 ,56.1638 ,1.25563 ,0.67859 ,6.65835 
313 ,56.3398 ,1.25743 ,0.66490 ,6.52403 
314 ,56.5160 ,1.25915 ,0.65464 ,6.42330 
315 ,56.6920 ,1.26095 ,0.64095 ,6.28899 
316 ,56.8683 ,1.26264 ,0.64437 ,6.32256 
317 ,57.0601 ,1.26456 ,0.61357 ,6.02036 
318 ,57.2521 ,1.26650 ,0.59304 ,5.81889 
319 ,57.4443 ,1.26832 ,0.60330 ,5.91962 
320 ,57.6362 ,1.27038 ,0.55882 ,5.48311 
321 ,57.8285 ,1.27226 ,0.56908 ,5.58384 
322 ,58.0202 ,1.27412 ,0.54513 ,5.34879 
323 ,58.2126 ,1.27603 ,0.52802 ,5.18090 
324 ,58.4046 ,1.27801 ,0.53144 ,5.21448 
325 ,58.5807 ,1.27979 ,0.50406 ,4.94585 
326 ,58.7567 ,1.28159 ,0.49380 ,4.84512 
327 ,58.9329 ,1.28331 ,0.48353 ,4.74438 
328 ,59.1250 ,1.28524 ,0.48011 ,4.71081 
329 ,59.3010 ,1.28698 ,0.45273 ,4.44218 
330 ,59.4930 ,1.28893 ,0.45273 ,4.44218 
331 ,59.6692 ,1.29067 ,0.45273 ,4.44218 
332 ,59.8452 ,1.29239 ,0.41851 ,4.10640 
333 ,60.0211 ,1.29415 ,0.40140 ,3.93850 
334 ,60.1975 ,1.29599 ,0.39113 ,3.83777 
335 ,60.3895 ,1.29788 ,0.38771 ,3.80419 
336 ,60.5655 ,1.29964 ,0.37744 ,3.70346 
337 ,60.7419 ,1.30141 ,0.35006 ,3.43483 
338 ,60.9177 ,1.30319 ,0.32953 ,3.23336 
339 ,61.0936 ,1.30492 ,0.33638 ,3.30052 
340 ,61.2698 ,1.30663 ,0.33980 ,3.33410 
341 ,61.4458 ,1.30845 ,0.31926 ,3.13263 
342 ,61.6218 ,1.31017 ,0.29873 ,2.93116 
343 ,61.8142 ,1.31209 ,0.29873 ,2.93116 
344 ,62.0059 ,1.31396 ,0.25767 ,2.52822 
345 ,62.1983 ,1.31582 ,0.25424 ,2.49464 
346 ,62.3901 ,1.31783 ,0.24740 ,2.42748 
347 ,62.5823 ,1.31974 ,0.22687 ,2.22601 
348 ,62.7585 ,1.32155 ,0.21318 ,2.09170 
349 ,62.9346 ,1.32336 ,0.20291 ,1.99096 
350 ,63.1102 ,1.32511 ,0.20633 ,2.02454 
351 ,63.2863 ,1.32681 ,0.19264 ,1.89023 
352 ,63.4463 ,1.32858 ,0.17211 ,1.68876 
353 ,63.6223 ,1.33022 ,0.16185 ,1.58802 
354 ,63.7985 ,1.33193 ,0.13789 ,1.35298 
355 ,63.9746 ,1.33377 ,0.13447 ,1.31940 
356 ,64.1829 ,1.33578 ,0.10367 ,1.01719 
357 ,64.3589 ,1.33764 ,0.12078 ,1.18508 
358 ,64.5352 ,1.33932 ,0.10025 ,0.98361 
359 ,64.7273 ,1.34123 ,0.08998 ,0.88288 
360 ,64.9034 ,1.34305 ,0.08314 ,0.81572 
361 ,65.1114 ,1.34505 ,0.06260 ,0.61425 
362 ,65.3035 ,1.34696 ,0.03865 ,0.37920 
363 ,65.4796 ,1.34872 ,0.01811 ,0.17773 
364 ,65.6557 ,1.35051 ,0.02496 ,0.24489 
365 ,65.8317 ,1.35225 ,0.02496 ,0.24489 
366 ,66.0078 ,1.35401 ,0.00785 ,0.07700 
367 ,66.1839 ,1.35586 ,-0.01611 ,-0.15805 
368 ,66.3759 ,1.35771 ,-0.02980 ,-0.29236 
369 ,66.5360 ,1.35943 ,-0.02980 ,-0.29236 
370 ,66.7122 ,1.36109 ,-0.04006 ,-0.39310 
371 ,66.9043 ,1.36303 ,-0.06744 ,-0.66172 
372 ,67.0801 ,1.36480 ,-0.07771 ,-0.76246 
373 ,67.2562 ,1.36652 ,-0.07086 ,-0.69530 
374 ,67.4323 ,1.36825 ,-0.09140 ,-0.89677 
375 ,67.6246 ,1.37012 ,-0.11535 ,-1.13182 
376 ,67.8006 ,1.37197 ,-0.12904 ,-1.26613 
377 ,67.9926 ,1.37385 ,-0.11877 ,-1.16540 
378 ,68.2169 ,1.37602 ,-0.14957 ,-1.46760 
379 ,68.3926 ,1.37790 ,-0.15299 ,-1.50118 
380 ,68.5685 ,1.37962 ,-0.16326 ,-1.60191 
381 ,68.7448 ,1.38144 ,-0.18379 ,-1.80338 
382 ,68.9212 ,1.38315 ,-0.20433 ,-2.00485 
383 ,69.0971 ,1.38491 ,-0.20775 ,-2.03843 
384 ,69.3052 ,1.38689 ,-0.21459 ,-2.10559 
385 ,69.4812 ,1.38874 ,-0.23855 ,-2.34064 
386 ,69.6569 ,1.39051 ,-0.23513 ,-2.30706 
387 ,69.8332 ,1.39226 ,-0.23855 ,-2.34064 
388 ,70.0254 ,1.39421 ,-0.26593 ,-2.60926 
389 ,70.2176 ,1.39602 ,-0.28304 ,-2.77716 
390 ,70.4096 ,1.39803 ,-0.26935 ,-2.64284 
391 ,70.5857 ,1.39984 ,-0.29673 ,-2.91147 
392 ,70.7616 ,1.40154 ,-0.30699 ,-3.01220 
393 ,70.9376 ,1.40331 ,-0.30357 ,-2.97863 
394 ,71.0977 ,1.40501 ,-0.32068 ,-3.14652 
395 ,71.2900 ,1.40682 ,-0.34121 ,-3.34799 
396 ,71.4660 ,1.40863 ,-0.34464 ,-3.38156 
397 ,71.6581 ,1.41052 ,-0.37201 ,-3.65019 
398 ,71.8502 ,1.41244 ,-0.36517 ,-3.58303 
399 ,72.0261 ,1.41416 ,-0.38912 ,-3.81808 
400 ,72.2022 ,1.41599 ,-0.39597 ,-3.88524 
401 ,72.3784 ,1.41771 ,-0.40966 ,-4.01955 
402 ,72.5705 ,1.41959 ,-0.41308 ,-4.05313 
403 ,72.7626 ,1.42154 ,-0.43361 ,-4.25460 
404 ,72.9706 ,1.42346 ,-0.43361 ,-4.25460 
405 ,73.1627 ,1.42558 ,-0.45414 ,-4.45607 
406 ,73.3387 ,1.42734 ,-0.47126 ,-4.62396 
407 ,73.5308 ,1.42924 ,-0.47810 ,-4.69112 
408 ,73.7069 ,1.43101 ,-0.47810 ,-4.69112 
409 ,73.8829 ,1.43275 ,-0.49179 ,-4.82543 
410 ,74.0589 ,1.43448 ,-0.51574 ,-5.06048 
411 ,74.2350 ,1.43628 ,-0.51917 ,-5.09406 
412 ,74.4111 ,1.43807 ,-0.53628 ,-5.26195 
413 ,74.6028 ,1.43982 ,-0.53970 ,-5.29553 
414 ,74.7791 ,1.44170 ,-0.54312 ,-5.32911 
415 ,74.9553 ,1.44345 ,-0.55681 ,-5.46342 
416 ,75.1154 ,1.44517 ,-0.57050 ,-5.59773 
417 ,75.3076 ,1.44696 ,-0.59103 ,-5.79920 
418 ,75.4836 ,1.44878 ,-0.60472 ,-5.93352 
419 ,75.6757 ,1.45069 ,-0.60814 ,-5.96709 
420 ,75.8517 ,1.45244 ,-0.60814 ,-5.96709 
421 ,76.0279 ,1.45423 ,-0.63210 ,-6.20214 
422 ,76.2201 ,1.45611 ,-0.63210 ,-6.20214 
423 ,76.3957 ,1.45789 ,-0.64921 ,-6.37003 
424 ,76.5719 ,1.45964 ,-0.65263 ,-6.40361 
425 ,76.7641 ,1.46156 ,-0.68001 ,-6.67224 
426 ,76.9558 ,1.46344 ,-0.67659 ,-6.63866 
427 ,77.1483 ,1.46531 ,-0.69027 ,-6.77297 
428 ,77.3404 ,1.46734 ,-0.70054 ,-6.87371 
429 ,77.5164 ,1.46910 ,-0.70396 ,-6.90729 
430 ,77.6922 ,1.47085 ,-0.72107 ,-7.07518 
431 ,77.8686 ,1.47261 ,-0.73818 ,-7.24307 
432 ,78.0766 ,1.47458 ,-0.73476 ,-7.20949 
433 ,78.2686 ,1.47662 ,-0.75872 ,-7.44454 
434 ,78.4446 ,1.47831 ,-0.76556 ,-7.51170 
435 ,78.6209 ,1.48010 ,-0.77583 ,-7.61243 
436 ,78.7967 ,1.48187 ,-0.77925 ,-7.64601 
437 ,78.9729 ,1.48365 ,-0.78952 ,-7.74674 
438 ,79.1650 ,1.48557 ,-0.81347 ,-7.98179 
439 ,79.3571 ,1.48745 ,-0.81347 ,-7.98179 
440 ,79.5332 ,1.48923 ,-0.82716 ,-8.11611 
441 ,79.7255 ,1.49111 ,-0.84085 ,-8.25042 
442 ,79.9012 ,1.49292 ,-0.85454 ,-8.38473 
443 ,80.0770 ,1.49467 ,-0.83743 ,-8.21684 
444 ,80.2535 ,1.49647 ,-0.86481 ,-8.48547 
445 ,80.4294 ,1.49829 ,-0.88192 ,-8.65336 
446 ,80.6056 ,1.49996 ,-0.88876 ,-8.72051 
447 ,80.7812 ,1.50171 ,-0.89560 ,-8.78767 
448 ,80.9578 ,1.50345 ,-0.91272 ,-8.95556 
449 ,81.1495 ,1.50536 ,-0.92983 ,-9.12345 
450 ,81.3417 ,1.50730 ,-0.92298 ,-9.05630 
451 ,81.5338 ,1.50921 ,-0.93667 ,-9.19061 
452 ,81.7101 ,1.51102 ,-0.95720 ,-9.39208 
453 ,81.8861 ,1.51283 ,-0.97431 ,-9.55997 
454 ,82.0625 ,1.51450 ,-0.97431 ,-9.55997 
455 ,82.2539 ,1.51635 ,-0.97089 ,-9.52639 
456 ,82.4303 ,1.51818 ,-0.99143 ,-9.72786 
457 ,82.6064 ,1.51992 ,-1.00854 ,-9.89576 
458 ,82.7825 ,1.52173 ,-1.01538 ,-9.96291 
459 ,82.9585 ,1.52350 ,-1.01880 ,-9.99649 
460 ,83.1343 ,1.52519 ,-1.03249 ,-10.13080 
461 ,83.3102 ,1.52696 ,-1.04618 ,-10.26512 
462 ,83.4863 ,1.52874 ,-1.06329 ,-10.43301 
463 ,83.6628 ,1.53051 ,-1.06329 ,-10.43301 
