Data stamp = , 29-03-2022 05:56:22 092

Calibration Values: 
Slope = , 26.54 , g/V 
Offset Voltage at no contact = , -0.501760 , V 

No , Time , Stage Position ,   Mass , Force 
   ,  (s) ,      (mm)      ,   (g)  , (mN)  

1 ,0.0000 ,0.69945 ,5.30878 ,52.08979 
2 ,0.2161 ,0.69948 ,5.32247 ,52.22410 
3 ,0.5202 ,0.70031 ,5.31563 ,52.15694 
4 ,0.6965 ,0.70158 ,5.32589 ,52.25768 
5 ,0.8885 ,0.70310 ,5.31905 ,52.19052 
6 ,1.0641 ,0.70479 ,5.32589 ,52.25768 
7 ,1.2403 ,0.70652 ,5.33274 ,52.32484 
8 ,1.4324 ,0.70839 ,5.32247 ,52.22410 
9 ,1.6083 ,0.71028 ,5.31221 ,52.12337 
10 ,1.8004 ,0.71206 ,5.29167 ,51.92190 
11 ,1.9925 ,0.71406 ,5.27798 ,51.78758 
12 ,2.1687 ,0.71589 ,5.26087 ,51.61969 
13 ,2.3611 ,0.71766 ,5.24376 ,51.45180 
14 ,2.5368 ,0.71954 ,5.24034 ,51.41822 
15 ,2.7133 ,0.72132 ,5.22323 ,51.25033 
16 ,2.8888 ,0.72309 ,5.20270 ,51.04886 
17 ,3.0649 ,0.72480 ,5.19243 ,50.94813 
18 ,3.2249 ,0.72655 ,5.18901 ,50.91455 
19 ,3.4014 ,0.72817 ,5.17874 ,50.81381 
20 ,3.6257 ,0.73041 ,5.13768 ,50.41087 
21 ,3.8337 ,0.73236 ,5.14110 ,50.44445 
22 ,4.0256 ,0.73443 ,5.11714 ,50.20940 
23 ,4.2018 ,0.73614 ,5.10688 ,50.10867 
24 ,4.3777 ,0.73795 ,5.10345 ,50.07509 
25 ,4.5538 ,0.73974 ,5.08634 ,49.90720 
26 ,4.7622 ,0.74178 ,5.06239 ,49.67215 
27 ,4.9380 ,0.74353 ,5.03843 ,49.43710 
28 ,5.1142 ,0.74529 ,5.02132 ,49.26921 
29 ,5.2900 ,0.74710 ,5.00421 ,49.10132 
30 ,5.4662 ,0.74886 ,4.99737 ,49.03416 
31 ,5.6582 ,0.75074 ,4.97341 ,48.79911 
32 ,5.8506 ,0.75264 ,4.94946 ,48.56407 
33 ,6.0266 ,0.75447 ,4.93235 ,48.39618 
34 ,6.2026 ,0.75621 ,4.92550 ,48.32902 
35 ,6.4106 ,0.75824 ,4.88786 ,47.95966 
36 ,6.5865 ,0.76000 ,4.88786 ,47.95966 
37 ,6.7788 ,0.76186 ,4.87759 ,47.85892 
38 ,6.9550 ,0.76370 ,4.86390 ,47.72461 
39 ,7.1464 ,0.76564 ,4.82284 ,47.32167 
40 ,7.3231 ,0.76743 ,4.80915 ,47.18736 
41 ,7.5148 ,0.76931 ,4.80915 ,47.18736 
42 ,7.6912 ,0.77111 ,4.77493 ,46.85157 
43 ,7.8833 ,0.77288 ,4.75782 ,46.68368 
44 ,8.0754 ,0.77491 ,4.75097 ,46.61653 
45 ,8.2515 ,0.77669 ,4.70990 ,46.21359 
46 ,8.4434 ,0.77863 ,4.69279 ,46.04569 
47 ,8.6356 ,0.78055 ,4.68595 ,45.97854 
48 ,8.8275 ,0.78242 ,4.66884 ,45.81065 
49 ,9.0037 ,0.78417 ,4.65515 ,45.67633 
50 ,9.1955 ,0.78603 ,4.64146 ,45.54202 
51 ,9.3719 ,0.78787 ,4.62093 ,45.34055 
52 ,9.5640 ,0.78973 ,4.60382 ,45.17266 
53 ,9.7401 ,0.79155 ,4.59013 ,45.03835 
54 ,9.9163 ,0.79336 ,4.57644 ,44.90403 
55 ,10.1081 ,0.79514 ,4.55591 ,44.70256 
56 ,10.2999 ,0.79715 ,4.53880 ,44.53467 
57 ,10.4762 ,0.79897 ,4.53195 ,44.46751 
58 ,10.6843 ,0.80093 ,4.49773 ,44.13173 
59 ,10.8763 ,0.80289 ,4.48062 ,43.96384 
60 ,11.0525 ,0.80469 ,4.46351 ,43.79595 
61 ,11.2443 ,0.80657 ,4.44298 ,43.59448 
62 ,11.4205 ,0.80843 ,4.42929 ,43.46016 
63 ,11.5966 ,0.81012 ,4.42244 ,43.39301 
64 ,11.8048 ,0.81209 ,4.38138 ,42.99007 
65 ,11.9969 ,0.81409 ,4.38138 ,42.99007 
66 ,12.1729 ,0.81591 ,4.34716 ,42.65429 
67 ,12.3486 ,0.81769 ,4.32320 ,42.41924 
68 ,12.5249 ,0.81939 ,4.30609 ,42.25135 
69 ,12.7010 ,0.82114 ,4.29924 ,42.18419 
70 ,12.8772 ,0.82289 ,4.28898 ,42.08345 
71 ,13.0530 ,0.82469 ,4.26160 ,41.81483 
72 ,13.2292 ,0.82645 ,4.24791 ,41.68051 
73 ,13.4053 ,0.82831 ,4.22396 ,41.44547 
74 ,13.5815 ,0.82999 ,4.21711 ,41.37831 
75 ,13.7734 ,0.83187 ,4.20000 ,41.21042 
76 ,13.9496 ,0.83363 ,4.18289 ,41.04253 
77 ,14.1255 ,0.83543 ,4.16578 ,40.87464 
78 ,14.3180 ,0.83726 ,4.14867 ,40.70674 
79 ,14.4935 ,0.83909 ,4.12814 ,40.50527 
80 ,14.6859 ,0.84097 ,4.10418 ,40.27023 
81 ,14.8779 ,0.84292 ,4.09734 ,40.20307 
82 ,15.0700 ,0.84477 ,4.08707 ,40.10233 
83 ,15.2461 ,0.84659 ,4.05969 ,39.83371 
84 ,15.4383 ,0.84852 ,4.04600 ,39.69940 
85 ,15.6142 ,0.85029 ,4.03916 ,39.63224 
86 ,15.7904 ,0.85203 ,3.99467 ,39.19572 
87 ,15.9823 ,0.85392 ,3.99467 ,39.19572 
88 ,16.1585 ,0.85570 ,3.98441 ,39.09499 
89 ,16.3667 ,0.85777 ,3.95018 ,38.75920 
90 ,16.5425 ,0.85952 ,3.93650 ,38.62489 
91 ,16.7189 ,0.86130 ,3.92965 ,38.55773 
92 ,16.8948 ,0.86311 ,3.92623 ,38.52415 
93 ,17.0708 ,0.86484 ,3.90912 ,38.35626 
94 ,17.2306 ,0.86653 ,3.87147 ,37.98690 
95 ,17.4070 ,0.86819 ,3.86121 ,37.88617 
96 ,17.5830 ,0.86993 ,3.84067 ,37.68470 
97 ,17.7592 ,0.87175 ,3.82014 ,37.48323 
98 ,17.9512 ,0.87367 ,3.84067 ,37.68470 
99 ,18.1272 ,0.87541 ,3.79619 ,37.24818 
100 ,18.3034 ,0.87714 ,3.77223 ,37.01313 
101 ,18.4793 ,0.87895 ,3.76881 ,36.97955 
102 ,18.6555 ,0.88066 ,3.76539 ,36.94597 
103 ,18.8317 ,0.88246 ,3.74143 ,36.71093 
104 ,19.0396 ,0.88443 ,3.71405 ,36.44230 
105 ,19.2316 ,0.88630 ,3.70379 ,36.34157 
106 ,19.4077 ,0.88819 ,3.67641 ,36.07294 
107 ,19.5837 ,0.88993 ,3.65930 ,35.90505 
108 ,19.7435 ,0.89169 ,3.65246 ,35.83789 
109 ,19.9201 ,0.89329 ,3.63534 ,35.67000 
110 ,20.0960 ,0.89506 ,3.62850 ,35.60284 
111 ,20.3042 ,0.89701 ,3.59770 ,35.30064 
112 ,20.4802 ,0.89890 ,3.58401 ,35.16632 
113 ,20.6563 ,0.90070 ,3.56006 ,34.93128 
114 ,20.8483 ,0.90258 ,3.53610 ,34.69623 
115 ,21.0402 ,0.90447 ,3.53268 ,34.66265 
116 ,21.2167 ,0.90626 ,3.52584 ,34.59549 
117 ,21.3923 ,0.90804 ,3.50872 ,34.42760 
118 ,21.5685 ,0.90991 ,3.47450 ,34.09182 
119 ,21.7446 ,0.91154 ,3.46081 ,33.95751 
120 ,21.9209 ,0.91328 ,3.44028 ,33.75604 
121 ,22.0969 ,0.91505 ,3.43686 ,33.72246 
122 ,22.2728 ,0.91685 ,3.42659 ,33.62172 
123 ,22.4490 ,0.91861 ,3.41290 ,33.48741 
124 ,22.6250 ,0.92039 ,3.38895 ,33.25236 
125 ,22.8171 ,0.92225 ,3.38210 ,33.18520 
126 ,23.0091 ,0.92416 ,3.35473 ,32.91658 
127 ,23.1850 ,0.92593 ,3.33419 ,32.71511 
128 ,23.3614 ,0.92773 ,3.31366 ,32.51364 
129 ,23.5531 ,0.92961 ,3.31366 ,32.51364 
130 ,23.7296 ,0.93135 ,3.29313 ,32.31217 
131 ,23.9217 ,0.93335 ,3.27259 ,32.11070 
132 ,24.1139 ,0.93524 ,3.26575 ,32.04354 
133 ,24.3058 ,0.93714 ,3.23837 ,31.77492 
134 ,24.4974 ,0.93906 ,3.21784 ,31.57345 
135 ,24.6739 ,0.94084 ,3.21784 ,31.57345 
136 ,24.8501 ,0.94257 ,3.20415 ,31.43913 
137 ,25.0421 ,0.94455 ,3.16651 ,31.06977 
138 ,25.2337 ,0.94641 ,3.16651 ,31.06977 
139 ,25.4103 ,0.94818 ,3.14597 ,30.86830 
140 ,25.6184 ,0.95024 ,3.12202 ,30.63325 
141 ,25.8105 ,0.95213 ,3.11860 ,30.59968 
142 ,25.9865 ,0.95403 ,3.08095 ,30.23031 
143 ,26.1625 ,0.95568 ,3.06726 ,30.09600 
144 ,26.3387 ,0.95745 ,3.05015 ,29.92811 
145 ,26.5148 ,0.95926 ,3.04331 ,29.86095 
146 ,26.7069 ,0.96110 ,3.03304 ,29.76022 
147 ,26.8987 ,0.96305 ,2.99882 ,29.42444 
148 ,27.0909 ,0.96497 ,3.00909 ,29.52517 
149 ,27.2670 ,0.96680 ,2.98513 ,29.29012 
150 ,27.4590 ,0.96869 ,2.95433 ,28.98792 
151 ,27.6351 ,0.97040 ,2.95776 ,29.02150 
152 ,27.8114 ,0.97218 ,2.94407 ,28.88718 
153 ,27.9872 ,0.97391 ,2.93038 ,28.75287 
154 ,28.1634 ,0.97569 ,2.90300 ,28.48424 
155 ,28.3234 ,0.97744 ,2.88589 ,28.31635 
156 ,28.4995 ,0.97905 ,2.86878 ,28.14846 
157 ,28.6755 ,0.98079 ,2.86536 ,28.11488 
158 ,28.8515 ,0.98258 ,2.85851 ,28.04772 
159 ,29.0278 ,0.98438 ,2.82771 ,27.74552 
160 ,29.2197 ,0.98631 ,2.80718 ,27.54405 
161 ,29.4119 ,0.98819 ,2.80376 ,27.51047 
162 ,29.5879 ,0.98993 ,2.79007 ,27.37616 
163 ,29.7641 ,0.99174 ,2.75927 ,27.07395 
164 ,29.9402 ,0.99351 ,2.74216 ,26.90606 
165 ,30.1161 ,0.99531 ,2.73531 ,26.83891 
166 ,30.2923 ,0.99701 ,2.72505 ,26.73817 
167 ,30.4684 ,0.99876 ,2.72163 ,26.70459 
168 ,30.6445 ,1.00054 ,2.69425 ,26.43597 
169 ,30.8206 ,1.00226 ,2.66003 ,26.10018 
170 ,30.9967 ,1.00401 ,2.64634 ,25.96587 
171 ,31.1723 ,1.00580 ,2.63607 ,25.86514 
172 ,31.3648 ,1.00761 ,2.62923 ,25.79798 
173 ,31.5567 ,1.00963 ,2.60185 ,25.52935 
174 ,31.7329 ,1.01141 ,2.58816 ,25.39504 
175 ,31.9089 ,1.01313 ,2.59501 ,25.46220 
176 ,32.1010 ,1.01501 ,2.55394 ,25.05926 
177 ,32.2771 ,1.01679 ,2.52998 ,24.82421 
178 ,32.4532 ,1.01860 ,2.54025 ,24.92494 
179 ,32.6292 ,1.02033 ,2.53683 ,24.89136 
180 ,32.8053 ,1.02215 ,2.51630 ,24.68989 
181 ,32.9814 ,1.02385 ,2.48550 ,24.38769 
182 ,33.1735 ,1.02584 ,2.47523 ,24.28696 
183 ,33.3656 ,1.02764 ,2.45812 ,24.11906 
184 ,33.5575 ,1.02965 ,2.43759 ,23.91759 
185 ,33.7496 ,1.03154 ,2.43759 ,23.91759 
186 ,33.9419 ,1.03351 ,2.40336 ,23.58181 
187 ,34.1338 ,1.03529 ,2.39652 ,23.51465 
188 ,34.3096 ,1.03717 ,2.38625 ,23.41392 
189 ,34.4861 ,1.03893 ,2.37256 ,23.27961 
190 ,34.6780 ,1.04090 ,2.34519 ,23.01098 
191 ,34.8542 ,1.04260 ,2.33150 ,22.87667 
192 ,35.0303 ,1.04440 ,2.32123 ,22.77593 
193 ,35.2224 ,1.04616 ,2.30754 ,22.64162 
194 ,35.4147 ,1.04819 ,2.28359 ,22.40657 
195 ,35.6063 ,1.05015 ,2.27674 ,22.33941 
196 ,35.7822 ,1.05185 ,2.25279 ,22.10437 
197 ,35.9586 ,1.05358 ,2.23226 ,21.90290 
198 ,36.1347 ,1.05537 ,2.22883 ,21.86932 
199 ,36.3265 ,1.05730 ,2.22541 ,21.83574 
200 ,36.5028 ,1.05906 ,2.20146 ,21.60069 
201 ,36.6949 ,1.06094 ,2.17750 ,21.36564 
202 ,36.8869 ,1.06289 ,2.17066 ,21.29849 
203 ,37.0790 ,1.06480 ,2.15012 ,21.09702 
204 ,37.2550 ,1.06657 ,2.12617 ,20.86197 
205 ,37.4312 ,1.06837 ,2.14670 ,21.06344 
206 ,37.6230 ,1.07030 ,2.11248 ,20.72766 
207 ,37.7990 ,1.07203 ,2.08510 ,20.45903 
208 ,37.9750 ,1.07377 ,2.07141 ,20.32472 
209 ,38.1511 ,1.07555 ,2.07141 ,20.32472 
210 ,38.3275 ,1.07729 ,2.05088 ,20.12325 
211 ,38.5035 ,1.07904 ,2.04746 ,20.08967 
212 ,38.6956 ,1.08089 ,2.00982 ,19.72031 
213 ,38.8878 ,1.08296 ,2.00982 ,19.72031 
214 ,39.0798 ,1.08483 ,1.98586 ,19.48526 
215 ,39.2558 ,1.08658 ,1.96533 ,19.28379 
216 ,39.4319 ,1.08837 ,1.96190 ,19.25021 
217 ,39.6080 ,1.09008 ,1.96875 ,19.31737 
218 ,39.7840 ,1.09187 ,1.92426 ,18.88085 
219 ,39.9600 ,1.09359 ,1.92768 ,18.91443 
220 ,40.1363 ,1.09540 ,1.89688 ,18.61222 
221 ,40.3122 ,1.09719 ,1.88662 ,18.51149 
222 ,40.4883 ,1.09890 ,1.88662 ,18.51149 
223 ,40.6644 ,1.10067 ,1.87635 ,18.41075 
224 ,40.8405 ,1.10239 ,1.85240 ,18.17570 
225 ,41.0166 ,1.10420 ,1.83871 ,18.04139 
226 ,41.1924 ,1.10595 ,1.82160 ,17.87350 
227 ,41.3847 ,1.10787 ,1.82844 ,17.94066 
228 ,41.5607 ,1.10962 ,1.79080 ,17.57129 
229 ,41.7529 ,1.11155 ,1.77369 ,17.40340 
230 ,41.9448 ,1.11349 ,1.77026 ,17.36983 
231 ,42.1211 ,1.11528 ,1.76342 ,17.30267 
232 ,42.3132 ,1.11719 ,1.72920 ,16.96689 
233 ,42.5052 ,1.11904 ,1.73604 ,17.03404 
234 ,42.6809 ,1.12083 ,1.71209 ,16.79899 
235 ,42.8574 ,1.12261 ,1.69498 ,16.63110 
236 ,43.0334 ,1.12439 ,1.67444 ,16.42963 
237 ,43.2256 ,1.12628 ,1.67786 ,16.46321 
238 ,43.4014 ,1.12810 ,1.66075 ,16.29532 
239 ,43.5937 ,1.12991 ,1.63680 ,16.06027 
240 ,43.7697 ,1.13179 ,1.62995 ,15.99311 
241 ,43.9459 ,1.13345 ,1.61627 ,15.85880 
242 ,44.1538 ,1.13547 ,1.59916 ,15.69091 
243 ,44.3300 ,1.13735 ,1.57178 ,15.42228 
244 ,44.5061 ,1.13914 ,1.57178 ,15.42228 
245 ,44.6820 ,1.14089 ,1.56836 ,15.38871 
246 ,44.8581 ,1.14259 ,1.55467 ,15.25439 
247 ,45.0341 ,1.14437 ,1.52729 ,14.98577 
248 ,45.2264 ,1.14629 ,1.52729 ,14.98577 
249 ,45.4024 ,1.14804 ,1.51702 ,14.88503 
250 ,45.5945 ,1.14992 ,1.48622 ,14.58283 
251 ,45.7705 ,1.15178 ,1.45885 ,14.31420 
252 ,45.9467 ,1.15345 ,1.45200 ,14.24704 
253 ,46.1227 ,1.15523 ,1.44858 ,14.21346 
254 ,46.2987 ,1.15701 ,1.44516 ,14.17989 
255 ,46.4747 ,1.15876 ,1.40409 ,13.77695 
256 ,46.6669 ,1.16065 ,1.41778 ,13.91126 
257 ,46.8587 ,1.16259 ,1.40409 ,13.77695 
258 ,47.0350 ,1.16435 ,1.38014 ,13.54190 
259 ,47.2114 ,1.16612 ,1.36303 ,13.37401 
260 ,47.3873 ,1.16788 ,1.34591 ,13.20612 
261 ,47.5633 ,1.16963 ,1.35276 ,13.27327 
262 ,47.7393 ,1.17144 ,1.33907 ,13.13896 
263 ,47.9311 ,1.17329 ,1.31512 ,12.90391 
264 ,48.1077 ,1.17514 ,1.29458 ,12.70244 
265 ,48.2995 ,1.17686 ,1.29458 ,12.70244 
266 ,48.4755 ,1.17874 ,1.27747 ,12.53455 
267 ,48.6517 ,1.18053 ,1.25352 ,12.29950 
268 ,48.8278 ,1.18227 ,1.24325 ,12.19877 
269 ,49.0037 ,1.18413 ,1.24325 ,12.19877 
270 ,49.1959 ,1.18595 ,1.21587 ,11.93014 
271 ,49.3719 ,1.18769 ,1.20903 ,11.86298 
272 ,49.5480 ,1.18947 ,1.18850 ,11.66151 
273 ,49.7242 ,1.19123 ,1.19192 ,11.69509 
274 ,49.9162 ,1.19317 ,1.16112 ,11.39289 
275 ,50.0762 ,1.19486 ,1.15427 ,11.32573 
276 ,50.2363 ,1.19646 ,1.13374 ,11.12426 
277 ,50.4123 ,1.19811 ,1.11663 ,10.95637 
278 ,50.5886 ,1.19987 ,1.11663 ,10.95637 
279 ,50.7806 ,1.20171 ,1.09952 ,10.78848 
280 ,50.9887 ,1.20372 ,1.09267 ,10.72132 
281 ,51.1647 ,1.20569 ,1.06187 ,10.41912 
282 ,51.3564 ,1.20751 ,1.07556 ,10.55343 
283 ,51.5329 ,1.20929 ,1.04819 ,10.28480 
284 ,51.7089 ,1.21108 ,1.02765 ,10.08333 
285 ,51.9009 ,1.21295 ,1.03792 ,10.18407 
286 ,52.0768 ,1.21473 ,1.02081 ,10.01618 
287 ,52.2692 ,1.21658 ,1.00712 ,9.88186 
288 ,52.4451 ,1.21841 ,0.98317 ,9.64682 
289 ,52.6372 ,1.22032 ,0.97290 ,9.54608 
290 ,52.8135 ,1.22210 ,0.95237 ,9.34461 
291 ,52.9895 ,1.22392 ,0.93868 ,9.21030 
292 ,53.1654 ,1.22562 ,0.91814 ,9.00883 
293 ,53.3416 ,1.22744 ,0.93183 ,9.14314 
294 ,53.5336 ,1.22924 ,0.90103 ,8.84094 
295 ,53.7258 ,1.23126 ,0.89419 ,8.77378 
296 ,53.9180 ,1.23315 ,0.89077 ,8.74020 
297 ,54.1097 ,1.23502 ,0.87708 ,8.60589 
298 ,54.2858 ,1.23684 ,0.86339 ,8.47158 
299 ,54.4621 ,1.23854 ,0.85997 ,8.43800 
300 ,54.6539 ,1.24053 ,0.83601 ,8.20295 
301 ,54.8301 ,1.24226 ,0.81548 ,8.00148 
302 ,55.0222 ,1.24408 ,0.79495 ,7.80001 
303 ,55.1982 ,1.24595 ,0.80179 ,7.86717 
304 ,55.3741 ,1.24777 ,0.78810 ,7.73285 
305 ,55.5666 ,1.24958 ,0.76415 ,7.49780 
306 ,55.7586 ,1.25159 ,0.76415 ,7.49780 
307 ,55.9346 ,1.25332 ,0.74361 ,7.29633 
308 ,56.1107 ,1.25509 ,0.74019 ,7.26276 
309 ,56.3025 ,1.25692 ,0.71281 ,6.99413 
310 ,56.4629 ,1.25870 ,0.71624 ,7.02771 
311 ,56.6548 ,1.26051 ,0.69913 ,6.85982 
312 ,56.8470 ,1.26246 ,0.66833 ,6.55761 
313 ,57.0391 ,1.26433 ,0.67517 ,6.62477 
314 ,57.2311 ,1.26627 ,0.65121 ,6.38972 
315 ,57.4072 ,1.26802 ,0.64095 ,6.28899 
316 ,57.5993 ,1.27000 ,0.63753 ,6.25541 
317 ,57.7914 ,1.27179 ,0.59988 ,5.88605 
318 ,57.9675 ,1.27367 ,0.59304 ,5.81889 
319 ,58.1433 ,1.27538 ,0.59304 ,5.81889 
320 ,58.3355 ,1.27731 ,0.58619 ,5.75173 
321 ,58.5117 ,1.27906 ,0.57935 ,5.68458 
322 ,58.7037 ,1.28099 ,0.55539 ,5.44953 
323 ,58.8797 ,1.28282 ,0.53486 ,5.24806 
324 ,59.0719 ,1.28459 ,0.54171 ,5.31522 
325 ,59.2480 ,1.28645 ,0.50748 ,4.97943 
326 ,59.4241 ,1.28820 ,0.49037 ,4.81154 
327 ,59.6163 ,1.29014 ,0.49722 ,4.87870 
328 ,59.8241 ,1.29207 ,0.45957 ,4.50934 
329 ,60.0003 ,1.29395 ,0.46300 ,4.54291 
330 ,60.1764 ,1.29571 ,0.44588 ,4.37502 
331 ,60.3524 ,1.29747 ,0.44588 ,4.37502 
332 ,60.5445 ,1.29940 ,0.40140 ,3.93850 
333 ,60.7206 ,1.30128 ,0.41851 ,4.10640 
334 ,60.8967 ,1.30295 ,0.41851 ,4.10640 
335 ,61.0888 ,1.30486 ,0.38429 ,3.77061 
336 ,61.2808 ,1.30670 ,0.38429 ,3.77061 
337 ,61.4408 ,1.30846 ,0.36718 ,3.60272 
338 ,61.6170 ,1.31011 ,0.35691 ,3.50199 
339 ,61.8249 ,1.31215 ,0.32269 ,3.16620 
340 ,62.0011 ,1.31397 ,0.32953 ,3.23336 
341 ,62.2093 ,1.31597 ,0.32611 ,3.19978 
342 ,62.3849 ,1.31782 ,0.27820 ,2.72969 
343 ,62.5614 ,1.31954 ,0.28504 ,2.79684 
344 ,62.7535 ,1.32145 ,0.28847 ,2.83042 
345 ,62.9616 ,1.32356 ,0.26109 ,2.56179 
346 ,63.1535 ,1.32549 ,0.25082 ,2.46106 
347 ,63.3452 ,1.32738 ,0.21660 ,2.12528 
348 ,63.5214 ,1.32917 ,0.20633 ,2.02454 
349 ,63.6973 ,1.33091 ,0.20291 ,1.99096 
350 ,63.8735 ,1.33266 ,0.20633 ,2.02454 
351 ,64.0976 ,1.33484 ,0.17896 ,1.75592 
352 ,64.2577 ,1.33662 ,0.17211 ,1.68876 
353 ,64.4340 ,1.33827 ,0.16185 ,1.58802 
354 ,64.6258 ,1.34006 ,0.14816 ,1.45371 
355 ,64.8184 ,1.34206 ,0.13789 ,1.35298 
356 ,64.9943 ,1.34391 ,0.11736 ,1.15151 
357 ,65.1704 ,1.34564 ,0.10709 ,1.05077 
358 ,65.3466 ,1.34742 ,0.09340 ,0.91646 
359 ,65.5385 ,1.34929 ,0.07971 ,0.78214 
360 ,65.7303 ,1.35121 ,0.07287 ,0.71499 
361 ,65.9228 ,1.35303 ,0.04891 ,0.47994 
362 ,66.1149 ,1.35510 ,0.03865 ,0.37920 
363 ,66.2907 ,1.35688 ,0.04207 ,0.41278 
364 ,66.4669 ,1.35860 ,0.00785 ,0.07700 
365 ,66.6589 ,1.36051 ,-0.00584 ,-0.05731 
366 ,66.8350 ,1.36228 ,-0.01269 ,-0.12447 
367 ,67.0270 ,1.36420 ,-0.02295 ,-0.22520 
368 ,67.2031 ,1.36596 ,-0.04348 ,-0.42667 
369 ,67.3792 ,1.36770 ,-0.03322 ,-0.32594 
370 ,67.5713 ,1.36958 ,-0.05375 ,-0.52741 
371 ,67.7477 ,1.37137 ,-0.05033 ,-0.49383 
372 ,67.9393 ,1.37327 ,-0.07428 ,-0.72888 
373 ,68.1315 ,1.37525 ,-0.08113 ,-0.79604 
374 ,68.3076 ,1.37704 ,-0.08797 ,-0.86319 
375 ,68.4836 ,1.37875 ,-0.10851 ,-1.06466 
376 ,68.6596 ,1.38052 ,-0.14615 ,-1.43402 
377 ,68.8355 ,1.38229 ,-0.14615 ,-1.43402 
378 ,69.0120 ,1.38410 ,-0.14957 ,-1.46760 
379 ,69.2039 ,1.38595 ,-0.15642 ,-1.53476 
380 ,69.3799 ,1.38768 ,-0.18037 ,-1.76981 
381 ,69.5561 ,1.38947 ,-0.18722 ,-1.83696 
382 ,69.7318 ,1.39127 ,-0.18722 ,-1.83696 
383 ,69.9237 ,1.39312 ,-0.20433 ,-2.00485 
384 ,70.1002 ,1.39490 ,-0.22486 ,-2.20632 
385 ,70.2764 ,1.39667 ,-0.22486 ,-2.20632 
386 ,70.4681 ,1.39855 ,-0.22828 ,-2.23990 
387 ,70.6444 ,1.40038 ,-0.24881 ,-2.44137 
388 ,70.8366 ,1.40230 ,-0.26935 ,-2.64284 
389 ,71.0284 ,1.40417 ,-0.26935 ,-2.64284 
390 ,71.2208 ,1.40602 ,-0.27619 ,-2.71000 
391 ,71.3968 ,1.40794 ,-0.28646 ,-2.81073 
392 ,71.5730 ,1.40960 ,-0.30015 ,-2.94505 
393 ,71.7488 ,1.41137 ,-0.30699 ,-3.01220 
394 ,71.9410 ,1.41335 ,-0.33779 ,-3.31441 
395 ,72.1172 ,1.41505 ,-0.35490 ,-3.48230 
396 ,72.3090 ,1.41702 ,-0.34121 ,-3.34799 
397 ,72.5013 ,1.41883 ,-0.35832 ,-3.51588 
398 ,72.6932 ,1.42083 ,-0.36517 ,-3.58303 
399 ,72.8696 ,1.42262 ,-0.37544 ,-3.68377 
400 ,73.0452 ,1.42437 ,-0.38912 ,-3.81808 
401 ,73.2216 ,1.42612 ,-0.41308 ,-4.05313 
402 ,73.4138 ,1.42808 ,-0.41650 ,-4.08671 
403 ,73.5896 ,1.42979 ,-0.41992 ,-4.12029 
404 ,73.7657 ,1.43158 ,-0.42335 ,-4.15387 
405 ,73.9578 ,1.43354 ,-0.43361 ,-4.25460 
406 ,74.1338 ,1.43524 ,-0.45414 ,-4.45607 
407 ,74.3260 ,1.43715 ,-0.47126 ,-4.62396 
408 ,74.5019 ,1.43902 ,-0.49521 ,-4.85901 
409 ,74.6937 ,1.44082 ,-0.48494 ,-4.75828 
410 ,74.8702 ,1.44254 ,-0.49863 ,-4.89259 
411 ,75.0464 ,1.44437 ,-0.50548 ,-4.95975 
412 ,75.2224 ,1.44609 ,-0.51574 ,-5.06048 
413 ,75.4145 ,1.44799 ,-0.53628 ,-5.26195 
414 ,75.6065 ,1.44998 ,-0.53970 ,-5.29553 
415 ,75.8146 ,1.45193 ,-0.56708 ,-5.56415 
416 ,75.9907 ,1.45378 ,-0.57050 ,-5.59773 
417 ,76.1665 ,1.45557 ,-0.57734 ,-5.66489 
418 ,76.3428 ,1.45737 ,-0.59788 ,-5.86636 
419 ,76.5350 ,1.45928 ,-0.60814 ,-5.96709 
420 ,76.7269 ,1.46111 ,-0.60130 ,-5.89994 
421 ,76.9032 ,1.46292 ,-0.62183 ,-6.10141 
422 ,77.0791 ,1.46470 ,-0.64236 ,-6.30288 
423 ,77.2552 ,1.46645 ,-0.64579 ,-6.33646 
424 ,77.4471 ,1.46837 ,-0.65605 ,-6.43719 
425 ,77.6395 ,1.47032 ,-0.67659 ,-6.63866 
426 ,77.8314 ,1.47223 ,-0.67659 ,-6.63866 
427 ,78.0075 ,1.47401 ,-0.68001 ,-6.67224 
428 ,78.1836 ,1.47570 ,-0.69027 ,-6.77297 
429 ,78.3597 ,1.47745 ,-0.72107 ,-7.07518 
430 ,78.5357 ,1.47920 ,-0.72107 ,-7.07518 
431 ,78.7117 ,1.48101 ,-0.74161 ,-7.27665 
432 ,78.9039 ,1.48282 ,-0.73818 ,-7.24307 
433 ,79.0801 ,1.48465 ,-0.74503 ,-7.31023 
434 ,79.2721 ,1.48663 ,-0.75187 ,-7.37738 
435 ,79.4642 ,1.48847 ,-0.76898 ,-7.54527 
436 ,79.6563 ,1.49045 ,-0.78952 ,-7.74674 
437 ,79.8481 ,1.49239 ,-0.78610 ,-7.71317 
438 ,80.0243 ,1.49411 ,-0.78952 ,-7.74674 
439 ,80.2164 ,1.49604 ,-0.82032 ,-8.04895 
440 ,80.3927 ,1.49784 ,-0.84085 ,-8.25042 
441 ,80.5687 ,1.49952 ,-0.82716 ,-8.11611 
442 ,80.7607 ,1.50150 ,-0.83743 ,-8.21684 
443 ,80.9367 ,1.50325 ,-0.84769 ,-8.31758 
444 ,81.1129 ,1.50503 ,-0.85796 ,-8.41831 
445 ,81.2891 ,1.50678 ,-0.87165 ,-8.55262 
446 ,81.4649 ,1.50853 ,-0.87165 ,-8.55262 
447 ,81.6410 ,1.51030 ,-0.88192 ,-8.65336 
448 ,81.8331 ,1.51219 ,-0.91614 ,-8.98914 
449 ,82.0091 ,1.51395 ,-0.90929 ,-8.92198 
450 ,82.1853 ,1.51573 ,-0.91272 ,-8.95556 
451 ,82.3614 ,1.51752 ,-0.92298 ,-9.05630 
452 ,82.5533 ,1.51941 ,-0.95378 ,-9.35850 
453 ,82.7134 ,1.52111 ,-0.95720 ,-9.39208 
454 ,82.8895 ,1.52274 ,-0.97089 ,-9.52639 
455 ,83.0657 ,1.52452 ,-0.97774 ,-9.59355 
456 ,83.2573 ,1.52643 ,-0.98116 ,-9.62713 
457 ,83.4338 ,1.52819 ,-1.00511 ,-9.86218 
458 ,83.6097 ,1.52998 ,-1.00854 ,-9.89576 
459 ,83.7860 ,1.53175 ,-1.01538 ,-9.96291 
460 ,83.9620 ,1.53345 ,-1.01880 ,-9.99649 
461 ,84.1382 ,1.53524 ,-1.04276 ,-10.23154 
462 ,84.3301 ,1.53714 ,-1.04960 ,-10.29869 
