Data stamp = , 29-03-2022 08:25:37 952

Calibration Values: 
Slope = , 26.54 , g/V 
Offset Voltage at no contact = , -0.501760 , V 

No , Time , Stage Position ,   Mass , Force 
   ,  (s) ,      (mm)      ,   (g)  , (mN)  

1 ,0.0000 ,0.69957 ,5.27798 ,51.78758 
2 ,0.2126 ,0.69960 ,5.28483 ,51.85474 
3 ,0.5167 ,0.70037 ,5.26430 ,51.65327 
4 ,0.6928 ,0.70167 ,5.28483 ,51.85474 
5 ,0.8689 ,0.70310 ,5.26772 ,51.68685 
6 ,1.0610 ,0.70495 ,5.26087 ,51.61969 
7 ,1.2370 ,0.70670 ,5.27456 ,51.75401 
8 ,1.4128 ,0.70852 ,5.27114 ,51.72043 
9 ,1.5891 ,0.71024 ,5.26772 ,51.68685 
10 ,1.7652 ,0.71196 ,5.23692 ,51.38464 
11 ,1.9733 ,0.71406 ,5.23350 ,51.35107 
12 ,2.1650 ,0.71595 ,5.21981 ,51.21675 
13 ,2.3414 ,0.71774 ,5.20270 ,51.04886 
14 ,2.5174 ,0.71951 ,5.19585 ,50.98170 
15 ,2.7097 ,0.72145 ,5.18216 ,50.84739 
16 ,2.9016 ,0.72336 ,5.13768 ,50.41087 
17 ,3.0938 ,0.72528 ,5.15479 ,50.57876 
18 ,3.2857 ,0.72717 ,5.13083 ,50.34372 
19 ,3.4619 ,0.72888 ,5.10345 ,50.07509 
20 ,3.6698 ,0.73092 ,5.10003 ,50.04151 
21 ,3.8620 ,0.73295 ,5.07265 ,49.77289 
22 ,4.0380 ,0.73468 ,5.06239 ,49.67215 
23 ,4.2299 ,0.73655 ,5.04528 ,49.50426 
24 ,4.4059 ,0.73837 ,5.02474 ,49.30279 
25 ,4.5818 ,0.74015 ,5.01106 ,49.16848 
26 ,4.7579 ,0.74188 ,4.99052 ,48.96701 
27 ,4.9340 ,0.74366 ,4.99394 ,49.00058 
28 ,5.1264 ,0.74553 ,4.96999 ,48.76554 
29 ,5.3666 ,0.74787 ,4.93919 ,48.46333 
30 ,5.5746 ,0.74996 ,4.92208 ,48.29544 
31 ,5.7828 ,0.75214 ,4.90497 ,48.12755 
32 ,5.9588 ,0.75392 ,4.89128 ,47.99324 
33 ,6.1512 ,0.75583 ,4.88444 ,47.92608 
34 ,6.3429 ,0.75774 ,4.83995 ,47.48956 
35 ,6.5511 ,0.75969 ,4.84679 ,47.55672 
36 ,6.7428 ,0.76172 ,4.82284 ,47.32167 
37 ,6.9193 ,0.76348 ,4.80573 ,47.15378 
38 ,7.0951 ,0.76526 ,4.80230 ,47.12020 
39 ,7.2712 ,0.76700 ,4.78519 ,46.95231 
40 ,7.4475 ,0.76879 ,4.77150 ,46.81800 
41 ,7.6392 ,0.77065 ,4.74755 ,46.58295 
42 ,7.8158 ,0.77248 ,4.73044 ,46.41506 
43 ,8.0077 ,0.77434 ,4.69622 ,46.07927 
44 ,8.1838 ,0.77609 ,4.68595 ,45.97854 
45 ,8.3758 ,0.77806 ,4.67911 ,45.91138 
46 ,8.5680 ,0.77992 ,4.64488 ,45.57560 
47 ,8.7601 ,0.78194 ,4.62777 ,45.40771 
48 ,8.9360 ,0.78367 ,4.62777 ,45.40771 
49 ,9.1123 ,0.78542 ,4.61066 ,45.23981 
50 ,9.2883 ,0.78724 ,4.60382 ,45.17266 
51 ,9.4803 ,0.78911 ,4.56617 ,44.80330 
52 ,9.6723 ,0.79099 ,4.55933 ,44.73614 
53 ,9.8484 ,0.79279 ,4.54906 ,44.63541 
54 ,10.0246 ,0.79453 ,4.51484 ,44.29962 
55 ,10.2162 ,0.79644 ,4.50457 ,44.19889 
56 ,10.3927 ,0.79822 ,4.50115 ,44.16531 
57 ,10.5687 ,0.80001 ,4.47720 ,43.93026 
58 ,10.7449 ,0.80176 ,4.45324 ,43.69521 
59 ,10.9369 ,0.80364 ,4.44982 ,43.66163 
60 ,11.1289 ,0.80559 ,4.42244 ,43.39301 
61 ,11.3210 ,0.80744 ,4.40191 ,43.19154 
62 ,11.5131 ,0.80941 ,4.40191 ,43.19154 
63 ,11.7053 ,0.81130 ,4.35742 ,42.75502 
64 ,11.8973 ,0.81324 ,4.35058 ,42.68786 
65 ,12.0734 ,0.81504 ,4.33689 ,42.55355 
66 ,12.2492 ,0.81679 ,4.31978 ,42.38566 
67 ,12.4252 ,0.81856 ,4.28898 ,42.08345 
68 ,12.6178 ,0.82046 ,4.28898 ,42.08345 
69 ,12.8099 ,0.82240 ,4.25818 ,41.78125 
70 ,12.9857 ,0.82420 ,4.24449 ,41.64694 
71 ,13.1779 ,0.82606 ,4.23422 ,41.54620 
72 ,13.3536 ,0.82778 ,4.23422 ,41.54620 
73 ,13.5301 ,0.82957 ,4.20342 ,41.24400 
74 ,13.7220 ,0.83149 ,4.17262 ,40.94179 
75 ,13.8981 ,0.83323 ,4.15551 ,40.77390 
76 ,14.0901 ,0.83506 ,4.15209 ,40.74032 
77 ,14.2664 ,0.83702 ,4.12814 ,40.50527 
78 ,14.4420 ,0.83869 ,4.10760 ,40.30380 
79 ,14.6185 ,0.84043 ,4.10418 ,40.27023 
80 ,14.7946 ,0.84222 ,4.08365 ,40.06876 
81 ,14.9706 ,0.84403 ,4.06654 ,39.90087 
82 ,15.1467 ,0.84573 ,4.03232 ,39.56508 
83 ,15.3229 ,0.84751 ,4.01863 ,39.43077 
84 ,15.4828 ,0.84920 ,4.00494 ,39.29646 
85 ,15.6589 ,0.85089 ,4.00152 ,39.26288 
86 ,15.8350 ,0.85263 ,3.98783 ,39.12856 
87 ,16.0109 ,0.85438 ,3.98441 ,39.09499 
88 ,16.1871 ,0.85615 ,3.93307 ,38.59131 
89 ,16.3791 ,0.85809 ,3.93307 ,38.59131 
90 ,16.5552 ,0.85984 ,3.91596 ,38.42342 
91 ,16.7633 ,0.86182 ,3.89885 ,38.25553 
92 ,16.9393 ,0.86365 ,3.88174 ,38.08764 
93 ,17.1155 ,0.86538 ,3.88174 ,38.08764 
94 ,17.2916 ,0.86714 ,3.85436 ,37.81901 
95 ,17.4673 ,0.86894 ,3.83383 ,37.61754 
96 ,17.6437 ,0.87069 ,3.80987 ,37.38249 
97 ,17.8359 ,0.87258 ,3.80303 ,37.31534 
98 ,18.0279 ,0.87452 ,3.78250 ,37.11387 
99 ,18.2039 ,0.87633 ,3.76196 ,36.91240 
100 ,18.3800 ,0.87802 ,3.75854 ,36.87882 
101 ,18.5561 ,0.87981 ,3.73801 ,36.67735 
102 ,18.7318 ,0.88154 ,3.72090 ,36.50946 
103 ,18.9084 ,0.88334 ,3.69352 ,36.24083 
104 ,19.0841 ,0.88509 ,3.68668 ,36.17367 
105 ,19.2604 ,0.88684 ,3.66957 ,36.00578 
106 ,19.4363 ,0.88869 ,3.65588 ,35.87147 
107 ,19.6126 ,0.89041 ,3.65588 ,35.87147 
108 ,19.8043 ,0.89232 ,3.60797 ,35.40137 
109 ,19.9807 ,0.89402 ,3.61823 ,35.50211 
110 ,20.1407 ,0.89576 ,3.59770 ,35.30064 
111 ,20.3169 ,0.89742 ,3.59086 ,35.23348 
112 ,20.4928 ,0.89917 ,3.57375 ,35.06559 
113 ,20.6526 ,0.90090 ,3.54979 ,34.83054 
114 ,20.8448 ,0.90262 ,3.53610 ,34.69623 
115 ,21.0210 ,0.90447 ,3.52241 ,34.56192 
116 ,21.2131 ,0.90638 ,3.51215 ,34.46118 
117 ,21.3892 ,0.90810 ,3.49504 ,34.29329 
118 ,21.5813 ,0.90995 ,3.47108 ,34.05824 
119 ,21.7734 ,0.91189 ,3.46424 ,33.99108 
120 ,21.9652 ,0.91387 ,3.43001 ,33.65530 
121 ,22.1252 ,0.91556 ,3.42659 ,33.62172 
122 ,22.3016 ,0.91721 ,3.40948 ,33.45383 
123 ,22.4936 ,0.91919 ,3.39921 ,33.35310 
124 ,22.6695 ,0.92090 ,3.37184 ,33.08447 
125 ,22.8458 ,0.92271 ,3.35473 ,32.91658 
126 ,23.0219 ,0.92445 ,3.33762 ,32.74869 
127 ,23.1980 ,0.92622 ,3.32735 ,32.64795 
128 ,23.3739 ,0.92800 ,3.31708 ,32.54722 
129 ,23.5500 ,0.92970 ,3.27602 ,32.14428 
130 ,23.7259 ,0.93161 ,3.27259 ,32.11070 
131 ,23.9021 ,0.93324 ,3.26917 ,32.07712 
132 ,24.0782 ,0.93504 ,3.25891 ,31.97639 
133 ,24.2702 ,0.93696 ,3.23153 ,31.70776 
134 ,24.4304 ,0.93865 ,3.20415 ,31.43913 
135 ,24.6067 ,0.94031 ,3.18704 ,31.27124 
136 ,24.7825 ,0.94205 ,3.18020 ,31.20409 
137 ,24.9746 ,0.94397 ,3.16993 ,31.10335 
138 ,25.1507 ,0.94574 ,3.15624 ,30.96904 
139 ,25.3267 ,0.94751 ,3.11860 ,30.59968 
140 ,25.5031 ,0.94923 ,3.12202 ,30.63325 
141 ,25.6948 ,0.95122 ,3.10149 ,30.43178 
142 ,25.8710 ,0.95295 ,3.08095 ,30.23031 
143 ,26.0791 ,0.95492 ,3.06726 ,30.09600 
144 ,26.2548 ,0.95677 ,3.07411 ,30.16316 
145 ,26.4309 ,0.95853 ,3.02620 ,29.69306 
146 ,26.6073 ,0.96030 ,3.01251 ,29.55875 
147 ,26.7830 ,0.96206 ,2.99540 ,29.39086 
148 ,26.9594 ,0.96384 ,3.00224 ,29.45801 
149 ,27.1514 ,0.96573 ,2.96460 ,29.08865 
150 ,27.3274 ,0.96748 ,2.94064 ,28.85360 
151 ,27.5034 ,0.96927 ,2.93380 ,28.78645 
152 ,27.6637 ,0.97095 ,2.92696 ,28.71929 
153 ,27.8394 ,0.97260 ,2.91327 ,28.58498 
154 ,28.0159 ,0.97438 ,2.90985 ,28.55140 
155 ,28.2079 ,0.97621 ,2.87562 ,28.21562 
156 ,28.3841 ,0.97808 ,2.85167 ,27.98057 
157 ,28.5600 ,0.97981 ,2.85509 ,28.01415 
158 ,28.7519 ,0.98178 ,2.83456 ,27.81268 
159 ,28.9282 ,0.98349 ,2.80718 ,27.54405 
160 ,29.1201 ,0.98542 ,2.81060 ,27.57763 
161 ,29.2963 ,0.98723 ,2.80034 ,27.47689 
162 ,29.4721 ,0.98895 ,2.77638 ,27.24185 
163 ,29.6485 ,0.99070 ,2.75243 ,27.00680 
164 ,29.8245 ,0.99246 ,2.73874 ,26.87248 
165 ,30.0006 ,0.99432 ,2.72847 ,26.77175 
166 ,30.1767 ,0.99599 ,2.71136 ,26.60386 
167 ,30.3847 ,0.99799 ,2.68398 ,26.33523 
168 ,30.5608 ,0.99981 ,2.67714 ,26.26807 
169 ,30.7366 ,1.00156 ,2.67029 ,26.20092 
170 ,30.9129 ,1.00334 ,2.64292 ,25.93229 
171 ,31.0891 ,1.00504 ,2.62581 ,25.76440 
172 ,31.2650 ,1.00688 ,2.61554 ,25.66367 
173 ,31.4407 ,1.00859 ,2.60527 ,25.56293 
174 ,31.6173 ,1.01045 ,2.58816 ,25.39504 
175 ,31.8092 ,1.01235 ,2.56078 ,25.12641 
176 ,31.9855 ,1.01405 ,2.54710 ,24.99210 
177 ,32.1774 ,1.01599 ,2.54710 ,24.99210 
178 ,32.3536 ,1.01775 ,2.52314 ,24.75705 
179 ,32.5455 ,1.01963 ,2.49576 ,24.48842 
180 ,32.7376 ,1.02154 ,2.50603 ,24.58916 
181 ,32.9298 ,1.02347 ,2.46839 ,24.21980 
182 ,33.1218 ,1.02542 ,2.46496 ,24.18622 
183 ,33.2979 ,1.02718 ,2.45127 ,24.05191 
184 ,33.4735 ,1.02895 ,2.43416 ,23.88402 
185 ,33.6501 ,1.03071 ,2.40336 ,23.58181 
186 ,33.8422 ,1.03262 ,2.41021 ,23.64897 
187 ,34.0342 ,1.03456 ,2.37599 ,23.31318 
188 ,34.1943 ,1.03625 ,2.35888 ,23.14529 
189 ,34.3861 ,1.03804 ,2.35888 ,23.14529 
190 ,34.5624 ,1.03978 ,2.34519 ,23.01098 
191 ,34.7545 ,1.04169 ,2.34177 ,22.97740 
192 ,34.9145 ,1.04342 ,2.29043 ,22.47373 
193 ,35.0906 ,1.04510 ,2.30070 ,22.57446 
194 ,35.2667 ,1.04689 ,2.27674 ,22.33941 
195 ,35.4589 ,1.04876 ,2.28017 ,22.37299 
196 ,35.6507 ,1.05062 ,2.23226 ,21.90290 
197 ,35.8590 ,1.05260 ,2.22199 ,21.80216 
198 ,36.0348 ,1.05457 ,2.22199 ,21.80216 
199 ,36.2111 ,1.05639 ,2.19461 ,21.53353 
200 ,36.3871 ,1.05803 ,2.18777 ,21.46638 
201 ,36.5632 ,1.05982 ,2.17066 ,21.29849 
202 ,36.7393 ,1.06160 ,2.16723 ,21.26491 
203 ,36.9154 ,1.06333 ,2.15355 ,21.13059 
204 ,37.0915 ,1.06511 ,2.11590 ,20.76123 
205 ,37.2836 ,1.06697 ,2.12275 ,20.82839 
206 ,37.4754 ,1.06894 ,2.10221 ,20.62692 
207 ,37.6836 ,1.07088 ,2.08852 ,20.49261 
208 ,37.8599 ,1.07279 ,2.08852 ,20.49261 
209 ,38.0358 ,1.07451 ,2.06115 ,20.22398 
210 ,38.2116 ,1.07635 ,2.04061 ,20.02251 
211 ,38.3878 ,1.07805 ,2.02350 ,19.85462 
212 ,38.5801 ,1.07999 ,2.02350 ,19.85462 
213 ,38.7718 ,1.08191 ,2.00297 ,19.65315 
214 ,38.9482 ,1.08363 ,1.97217 ,19.35094 
215 ,39.1401 ,1.08551 ,1.97559 ,19.38452 
216 ,39.3160 ,1.08731 ,1.95848 ,19.21663 
217 ,39.4920 ,1.08910 ,1.93453 ,18.98158 
218 ,39.6685 ,1.09083 ,1.91742 ,18.81369 
219 ,39.8446 ,1.09263 ,1.90031 ,18.64580 
220 ,40.0366 ,1.09455 ,1.89688 ,18.61222 
221 ,40.2127 ,1.09627 ,1.86951 ,18.34360 
222 ,40.4048 ,1.09827 ,1.85582 ,18.20928 
223 ,40.5809 ,1.09994 ,1.85582 ,18.20928 
224 ,40.7568 ,1.10184 ,1.82844 ,17.94066 
225 ,40.9490 ,1.10363 ,1.81475 ,17.80634 
226 ,41.1570 ,1.10560 ,1.81475 ,17.80634 
227 ,41.3332 ,1.10752 ,1.79422 ,17.60487 
228 ,41.5089 ,1.10932 ,1.76000 ,17.26909 
229 ,41.6853 ,1.11107 ,1.75315 ,17.20193 
230 ,41.8772 ,1.11293 ,1.75657 ,17.23551 
231 ,42.0532 ,1.11470 ,1.71893 ,16.86615 
232 ,42.2292 ,1.11644 ,1.70866 ,16.76542 
233 ,42.4054 ,1.11822 ,1.68813 ,16.56395 
234 ,42.5815 ,1.12000 ,1.69155 ,16.59752 
235 ,42.7736 ,1.12185 ,1.67444 ,16.42963 
236 ,42.9657 ,1.12373 ,1.66760 ,16.36248 
237 ,43.1578 ,1.12567 ,1.64707 ,16.16101 
238 ,43.3338 ,1.12754 ,1.62995 ,15.99311 
239 ,43.5100 ,1.12926 ,1.61627 ,15.85880 
240 ,43.7019 ,1.13121 ,1.60942 ,15.79164 
241 ,43.8938 ,1.13312 ,1.58889 ,15.59018 
242 ,44.0702 ,1.13487 ,1.57178 ,15.42228 
243 ,44.2462 ,1.13668 ,1.54782 ,15.18724 
244 ,44.4224 ,1.13838 ,1.54440 ,15.15366 
245 ,44.5982 ,1.14023 ,1.54098 ,15.12008 
246 ,44.7745 ,1.14192 ,1.53413 ,15.05292 
247 ,44.9504 ,1.14367 ,1.51360 ,14.85145 
248 ,45.1427 ,1.14554 ,1.50676 ,14.78430 
249 ,45.3346 ,1.14750 ,1.48965 ,14.61640 
250 ,45.5104 ,1.14930 ,1.46569 ,14.38136 
251 ,45.6864 ,1.15105 ,1.45200 ,14.24704 
252 ,45.8624 ,1.15274 ,1.44174 ,14.14631 
253 ,46.0386 ,1.15450 ,1.43147 ,14.04557 
254 ,46.2306 ,1.15642 ,1.39725 ,13.70979 
255 ,46.4072 ,1.15828 ,1.39040 ,13.64263 
256 ,46.5990 ,1.16011 ,1.38356 ,13.57548 
257 ,46.7913 ,1.16196 ,1.35960 ,13.34043 
258 ,46.9992 ,1.16405 ,1.36303 ,13.37401 
259 ,47.1914 ,1.16597 ,1.34591 ,13.20612 
260 ,47.3676 ,1.16784 ,1.32538 ,13.00465 
261 ,47.5435 ,1.16960 ,1.30143 ,12.76960 
262 ,47.7193 ,1.17128 ,1.31169 ,12.87033 
263 ,47.8957 ,1.17308 ,1.29458 ,12.70244 
264 ,48.0719 ,1.17482 ,1.27405 ,12.50097 
265 ,48.2638 ,1.17680 ,1.25694 ,12.33308 
266 ,48.4400 ,1.17852 ,1.26378 ,12.40024 
267 ,48.6319 ,1.18040 ,1.22614 ,12.03088 
268 ,48.8076 ,1.18225 ,1.20903 ,11.86298 
269 ,48.9840 ,1.18397 ,1.20903 ,11.86298 
270 ,49.1601 ,1.18569 ,1.21245 ,11.89656 
271 ,49.3363 ,1.18747 ,1.18507 ,11.62794 
272 ,49.5280 ,1.18942 ,1.16454 ,11.42647 
273 ,49.7043 ,1.19119 ,1.15770 ,11.35931 
274 ,49.8805 ,1.19295 ,1.14401 ,11.22500 
275 ,50.0726 ,1.19483 ,1.12005 ,10.98995 
276 ,50.2646 ,1.19671 ,1.12690 ,11.05710 
277 ,50.4568 ,1.19871 ,1.12005 ,10.98995 
278 ,50.6328 ,1.20044 ,1.07899 ,10.58701 
279 ,50.8085 ,1.20224 ,1.06872 ,10.48627 
280 ,50.9849 ,1.20398 ,1.05503 ,10.35196 
281 ,51.1610 ,1.20576 ,1.04476 ,10.25123 
282 ,51.3371 ,1.20750 ,1.04819 ,10.28480 
283 ,51.5292 ,1.20939 ,1.02081 ,10.01618 
284 ,51.7213 ,1.21121 ,1.00028 ,9.81471 
285 ,51.8969 ,1.21312 ,1.02081 ,10.01618 
286 ,52.0734 ,1.21484 ,0.98659 ,9.68039 
287 ,52.2494 ,1.21664 ,0.97290 ,9.54608 
288 ,52.4253 ,1.21839 ,0.95579 ,9.37819 
289 ,52.6016 ,1.22015 ,0.93868 ,9.21030 
290 ,52.7776 ,1.22191 ,0.94210 ,9.24388 
291 ,52.9537 ,1.22378 ,0.91472 ,8.97525 
292 ,53.1295 ,1.22538 ,0.90103 ,8.84094 
293 ,53.3058 ,1.22722 ,0.88392 ,8.67305 
294 ,53.4819 ,1.22895 ,0.89077 ,8.74020 
295 ,53.6578 ,1.23066 ,0.87708 ,8.60589 
296 ,53.8339 ,1.23245 ,0.85654 ,8.40442 
297 ,53.9941 ,1.23416 ,0.84286 ,8.27011 
298 ,54.1701 ,1.23580 ,0.82575 ,8.10221 
299 ,54.3463 ,1.23755 ,0.81890 ,8.03506 
300 ,54.5379 ,1.23949 ,0.82575 ,8.10221 
301 ,54.7304 ,1.24130 ,0.80863 ,7.93432 
302 ,54.9066 ,1.24318 ,0.77099 ,7.56496 
303 ,55.0826 ,1.24496 ,0.76415 ,7.49780 
304 ,55.2747 ,1.24687 ,0.76757 ,7.53138 
305 ,55.4667 ,1.24873 ,0.74361 ,7.29633 
306 ,55.6589 ,1.25071 ,0.73335 ,7.19560 
307 ,55.8509 ,1.25267 ,0.70939 ,6.96055 
308 ,56.0426 ,1.25452 ,0.69913 ,6.85982 
309 ,56.2351 ,1.25637 ,0.69913 ,6.85982 
310 ,56.4271 ,1.25842 ,0.66490 ,6.52403 
311 ,56.6031 ,1.26009 ,0.66833 ,6.55761 
312 ,56.7793 ,1.26194 ,0.65121 ,6.38972 
313 ,56.9554 ,1.26369 ,0.66148 ,6.49046 
314 ,57.1475 ,1.26561 ,0.61357 ,6.02036 
315 ,57.3396 ,1.26751 ,0.63753 ,6.25541 
316 ,57.5157 ,1.26930 ,0.61015 ,5.98678 
317 ,57.7079 ,1.27122 ,0.57935 ,5.68458 
318 ,57.8998 ,1.27310 ,0.58619 ,5.75173 
319 ,58.0757 ,1.27487 ,0.58277 ,5.71815 
320 ,58.2679 ,1.27675 ,0.54171 ,5.31522 
321 ,58.4598 ,1.27870 ,0.54513 ,5.34879 
322 ,58.6681 ,1.28067 ,0.52802 ,5.18090 
323 ,58.8442 ,1.28255 ,0.51433 ,5.04659 
324 ,59.0361 ,1.28443 ,0.50064 ,4.91228 
325 ,59.2123 ,1.28622 ,0.48695 ,4.77796 
326 ,59.4045 ,1.28813 ,0.46984 ,4.61007 
327 ,59.5804 ,1.28989 ,0.46642 ,4.57649 
328 ,59.7720 ,1.29176 ,0.45615 ,4.47576 
329 ,59.9321 ,1.29354 ,0.43220 ,4.24071 
330 ,60.1086 ,1.29517 ,0.43220 ,4.24071 
331 ,60.3328 ,1.29741 ,0.41509 ,4.07282 
332 ,60.5249 ,1.29934 ,0.40824 ,4.00566 
333 ,60.7170 ,1.30122 ,0.39797 ,3.90493 
334 ,60.9092 ,1.30314 ,0.36033 ,3.53557 
335 ,61.1010 ,1.30505 ,0.37060 ,3.63630 
336 ,61.2767 ,1.30682 ,0.35006 ,3.43483 
337 ,61.4532 ,1.30864 ,0.34322 ,3.36767 
338 ,61.6292 ,1.31037 ,0.31584 ,3.09905 
339 ,61.8214 ,1.31227 ,0.31242 ,3.06547 
340 ,61.9975 ,1.31406 ,0.29189 ,2.86400 
341 ,62.1894 ,1.31601 ,0.28162 ,2.76326 
342 ,62.3655 ,1.31775 ,0.25767 ,2.52822 
343 ,62.5412 ,1.31951 ,0.26451 ,2.59537 
344 ,62.7179 ,1.32127 ,0.25424 ,2.49464 
345 ,62.8938 ,1.32305 ,0.24055 ,2.36032 
346 ,63.0697 ,1.32483 ,0.22002 ,2.15885 
347 ,63.2619 ,1.32667 ,0.21318 ,2.09170 
348 ,63.4378 ,1.32846 ,0.19607 ,1.92381 
349 ,63.6300 ,1.33043 ,0.18580 ,1.82307 
350 ,63.8221 ,1.33229 ,0.17553 ,1.72234 
351 ,64.0144 ,1.33419 ,0.16185 ,1.58802 
352 ,64.2063 ,1.33610 ,0.14816 ,1.45371 
353 ,64.3980 ,1.33805 ,0.12078 ,1.18508 
354 ,64.5740 ,1.33979 ,0.12420 ,1.21866 
355 ,64.7666 ,1.34164 ,0.09682 ,0.95004 
356 ,64.9425 ,1.34352 ,0.08656 ,0.84930 
357 ,65.1189 ,1.34522 ,0.09340 ,0.91646 
358 ,65.3107 ,1.34719 ,0.05576 ,0.54710 
359 ,65.4868 ,1.34892 ,0.05234 ,0.51352 
360 ,65.6790 ,1.35089 ,0.04207 ,0.41278 
361 ,65.8550 ,1.35264 ,0.04891 ,0.47994 
362 ,66.0470 ,1.35452 ,0.02154 ,0.21131 
363 ,66.2232 ,1.35631 ,0.00785 ,0.07700 
364 ,66.4153 ,1.35825 ,0.00443 ,0.04342 
365 ,66.6072 ,1.36005 ,-0.01953 ,-0.19163 
366 ,66.7993 ,1.36203 ,-0.02637 ,-0.25878 
367 ,66.9915 ,1.36391 ,-0.03664 ,-0.35952 
368 ,67.1835 ,1.36590 ,-0.06060 ,-0.59457 
369 ,67.3597 ,1.36764 ,-0.06402 ,-0.62814 
370 ,67.5352 ,1.36940 ,-0.07086 ,-0.69530 
371 ,67.7119 ,1.37120 ,-0.08113 ,-0.79604 
372 ,67.9039 ,1.37311 ,-0.10508 ,-1.03108 
373 ,68.1119 ,1.37509 ,-0.09140 ,-0.89677 
374 ,68.2880 ,1.37691 ,-0.13931 ,-1.36687 
375 ,68.4798 ,1.37878 ,-0.14273 ,-1.40045 
376 ,68.6561 ,1.38061 ,-0.13246 ,-1.29971 
377 ,68.8480 ,1.38258 ,-0.17353 ,-1.70265 
378 ,69.0563 ,1.38446 ,-0.17353 ,-1.70265 
379 ,69.2482 ,1.38647 ,-0.19406 ,-1.90412 
380 ,69.4404 ,1.38850 ,-0.19064 ,-1.87054 
381 ,69.6000 ,1.39017 ,-0.19406 ,-1.90412 
382 ,69.7765 ,1.39182 ,-0.21117 ,-2.07201 
383 ,69.9687 ,1.39360 ,-0.22144 ,-2.17275 
384 ,70.1607 ,1.39557 ,-0.25224 ,-2.47495 
385 ,70.3368 ,1.39746 ,-0.24197 ,-2.37422 
386 ,70.5288 ,1.39928 ,-0.27277 ,-2.67642 
387 ,70.7209 ,1.40124 ,-0.27277 ,-2.67642 
388 ,70.9132 ,1.40320 ,-0.27961 ,-2.74358 
389 ,71.1049 ,1.40514 ,-0.30015 ,-2.94505 
390 ,71.2810 ,1.40685 ,-0.30699 ,-3.01220 
391 ,71.4572 ,1.40861 ,-0.31041 ,-3.04578 
392 ,71.6332 ,1.41046 ,-0.34121 ,-3.34799 
393 ,71.8092 ,1.41214 ,-0.35490 ,-3.48230 
394 ,71.9853 ,1.41387 ,-0.36517 ,-3.58303 
395 ,72.1775 ,1.41570 ,-0.37886 ,-3.71735 
396 ,72.3535 ,1.41758 ,-0.37201 ,-3.65019 
397 ,72.5454 ,1.41950 ,-0.40623 ,-3.98597 
398 ,72.7213 ,1.42125 ,-0.41992 ,-4.12029 
399 ,72.8978 ,1.42306 ,-0.40623 ,-3.98597 
400 ,73.0735 ,1.42479 ,-0.40281 ,-3.95240 
401 ,73.2499 ,1.42654 ,-0.43019 ,-4.22102 
402 ,73.4260 ,1.42833 ,-0.45414 ,-4.45607 
403 ,73.6020 ,1.43015 ,-0.45072 ,-4.42249 
404 ,73.7777 ,1.43182 ,-0.47126 ,-4.62396 
405 ,73.9540 ,1.43354 ,-0.46783 ,-4.59038 
406 ,74.1303 ,1.43533 ,-0.49863 ,-4.89259 
407 ,74.3062 ,1.43714 ,-0.50548 ,-4.95975 
408 ,74.4824 ,1.43884 ,-0.50206 ,-4.92617 
409 ,74.6582 ,1.44056 ,-0.51574 ,-5.06048 
410 ,74.8342 ,1.44237 ,-0.51917 ,-5.09406 
411 ,75.0264 ,1.44419 ,-0.53628 ,-5.26195 
412 ,75.2189 ,1.44620 ,-0.54654 ,-5.36268 
413 ,75.4265 ,1.44815 ,-0.57734 ,-5.66489 
414 ,75.6028 ,1.45002 ,-0.58761 ,-5.76562 
415 ,75.7789 ,1.45186 ,-0.58419 ,-5.73205 
416 ,75.9549 ,1.45356 ,-0.58419 ,-5.73205 
417 ,76.1310 ,1.45536 ,-0.60472 ,-5.93352 
418 ,76.3232 ,1.45728 ,-0.62868 ,-6.16856 
419 ,76.4992 ,1.45906 ,-0.63210 ,-6.20214 
420 ,76.6912 ,1.46088 ,-0.64236 ,-6.30288 
421 ,76.8673 ,1.46266 ,-0.65947 ,-6.47077 
422 ,77.0594 ,1.46451 ,-0.67316 ,-6.60508 
423 ,77.2354 ,1.46637 ,-0.65947 ,-6.47077 
424 ,77.4115 ,1.46815 ,-0.67659 ,-6.63866 
425 ,77.5876 ,1.46990 ,-0.69027 ,-6.77297 
426 ,77.7638 ,1.47164 ,-0.71081 ,-6.97444 
427 ,77.9554 ,1.47357 ,-0.70054 ,-6.87371 
428 ,78.1319 ,1.47535 ,-0.71765 ,-7.04160 
429 ,78.3240 ,1.47725 ,-0.73134 ,-7.17591 
430 ,78.5000 ,1.47907 ,-0.75530 ,-7.41096 
431 ,78.7080 ,1.48102 ,-0.74503 ,-7.31023 
432 ,78.8840 ,1.48284 ,-0.78267 ,-7.67959 
433 ,79.0601 ,1.48459 ,-0.77583 ,-7.61243 
434 ,79.2363 ,1.48639 ,-0.77925 ,-7.64601 
435 ,79.4283 ,1.48830 ,-0.79294 ,-7.78032 
436 ,79.6044 ,1.49002 ,-0.81689 ,-8.01537 
437 ,79.7804 ,1.49178 ,-0.78952 ,-7.74674 
438 ,79.9726 ,1.49363 ,-0.79636 ,-7.81390 
439 ,80.1487 ,1.49547 ,-0.81689 ,-8.01537 
440 ,80.3407 ,1.49738 ,-0.82716 ,-8.11611 
441 ,80.5169 ,1.49921 ,-0.83058 ,-8.14968 
442 ,80.6929 ,1.50099 ,-0.83058 ,-8.14968 
443 ,80.8850 ,1.50275 ,-0.85454 ,-8.38473 
444 ,81.0607 ,1.50462 ,-0.86138 ,-8.45189 
445 ,81.2371 ,1.50638 ,-0.86823 ,-8.51904 
446 ,81.4292 ,1.50832 ,-0.88192 ,-8.65336 
447 ,81.6211 ,1.51023 ,-0.88192 ,-8.65336 
448 ,81.7972 ,1.51195 ,-0.89560 ,-8.78767 
449 ,81.9570 ,1.51366 ,-0.89218 ,-8.75409 
450 ,82.1330 ,1.51532 ,-0.91956 ,-9.02272 
451 ,82.3092 ,1.51714 ,-0.94351 ,-9.25777 
452 ,82.4856 ,1.51889 ,-0.95036 ,-9.32492 
453 ,82.6616 ,1.52071 ,-0.94694 ,-9.29135 
454 ,82.8378 ,1.52242 ,-0.95378 ,-9.35850 
455 ,83.0299 ,1.52428 ,-0.97431 ,-9.55997 
456 ,83.2059 ,1.52606 ,-1.00169 ,-9.82860 
457 ,83.3819 ,1.52780 ,-0.99485 ,-9.76144 
458 ,83.5737 ,1.52972 ,-1.00169 ,-9.82860 
459 ,83.7661 ,1.53157 ,-1.00511 ,-9.86218 
460 ,83.9582 ,1.53357 ,-1.03591 ,-10.16438 
461 ,84.1343 ,1.53537 ,-1.03591 ,-10.16438 
462 ,84.3102 ,1.53711 ,-1.03934 ,-10.19796 
