Data stamp = , 29-03-2022 09:30:32 414

Calibration Values: 
Slope = , 26.54 , g/V 
Offset Voltage at no contact = , -0.501760 , V 

No , Time , Stage Position ,   Mass , Force 
   ,  (s) ,      (mm)      ,   (g)  , (mN)  

1 ,0.0000 ,0.69957 ,5.25061 ,51.51896 
2 ,0.2280 ,0.69966 ,5.24034 ,51.41822 
3 ,0.5962 ,0.70066 ,5.26087 ,51.61969 
4 ,0.7883 ,0.70240 ,5.25061 ,51.51896 
5 ,0.9643 ,0.70398 ,5.26430 ,51.65327 
6 ,1.1565 ,0.70585 ,5.25403 ,51.55254 
7 ,1.3644 ,0.70777 ,5.25403 ,51.55254 
8 ,1.5566 ,0.70987 ,5.25061 ,51.51896 
9 ,1.7648 ,0.71178 ,5.25403 ,51.55254 
10 ,1.9409 ,0.71369 ,5.25061 ,51.51896 
11 ,2.1328 ,0.71562 ,5.21981 ,51.21675 
12 ,2.3246 ,0.71751 ,5.21639 ,51.18317 
13 ,2.5006 ,0.71927 ,5.20612 ,51.08244 
14 ,2.6770 ,0.72108 ,5.16848 ,50.71308 
15 ,2.8693 ,0.72295 ,5.15136 ,50.54519 
16 ,3.0611 ,0.72490 ,5.15479 ,50.57876 
17 ,3.2373 ,0.72666 ,5.13768 ,50.41087 
18 ,3.4133 ,0.72846 ,5.12741 ,50.31014 
19 ,3.6054 ,0.73032 ,5.10688 ,50.10867 
20 ,3.7973 ,0.73222 ,5.07950 ,49.84004 
21 ,3.9896 ,0.73417 ,5.07265 ,49.77289 
22 ,4.1816 ,0.73612 ,5.05212 ,49.57142 
23 ,4.3737 ,0.73800 ,5.02817 ,49.33637 
24 ,4.5496 ,0.73978 ,5.00763 ,49.13490 
25 ,4.7261 ,0.74155 ,5.01106 ,49.16848 
26 ,4.9179 ,0.74344 ,4.98710 ,48.93343 
27 ,5.1102 ,0.74539 ,4.96315 ,48.69838 
28 ,5.2863 ,0.74711 ,4.95288 ,48.59764 
29 ,5.4780 ,0.74904 ,4.93577 ,48.42975 
30 ,5.6544 ,0.75082 ,4.92208 ,48.29544 
31 ,5.8305 ,0.75261 ,4.90497 ,48.12755 
32 ,6.0224 ,0.75453 ,4.90155 ,48.09397 
33 ,6.1984 ,0.75621 ,4.87417 ,47.82534 
34 ,6.3907 ,0.75809 ,4.85706 ,47.65745 
35 ,6.5829 ,0.76014 ,4.83995 ,47.48956 
36 ,6.7748 ,0.76202 ,4.80573 ,47.15378 
37 ,6.9512 ,0.76380 ,4.80230 ,47.12020 
38 ,7.1429 ,0.76568 ,4.78177 ,46.91873 
39 ,7.3192 ,0.76745 ,4.75782 ,46.68368 
40 ,7.5107 ,0.76936 ,4.73386 ,46.44863 
41 ,7.7030 ,0.77121 ,4.74070 ,46.51579 
42 ,7.8953 ,0.77325 ,4.71333 ,46.24716 
43 ,8.0873 ,0.77514 ,4.68595 ,45.97854 
44 ,8.2635 ,0.77691 ,4.67568 ,45.87780 
45 ,8.4552 ,0.77883 ,4.66199 ,45.74349 
46 ,8.6472 ,0.78077 ,4.61751 ,45.30697 
47 ,8.8234 ,0.78247 ,4.62435 ,45.37413 
48 ,9.0316 ,0.78454 ,4.58671 ,45.00477 
49 ,9.2237 ,0.78648 ,4.60382 ,45.17266 
50 ,9.3998 ,0.78820 ,4.56617 ,44.80330 
51 ,9.5757 ,0.79000 ,4.54906 ,44.63541 
52 ,9.7681 ,0.79196 ,4.52853 ,44.43394 
53 ,9.9599 ,0.79390 ,4.52511 ,44.40036 
54 ,10.1360 ,0.79558 ,4.48404 ,43.99742 
55 ,10.3280 ,0.79744 ,4.48404 ,43.99742 
56 ,10.5043 ,0.79928 ,4.47035 ,43.86310 
57 ,10.6962 ,0.80115 ,4.43613 ,43.52732 
58 ,10.8886 ,0.80314 ,4.43271 ,43.49374 
59 ,11.0805 ,0.80496 ,4.42244 ,43.39301 
60 ,11.2726 ,0.80698 ,4.39507 ,43.12438 
61 ,11.4483 ,0.80871 ,4.37795 ,42.95649 
62 ,11.6247 ,0.81049 ,4.37795 ,42.95649 
63 ,11.8488 ,0.81262 ,4.34031 ,42.58713 
64 ,12.0250 ,0.81453 ,4.34031 ,42.58713 
65 ,12.2010 ,0.81633 ,4.31293 ,42.31850 
66 ,12.3930 ,0.81818 ,4.28556 ,42.04988 
67 ,12.5690 ,0.81990 ,4.26845 ,41.88198 
68 ,12.7451 ,0.82171 ,4.27187 ,41.91556 
69 ,12.9051 ,0.82340 ,4.25476 ,41.74767 
70 ,13.0812 ,0.82505 ,4.23422 ,41.54620 
71 ,13.2574 ,0.82686 ,4.21027 ,41.31115 
72 ,13.4494 ,0.82875 ,4.18631 ,41.07611 
73 ,13.6254 ,0.83052 ,4.18289 ,41.04253 
74 ,13.8175 ,0.83242 ,4.15894 ,40.80748 
75 ,14.0096 ,0.83432 ,4.13840 ,40.60601 
76 ,14.1856 ,0.83610 ,4.13840 ,40.60601 
77 ,14.3619 ,0.83789 ,4.11787 ,40.40454 
78 ,14.5537 ,0.83977 ,4.09049 ,40.13591 
79 ,14.7460 ,0.84167 ,4.06996 ,39.93444 
80 ,14.9537 ,0.84372 ,4.04600 ,39.69940 
81 ,15.1301 ,0.84554 ,4.03916 ,39.63224 
82 ,15.3221 ,0.84745 ,4.02547 ,39.49793 
83 ,15.4982 ,0.84916 ,4.00836 ,39.33003 
84 ,15.6743 ,0.85095 ,3.98098 ,39.06141 
85 ,15.8664 ,0.85289 ,3.99125 ,39.16214 
86 ,16.0746 ,0.85480 ,3.96729 ,38.92709 
87 ,16.2663 ,0.85685 ,3.95361 ,38.79278 
88 ,16.4426 ,0.85866 ,3.92965 ,38.55773 
89 ,16.6187 ,0.86044 ,3.91938 ,38.45700 
90 ,16.8107 ,0.86238 ,3.88516 ,38.12122 
91 ,16.9867 ,0.86410 ,3.87147 ,37.98690 
92 ,17.1949 ,0.86615 ,3.84752 ,37.75185 
93 ,17.3713 ,0.86796 ,3.84067 ,37.68470 
94 ,17.5468 ,0.86968 ,3.82699 ,37.55038 
95 ,17.7228 ,0.87149 ,3.81672 ,37.44965 
96 ,17.8990 ,0.87321 ,3.78592 ,37.14744 
97 ,18.0911 ,0.87512 ,3.76196 ,36.91240 
98 ,18.2673 ,0.87689 ,3.76196 ,36.91240 
99 ,18.4433 ,0.87866 ,3.74828 ,36.77808 
100 ,18.6194 ,0.88041 ,3.72774 ,36.57661 
101 ,18.7950 ,0.88227 ,3.70037 ,36.30799 
102 ,18.9716 ,0.88389 ,3.67983 ,36.10652 
103 ,19.1478 ,0.88571 ,3.68325 ,36.14010 
104 ,19.3235 ,0.88751 ,3.65930 ,35.90505 
105 ,19.4999 ,0.88921 ,3.64903 ,35.80431 
106 ,19.7080 ,0.89119 ,3.62166 ,35.53569 
107 ,19.8839 ,0.89307 ,3.62508 ,35.56926 
108 ,20.0761 ,0.89488 ,3.59770 ,35.30064 
109 ,20.2682 ,0.89681 ,3.57375 ,35.06559 
110 ,20.4601 ,0.89886 ,3.56348 ,34.96485 
111 ,20.6359 ,0.90055 ,3.54295 ,34.76338 
112 ,20.8120 ,0.90231 ,3.52584 ,34.59549 
113 ,20.9880 ,0.90408 ,3.50872 ,34.42760 
114 ,21.1642 ,0.90587 ,3.50188 ,34.36045 
115 ,21.3400 ,0.90761 ,3.48819 ,34.22613 
116 ,21.5163 ,0.90944 ,3.48135 ,34.15898 
117 ,21.7407 ,0.91147 ,3.45055 ,33.85677 
118 ,21.9323 ,0.91354 ,3.42659 ,33.62172 
119 ,22.1088 ,0.91527 ,3.41975 ,33.55457 
120 ,22.2848 ,0.91707 ,3.40606 ,33.42025 
121 ,22.4610 ,0.91883 ,3.37868 ,33.15163 
122 ,22.6209 ,0.92058 ,3.35473 ,32.91658 
123 ,22.7970 ,0.92221 ,3.34104 ,32.78227 
124 ,22.9887 ,0.92394 ,3.33762 ,32.74869 
125 ,23.1651 ,0.92585 ,3.33419 ,32.71511 
126 ,23.3411 ,0.92759 ,3.30682 ,32.44648 
127 ,23.5335 ,0.92950 ,3.27602 ,32.14428 
128 ,23.7256 ,0.93147 ,3.28286 ,32.21143 
129 ,23.9016 ,0.93327 ,3.25891 ,31.97639 
130 ,24.0777 ,0.93498 ,3.23153 ,31.70776 
131 ,24.2698 ,0.93690 ,3.21442 ,31.53987 
132 ,24.4617 ,0.93880 ,3.22126 ,31.60702 
133 ,24.6536 ,0.94065 ,3.19388 ,31.33840 
134 ,24.8300 ,0.94251 ,3.15624 ,30.96904 
135 ,25.0058 ,0.94431 ,3.16309 ,31.03619 
136 ,25.1820 ,0.94603 ,3.15624 ,30.96904 
137 ,25.3739 ,0.94795 ,3.11860 ,30.59968 
138 ,25.5503 ,0.94970 ,3.11175 ,30.53252 
139 ,25.7423 ,0.95157 ,3.09464 ,30.36463 
140 ,25.9184 ,0.95334 ,3.08438 ,30.26389 
141 ,26.0943 ,0.95515 ,3.04673 ,29.89453 
142 ,26.2866 ,0.95699 ,3.04673 ,29.89453 
143 ,26.4787 ,0.95901 ,3.02278 ,29.65948 
144 ,26.6546 ,0.96072 ,3.00224 ,29.45801 
145 ,26.8308 ,0.96254 ,2.98855 ,29.32370 
146 ,27.0068 ,0.96432 ,2.98171 ,29.25654 
147 ,27.1824 ,0.96602 ,2.98171 ,29.25654 
148 ,27.3586 ,0.96776 ,2.94407 ,28.88718 
149 ,27.5347 ,0.96948 ,2.93038 ,28.75287 
150 ,27.7110 ,0.97126 ,2.91327 ,28.58498 
151 ,27.8873 ,0.97306 ,2.91327 ,28.58498 
152 ,28.0633 ,0.97484 ,2.89616 ,28.41709 
153 ,28.2549 ,0.97675 ,2.86193 ,28.08130 
154 ,28.4314 ,0.97849 ,2.85851 ,28.04772 
155 ,28.6234 ,0.98035 ,2.84825 ,27.94699 
156 ,28.7996 ,0.98213 ,2.83114 ,27.77910 
157 ,28.9758 ,0.98392 ,2.81060 ,27.57763 
158 ,29.1518 ,0.98572 ,2.77638 ,27.24185 
159 ,29.3278 ,0.98747 ,2.78665 ,27.34258 
160 ,29.5199 ,0.98939 ,2.76611 ,27.14111 
161 ,29.6962 ,0.99118 ,2.73531 ,26.83891 
162 ,29.8722 ,0.99292 ,2.72163 ,26.70459 
163 ,30.0480 ,0.99472 ,2.72505 ,26.73817 
164 ,30.2401 ,0.99656 ,2.70109 ,26.50312 
165 ,30.4161 ,0.99829 ,2.68056 ,26.30165 
166 ,30.5920 ,1.00012 ,2.67372 ,26.23450 
167 ,30.7685 ,1.00189 ,2.64634 ,25.96587 
168 ,30.9605 ,1.00379 ,2.64976 ,25.99945 
169 ,31.1366 ,1.00558 ,2.62581 ,25.76440 
170 ,31.3127 ,1.00733 ,2.60527 ,25.56293 
171 ,31.5207 ,1.00933 ,2.59501 ,25.46220 
172 ,31.6807 ,1.01114 ,2.56763 ,25.19357 
173 ,31.8733 ,1.01288 ,2.56421 ,25.15999 
174 ,32.0490 ,1.01469 ,2.54367 ,24.95852 
175 ,32.2250 ,1.01648 ,2.53683 ,24.89136 
176 ,32.4008 ,1.01819 ,2.53683 ,24.89136 
177 ,32.5770 ,1.01997 ,2.49918 ,24.52200 
178 ,32.7695 ,1.02186 ,2.49234 ,24.45485 
179 ,32.9774 ,1.02380 ,2.48892 ,24.42127 
180 ,33.1534 ,1.02570 ,2.44785 ,24.01833 
181 ,33.3295 ,1.02746 ,2.44101 ,23.95117 
182 ,33.4890 ,1.02917 ,2.44101 ,23.95117 
183 ,33.6496 ,1.03074 ,2.42732 ,23.81686 
184 ,33.8416 ,1.03253 ,2.40336 ,23.58181 
185 ,34.0178 ,1.03433 ,2.38283 ,23.38034 
186 ,34.1938 ,1.03610 ,2.35545 ,23.11171 
187 ,34.3859 ,1.03798 ,2.37256 ,23.27961 
188 ,34.5620 ,1.03981 ,2.35545 ,23.11171 
189 ,34.7380 ,1.04153 ,2.32808 ,22.84309 
190 ,34.9461 ,1.04352 ,2.31439 ,22.70877 
191 ,35.1383 ,1.04546 ,2.27332 ,22.30584 
192 ,35.3142 ,1.04728 ,2.26306 ,22.20510 
193 ,35.4903 ,1.04906 ,2.25963 ,22.17152 
194 ,35.6664 ,1.05077 ,2.25963 ,22.17152 
195 ,35.8586 ,1.05276 ,2.24594 ,22.03721 
196 ,36.0506 ,1.05460 ,2.21857 ,21.76858 
197 ,36.2265 ,1.05644 ,2.20146 ,21.60069 
198 ,36.4023 ,1.05816 ,2.19461 ,21.53353 
199 ,36.5623 ,1.05989 ,2.17408 ,21.33206 
200 ,36.7384 ,1.06155 ,2.16723 ,21.26491 
201 ,36.9309 ,1.06335 ,2.13644 ,20.96270 
202 ,37.1230 ,1.06542 ,2.13644 ,20.96270 
203 ,37.2991 ,1.06718 ,2.12275 ,20.82839 
204 ,37.4911 ,1.06906 ,2.11590 ,20.76123 
205 ,37.6828 ,1.07098 ,2.09195 ,20.52619 
206 ,37.8593 ,1.07275 ,2.06457 ,20.25756 
207 ,38.0352 ,1.07448 ,2.04746 ,20.08967 
208 ,38.2114 ,1.07623 ,2.04404 ,20.05609 
209 ,38.4035 ,1.07810 ,2.03377 ,19.95535 
210 ,38.5794 ,1.08001 ,2.02008 ,19.82104 
211 ,38.7557 ,1.08170 ,1.99270 ,19.55241 
212 ,38.9476 ,1.08362 ,1.98928 ,19.51884 
213 ,39.1238 ,1.08535 ,1.97902 ,19.41810 
214 ,39.3156 ,1.08731 ,1.94822 ,19.11590 
215 ,39.4918 ,1.08903 ,1.93111 ,18.94801 
216 ,39.6681 ,1.09081 ,1.92426 ,18.88085 
217 ,39.8600 ,1.09272 ,1.90715 ,18.71296 
218 ,40.0520 ,1.09465 ,1.88319 ,18.47791 
219 ,40.2283 ,1.09643 ,1.87635 ,18.41075 
220 ,40.4043 ,1.09812 ,1.87635 ,18.41075 
221 ,40.5805 ,1.09992 ,1.85924 ,18.24286 
222 ,40.7721 ,1.10178 ,1.83528 ,18.00781 
223 ,40.9485 ,1.10363 ,1.82160 ,17.87350 
224 ,41.1245 ,1.10541 ,1.81475 ,17.80634 
225 ,41.3167 ,1.10717 ,1.79422 ,17.60487 
226 ,41.5088 ,1.10923 ,1.78053 ,17.47056 
227 ,41.7007 ,1.11112 ,1.74631 ,17.13478 
228 ,41.8769 ,1.11290 ,1.74973 ,17.16836 
229 ,42.0690 ,1.11481 ,1.72920 ,16.96689 
230 ,42.2451 ,1.11655 ,1.72235 ,16.89973 
231 ,42.4210 ,1.11835 ,1.70866 ,16.76542 
232 ,42.5968 ,1.12010 ,1.67444 ,16.42963 
233 ,42.7892 ,1.12191 ,1.66418 ,16.32890 
234 ,42.9813 ,1.12394 ,1.66760 ,16.36248 
235 ,43.1736 ,1.12585 ,1.62653 ,15.95954 
236 ,43.3494 ,1.12765 ,1.61969 ,15.89238 
237 ,43.5254 ,1.12934 ,1.63680 ,16.06027 
238 ,43.7016 ,1.13111 ,1.60258 ,15.72449 
239 ,43.8936 ,1.13303 ,1.57862 ,15.48944 
240 ,44.0856 ,1.13491 ,1.56151 ,15.32155 
241 ,44.2778 ,1.13694 ,1.55467 ,15.25439 
242 ,44.4540 ,1.13877 ,1.54440 ,15.15366 
243 ,44.6298 ,1.14039 ,1.52387 ,14.95219 
244 ,44.8221 ,1.14234 ,1.50676 ,14.78430 
245 ,44.9980 ,1.14409 ,1.48965 ,14.61640 
246 ,45.1903 ,1.14599 ,1.48622 ,14.58283 
247 ,45.3664 ,1.14780 ,1.47596 ,14.48209 
248 ,45.5583 ,1.14976 ,1.45200 ,14.24704 
249 ,45.7345 ,1.15150 ,1.44516 ,14.17989 
250 ,45.9105 ,1.15328 ,1.42462 ,13.97842 
251 ,46.1026 ,1.15508 ,1.41778 ,13.91126 
252 ,46.2787 ,1.15692 ,1.38698 ,13.60906 
253 ,46.4548 ,1.15867 ,1.38014 ,13.54190 
254 ,46.6305 ,1.16045 ,1.37329 ,13.47474 
255 ,46.8069 ,1.16221 ,1.35960 ,13.34043 
256 ,46.9829 ,1.16396 ,1.35276 ,13.27327 
257 ,47.1590 ,1.16580 ,1.33223 ,13.07180 
258 ,47.3351 ,1.16750 ,1.31169 ,12.87033 
259 ,47.5113 ,1.16919 ,1.30827 ,12.83675 
260 ,47.7033 ,1.17113 ,1.30143 ,12.76960 
261 ,47.8794 ,1.17294 ,1.27405 ,12.50097 
262 ,48.0554 ,1.17469 ,1.26378 ,12.40024 
263 ,48.2316 ,1.17641 ,1.24667 ,12.23235 
264 ,48.4236 ,1.17822 ,1.24667 ,12.23235 
265 ,48.5993 ,1.18012 ,1.22614 ,12.03088 
266 ,48.7759 ,1.18189 ,1.20218 ,11.79583 
267 ,48.9681 ,1.18381 ,1.20218 ,11.79583 
268 ,49.1436 ,1.18553 ,1.18850 ,11.66151 
269 ,49.3199 ,1.18734 ,1.16454 ,11.42647 
270 ,49.5120 ,1.18921 ,1.15085 ,11.29215 
271 ,49.7038 ,1.19114 ,1.14743 ,11.25857 
272 ,49.8799 ,1.19304 ,1.11663 ,10.95637 
273 ,50.0399 ,1.19463 ,1.10636 ,10.85563 
274 ,50.1999 ,1.19620 ,1.10636 ,10.85563 
275 ,50.3762 ,1.19788 ,1.08925 ,10.68774 
276 ,50.5522 ,1.19961 ,1.07214 ,10.51985 
277 ,50.7283 ,1.20139 ,1.06530 ,10.45270 
278 ,50.9043 ,1.20311 ,1.05503 ,10.35196 
279 ,51.0804 ,1.20487 ,1.03450 ,10.15049 
280 ,51.2563 ,1.20662 ,1.01739 ,9.98260 
281 ,51.4325 ,1.20842 ,1.01054 ,9.91544 
282 ,51.5925 ,1.21015 ,1.00370 ,9.84829 
283 ,51.7686 ,1.21178 ,0.99343 ,9.74755 
284 ,51.9446 ,1.21353 ,0.98317 ,9.64682 
285 ,52.1047 ,1.21524 ,0.94894 ,9.31103 
286 ,52.2806 ,1.21688 ,0.94894 ,9.31103 
287 ,52.4569 ,1.21862 ,0.91472 ,8.97525 
288 ,52.6329 ,1.22041 ,0.92841 ,9.10956 
289 ,52.7930 ,1.22213 ,0.91472 ,8.97525 
290 ,52.9530 ,1.22372 ,0.90446 ,8.87451 
291 ,53.1131 ,1.22535 ,0.88392 ,8.67305 
292 ,53.2731 ,1.22693 ,0.86681 ,8.50515 
293 ,53.4331 ,1.22856 ,0.86339 ,8.47158 
294 ,53.5933 ,1.23015 ,0.86339 ,8.47158 
295 ,53.7534 ,1.23174 ,0.84286 ,8.27011 
296 ,53.9135 ,1.23335 ,0.83601 ,8.20295 
297 ,54.0896 ,1.23494 ,0.82232 ,8.06864 
298 ,54.2819 ,1.23682 ,0.81890 ,8.03506 
299 ,54.4898 ,1.23891 ,0.79837 ,7.83359 
300 ,54.6820 ,1.24089 ,0.77441 ,7.59854 
301 ,54.8744 ,1.24277 ,0.76415 ,7.49780 
302 ,55.0663 ,1.24462 ,0.74704 ,7.32991 
303 ,55.2582 ,1.24668 ,0.72308 ,7.09486 
304 ,55.4181 ,1.24837 ,0.71966 ,7.06129 
305 ,55.5945 ,1.25000 ,0.70597 ,6.92697 
306 ,55.7866 ,1.25197 ,0.70255 ,6.89340 
307 ,55.9786 ,1.25388 ,0.67859 ,6.65835 
308 ,56.1547 ,1.25560 ,0.67175 ,6.59119 
309 ,56.3309 ,1.25743 ,0.66148 ,6.49046 
310 ,56.4909 ,1.25912 ,0.66833 ,6.55761 
311 ,56.6670 ,1.26074 ,0.63410 ,6.22183 
312 ,56.8431 ,1.26251 ,0.62042 ,6.08752 
313 ,57.0191 ,1.26427 ,0.60673 ,5.95320 
314 ,57.1951 ,1.26602 ,0.61015 ,5.98678 
315 ,57.3713 ,1.26778 ,0.59646 ,5.85247 
316 ,57.5312 ,1.26950 ,0.58277 ,5.71815 
317 ,57.7074 ,1.27115 ,0.55882 ,5.48311 
318 ,57.8995 ,1.27303 ,0.53828 ,5.28164 
319 ,58.0916 ,1.27500 ,0.53486 ,5.24806 
320 ,58.2675 ,1.27685 ,0.51433 ,5.04659 
321 ,58.4437 ,1.27851 ,0.51433 ,5.04659 
322 ,58.6514 ,1.28051 ,0.48011 ,4.71081 
323 ,58.8437 ,1.28246 ,0.46642 ,4.57649 
324 ,59.0199 ,1.28431 ,0.46642 ,4.57649 
325 ,59.2120 ,1.28609 ,0.45273 ,4.44218 
326 ,59.4040 ,1.28816 ,0.44588 ,4.37502 
327 ,59.5638 ,1.28981 ,0.42877 ,4.20713 
328 ,59.7401 ,1.29145 ,0.40482 ,3.97208 
329 ,59.9322 ,1.29339 ,0.41851 ,4.10640 
330 ,60.1083 ,1.29513 ,0.39797 ,3.90493 
331 ,60.3164 ,1.29711 ,0.36718 ,3.60272 
332 ,60.4765 ,1.29896 ,0.37060 ,3.63630 
333 ,60.6522 ,1.30053 ,0.37744 ,3.70346 
334 ,60.8286 ,1.30233 ,0.35349 ,3.46841 
335 ,61.0047 ,1.30408 ,0.32611 ,3.19978 
336 ,61.1807 ,1.30584 ,0.30215 ,2.96473 
337 ,61.3564 ,1.30766 ,0.30900 ,3.03189 
338 ,61.5328 ,1.30935 ,0.30900 ,3.03189 
339 ,61.7091 ,1.31116 ,0.29873 ,2.93116 
340 ,61.9170 ,1.31311 ,0.25424 ,2.49464 
341 ,62.0931 ,1.31496 ,0.27478 ,2.69611 
342 ,62.2853 ,1.31680 ,0.25424 ,2.49464 
343 ,62.4612 ,1.31869 ,0.22687 ,2.22601 
344 ,62.6372 ,1.32040 ,0.23371 ,2.29317 
345 ,62.8294 ,1.32235 ,0.20976 ,2.05812 
346 ,63.0056 ,1.32415 ,0.18238 ,1.78949 
347 ,63.1815 ,1.32588 ,0.18580 ,1.82307 
348 ,63.3577 ,1.32757 ,0.18580 ,1.82307 
349 ,63.5338 ,1.32936 ,0.16185 ,1.58802 
350 ,63.7254 ,1.33129 ,0.13789 ,1.35298 
351 ,63.9179 ,1.33311 ,0.12762 ,1.25224 
352 ,64.0939 ,1.33499 ,0.13789 ,1.35298 
353 ,64.2701 ,1.33672 ,0.12420 ,1.21866 
354 ,64.4460 ,1.33852 ,0.10367 ,1.01719 
355 ,64.6222 ,1.34028 ,0.08656 ,0.84930 
356 ,64.8142 ,1.34218 ,0.08656 ,0.84930 
357 ,64.9904 ,1.34394 ,0.06945 ,0.68141 
358 ,65.1660 ,1.34572 ,0.05576 ,0.54710 
359 ,65.3424 ,1.34745 ,0.03522 ,0.34563 
360 ,65.5024 ,1.34917 ,0.03865 ,0.37920 
361 ,65.6786 ,1.35078 ,0.02838 ,0.27847 
362 ,65.8547 ,1.35254 ,0.01811 ,0.17773 
363 ,66.0308 ,1.35436 ,0.01127 ,0.11058 
364 ,66.2068 ,1.35608 ,-0.01269 ,-0.12447 
365 ,66.3828 ,1.35789 ,-0.03322 ,-0.32594 
366 ,66.5590 ,1.35964 ,-0.04691 ,-0.46025 
367 ,66.7348 ,1.36136 ,-0.04348 ,-0.42667 
368 ,66.9271 ,1.36319 ,-0.04691 ,-0.46025 
369 ,67.1512 ,1.36542 ,-0.06744 ,-0.66172 
370 ,67.3273 ,1.36735 ,-0.07771 ,-0.76246 
371 ,67.5032 ,1.36905 ,-0.10508 ,-1.03108 
372 ,67.6953 ,1.37090 ,-0.11193 ,-1.09824 
373 ,67.8715 ,1.37273 ,-0.11193 ,-1.09824 
374 ,68.0476 ,1.37455 ,-0.11535 ,-1.13182 
375 ,68.2554 ,1.37649 ,-0.15299 ,-1.50118 
376 ,68.4317 ,1.37834 ,-0.13588 ,-1.33329 
377 ,68.6077 ,1.38006 ,-0.15642 ,-1.53476 
378 ,68.7838 ,1.38191 ,-0.18037 ,-1.76981 
379 ,68.9756 ,1.38370 ,-0.19406 ,-1.90412 
380 ,69.1681 ,1.38560 ,-0.18037 ,-1.76981 
381 ,69.3762 ,1.38771 ,-0.22144 ,-2.17275 
382 ,69.5523 ,1.38958 ,-0.20775 ,-2.03843 
383 ,69.7283 ,1.39132 ,-0.24197 ,-2.37422 
384 ,69.9203 ,1.39323 ,-0.24197 ,-2.37422 
385 ,70.0964 ,1.39498 ,-0.25224 ,-2.47495 
386 ,70.2727 ,1.39670 ,-0.26250 ,-2.57569 
387 ,70.4487 ,1.39851 ,-0.27619 ,-2.71000 
388 ,70.6247 ,1.40029 ,-0.29673 ,-2.91147 
389 ,70.8168 ,1.40215 ,-0.28988 ,-2.84431 
390 ,71.0089 ,1.40412 ,-0.32410 ,-3.18010 
391 ,71.2170 ,1.40609 ,-0.33437 ,-3.28083 
392 ,71.3927 ,1.40798 ,-0.32752 ,-3.21367 
393 ,71.5692 ,1.40970 ,-0.35490 ,-3.48230 
394 ,71.7612 ,1.41157 ,-0.36517 ,-3.58303 
395 ,71.9532 ,1.41345 ,-0.37544 ,-3.68377 
396 ,72.1290 ,1.41533 ,-0.37886 ,-3.71735 
397 ,72.3053 ,1.41704 ,-0.40966 ,-4.01955 
398 ,72.4813 ,1.41884 ,-0.41308 ,-4.05313 
399 ,72.6733 ,1.42075 ,-0.40623 ,-3.98597 
400 ,72.8496 ,1.42246 ,-0.42335 ,-4.15387 
401 ,73.0255 ,1.42428 ,-0.44046 ,-4.32176 
402 ,73.2177 ,1.42620 ,-0.44388 ,-4.35534 
403 ,73.3938 ,1.42791 ,-0.44388 ,-4.35534 
404 ,73.5699 ,1.42970 ,-0.47126 ,-4.62396 
405 ,73.7459 ,1.43142 ,-0.49179 ,-4.82543 
406 ,73.9380 ,1.43336 ,-0.47810 ,-4.69112 
407 ,74.1142 ,1.43515 ,-0.48494 ,-4.75828 
408 ,74.2904 ,1.43693 ,-0.50890 ,-4.99332 
409 ,74.4822 ,1.43881 ,-0.52259 ,-5.12764 
410 ,74.6581 ,1.44059 ,-0.52943 ,-5.19479 
411 ,74.8505 ,1.44250 ,-0.53628 ,-5.26195 
412 ,75.0426 ,1.44444 ,-0.56708 ,-5.56415 
413 ,75.2188 ,1.44620 ,-0.58419 ,-5.73205 
414 ,75.4108 ,1.44810 ,-0.57392 ,-5.63131 
415 ,75.6029 ,1.45006 ,-0.58419 ,-5.73205 
416 ,75.7789 ,1.45183 ,-0.60472 ,-5.93352 
417 ,75.9548 ,1.45356 ,-0.60130 ,-5.89994 
418 ,76.1310 ,1.45533 ,-0.61499 ,-6.03425 
419 ,76.3068 ,1.45702 ,-0.62868 ,-6.16856 
420 ,76.4833 ,1.45885 ,-0.64921 ,-6.37003 
421 ,76.6590 ,1.46063 ,-0.65947 ,-6.47077 
422 ,76.8353 ,1.46240 ,-0.64921 ,-6.37003 
423 ,77.0114 ,1.46413 ,-0.65947 ,-6.47077 
424 ,77.1875 ,1.46591 ,-0.67659 ,-6.63866 
425 ,77.3795 ,1.46777 ,-0.68001 ,-6.67224 
426 ,77.5556 ,1.46952 ,-0.69027 ,-6.77297 
427 ,77.7317 ,1.47132 ,-0.69370 ,-6.80655 
428 ,77.9078 ,1.47306 ,-0.70739 ,-6.94086 
429 ,78.1159 ,1.47502 ,-0.72450 ,-7.10876 
430 ,78.2917 ,1.47693 ,-0.72450 ,-7.10876 
431 ,78.4680 ,1.47865 ,-0.74845 ,-7.34380 
432 ,78.6440 ,1.48044 ,-0.77241 ,-7.57885 
433 ,78.8360 ,1.48232 ,-0.75530 ,-7.41096 
434 ,79.0121 ,1.48407 ,-0.76556 ,-7.51170 
435 ,79.1883 ,1.48588 ,-0.80663 ,-7.91464 
436 ,79.3802 ,1.48777 ,-0.80663 ,-7.91464 
437 ,79.5564 ,1.48953 ,-0.79636 ,-7.81390 
438 ,79.7322 ,1.49131 ,-0.80321 ,-7.88106 
439 ,79.9245 ,1.49311 ,-0.83401 ,-8.18326 
440 ,80.1007 ,1.49500 ,-0.82716 ,-8.11611 
441 ,80.2768 ,1.49672 ,-0.81689 ,-8.01537 
442 ,80.4685 ,1.49869 ,-0.85454 ,-8.38473 
443 ,80.6447 ,1.50041 ,-0.85112 ,-8.35115 
444 ,80.8369 ,1.50226 ,-0.86481 ,-8.48547 
445 ,81.0289 ,1.50417 ,-0.85112 ,-8.35115 
446 ,81.2051 ,1.50601 ,-0.87507 ,-8.58620 
447 ,81.3970 ,1.50794 ,-0.86481 ,-8.48547 
448 ,81.5892 ,1.50987 ,-0.89218 ,-8.75409 
449 ,81.7814 ,1.51175 ,-0.87507 ,-8.58620 
450 ,81.9572 ,1.51354 ,-0.89218 ,-8.75409 
451 ,82.1493 ,1.51545 ,-0.92640 ,-9.08988 
452 ,82.3255 ,1.51724 ,-0.92640 ,-9.08988 
453 ,82.5015 ,1.51898 ,-0.93325 ,-9.15703 
454 ,82.6935 ,1.52081 ,-0.94351 ,-9.25777 
455 ,82.8857 ,1.52272 ,-0.97089 ,-9.52639 
456 ,83.0618 ,1.52459 ,-0.96063 ,-9.42566 
457 ,83.2379 ,1.52637 ,-0.96747 ,-9.49282 
458 ,83.4140 ,1.52810 ,-0.99143 ,-9.72786 
459 ,83.6056 ,1.53001 ,-1.01880 ,-9.99649 
460 ,83.7821 ,1.53179 ,-1.00169 ,-9.82860 
461 ,83.9583 ,1.53355 ,-1.00511 ,-9.86218 
462 ,84.1503 ,1.53549 ,-1.04276 ,-10.23154 
463 ,84.3263 ,1.53724 ,-1.05645 ,-10.36585 
