Data stamp = , 28-03-2022 23:27:00 102

Calibration Values: 
Slope = , 26.54 , g/V 
Offset Voltage at no contact = , -0.501760 , V 

No , Time , Stage Position ,   Mass , Force 
   ,  (s) ,      (mm)      ,   (g)  , (mN)  

1 ,0.0000 ,0.69948 ,5.28825 ,51.88832 
2 ,0.2158 ,0.69955 ,5.28483 ,51.85474 
3 ,0.6480 ,0.70076 ,5.29852 ,51.98905 
4 ,0.8244 ,0.70257 ,5.27798 ,51.78758 
5 ,1.0003 ,0.70429 ,5.28141 ,51.82116 
6 ,1.1921 ,0.70610 ,5.30194 ,52.02263 
7 ,1.3690 ,0.70783 ,5.31563 ,52.15694 
8 ,1.5448 ,0.70968 ,5.28483 ,51.85474 
9 ,1.7365 ,0.71156 ,5.27798 ,51.78758 
10 ,1.9289 ,0.71350 ,5.27456 ,51.75401 
11 ,2.1206 ,0.71547 ,5.23350 ,51.35107 
12 ,2.2970 ,0.71720 ,5.22665 ,51.28391 
13 ,2.4729 ,0.71900 ,5.21296 ,51.14960 
14 ,2.6651 ,0.72083 ,5.19243 ,50.94813 
15 ,2.8570 ,0.72271 ,5.18216 ,50.84739 
16 ,3.0493 ,0.72474 ,5.17532 ,50.78023 
17 ,3.2413 ,0.72666 ,5.14452 ,50.47803 
18 ,3.4174 ,0.72838 ,5.14110 ,50.44445 
19 ,3.5935 ,0.73018 ,5.12741 ,50.31014 
20 ,3.7532 ,0.73187 ,5.12399 ,50.27656 
21 ,3.9296 ,0.73354 ,5.11372 ,50.17583 
22 ,4.1058 ,0.73528 ,5.09319 ,49.97436 
23 ,4.2978 ,0.73716 ,5.08292 ,49.87362 
24 ,4.4733 ,0.73905 ,5.06239 ,49.67215 
25 ,4.6499 ,0.74067 ,5.06581 ,49.70573 
26 ,4.8420 ,0.74261 ,5.02132 ,49.26921 
27 ,5.0178 ,0.74436 ,5.01790 ,49.23563 
28 ,5.2098 ,0.74630 ,5.01448 ,49.20205 
29 ,5.3862 ,0.74805 ,4.98026 ,48.86627 
30 ,5.5781 ,0.75001 ,4.97341 ,48.79911 
31 ,5.7544 ,0.75179 ,4.96657 ,48.73196 
32 ,5.9303 ,0.75348 ,4.94261 ,48.49691 
33 ,6.1065 ,0.75531 ,4.93235 ,48.39618 
34 ,6.2825 ,0.75707 ,4.91523 ,48.22828 
35 ,6.4587 ,0.75880 ,4.90497 ,48.12755 
36 ,6.6508 ,0.76070 ,4.89470 ,48.02681 
37 ,6.8429 ,0.76270 ,4.85364 ,47.62387 
38 ,7.0189 ,0.76443 ,4.84337 ,47.52314 
39 ,7.2109 ,0.76631 ,4.84679 ,47.55672 
40 ,7.3870 ,0.76806 ,4.80915 ,47.18736 
41 ,7.5630 ,0.76978 ,4.78861 ,46.98589 
42 ,7.7393 ,0.77162 ,4.78519 ,46.95231 
43 ,7.9149 ,0.77339 ,4.75439 ,46.65010 
44 ,8.0914 ,0.77514 ,4.75782 ,46.68368 
45 ,8.2833 ,0.77702 ,4.72702 ,46.38148 
46 ,8.4592 ,0.77880 ,4.71333 ,46.24716 
47 ,8.6513 ,0.78071 ,4.71333 ,46.24716 
48 ,8.8596 ,0.78265 ,4.67568 ,45.87780 
49 ,9.0515 ,0.78469 ,4.67568 ,45.87780 
50 ,9.2439 ,0.78660 ,4.64488 ,45.57560 
51 ,9.4357 ,0.78855 ,4.62093 ,45.34055 
52 ,9.6120 ,0.79030 ,4.60724 ,45.20624 
53 ,9.7879 ,0.79214 ,4.60382 ,45.17266 
54 ,9.9640 ,0.79383 ,4.58328 ,44.97119 
55 ,10.1403 ,0.79561 ,4.55249 ,44.66898 
56 ,10.3322 ,0.79755 ,4.55249 ,44.66898 
57 ,10.5082 ,0.79929 ,4.54222 ,44.56825 
58 ,10.6844 ,0.80103 ,4.51484 ,44.29962 
59 ,10.8764 ,0.80295 ,4.50115 ,44.16531 
60 ,11.0521 ,0.80470 ,4.49773 ,44.13173 
61 ,11.2284 ,0.80648 ,4.48062 ,43.96384 
62 ,11.4527 ,0.80848 ,4.44640 ,43.62806 
63 ,11.6447 ,0.81062 ,4.41902 ,43.35943 
64 ,11.8207 ,0.81238 ,4.39849 ,43.15796 
65 ,12.0128 ,0.81432 ,4.38480 ,43.02365 
66 ,12.1886 ,0.81614 ,4.36427 ,42.82218 
67 ,12.3649 ,0.81785 ,4.34716 ,42.65429 
68 ,12.5408 ,0.81960 ,4.33004 ,42.48639 
69 ,12.7333 ,0.82142 ,4.31978 ,42.38566 
70 ,12.9252 ,0.82346 ,4.31636 ,42.35208 
71 ,13.1012 ,0.82520 ,4.27529 ,41.94914 
72 ,13.2773 ,0.82697 ,4.25818 ,41.78125 
73 ,13.4535 ,0.82871 ,4.25133 ,41.71409 
74 ,13.6455 ,0.83059 ,4.22738 ,41.47905 
75 ,13.8377 ,0.83245 ,4.21369 ,41.34473 
76 ,14.0297 ,0.83448 ,4.20685 ,41.27758 
77 ,14.2215 ,0.83633 ,4.17605 ,40.97537 
78 ,14.3979 ,0.83817 ,4.15209 ,40.74032 
79 ,14.5900 ,0.84008 ,4.15551 ,40.77390 
80 ,14.7660 ,0.84188 ,4.14525 ,40.67317 
81 ,14.9582 ,0.84378 ,4.10418 ,40.27023 
82 ,15.1502 ,0.84559 ,4.08707 ,40.10233 
83 ,15.3422 ,0.84757 ,4.06996 ,39.93444 
84 ,15.5183 ,0.84938 ,4.04943 ,39.73297 
85 ,15.6940 ,0.85111 ,4.03916 ,39.63224 
86 ,15.8701 ,0.85286 ,4.03232 ,39.56508 
87 ,16.0461 ,0.85462 ,4.01178 ,39.36361 
88 ,16.2225 ,0.85645 ,3.98441 ,39.09499 
89 ,16.4470 ,0.85852 ,3.97414 ,38.99425 
90 ,16.6389 ,0.86057 ,3.93650 ,38.62489 
91 ,16.8307 ,0.86241 ,3.93307 ,38.59131 
92 ,17.0070 ,0.86426 ,3.92623 ,38.52415 
93 ,17.1828 ,0.86605 ,3.89885 ,38.25553 
94 ,17.3591 ,0.86773 ,3.87832 ,38.05406 
95 ,17.5351 ,0.86952 ,3.86463 ,37.91975 
96 ,17.7272 ,0.87143 ,3.84752 ,37.75185 
97 ,17.9033 ,0.87324 ,3.82699 ,37.55038 
98 ,18.0796 ,0.87496 ,3.81330 ,37.41607 
99 ,18.2554 ,0.87684 ,3.79276 ,37.21460 
100 ,18.4314 ,0.87844 ,3.78592 ,37.14744 
101 ,18.6077 ,0.88028 ,3.76881 ,36.97955 
102 ,18.7837 ,0.88200 ,3.74485 ,36.74450 
103 ,18.9757 ,0.88396 ,3.71063 ,36.40872 
104 ,19.1518 ,0.88567 ,3.71748 ,36.47588 
105 ,19.3279 ,0.88745 ,3.70721 ,36.37514 
106 ,19.5038 ,0.88921 ,3.70037 ,36.30799 
107 ,19.6798 ,0.89093 ,3.66272 ,35.93863 
108 ,19.8559 ,0.89272 ,3.64219 ,35.73716 
109 ,20.0484 ,0.89463 ,3.64561 ,35.77073 
110 ,20.2242 ,0.89643 ,3.62508 ,35.56926 
111 ,20.4003 ,0.89816 ,3.59086 ,35.23348 
112 ,20.5924 ,0.90006 ,3.58743 ,35.19990 
113 ,20.7844 ,0.90199 ,3.57032 ,35.03201 
114 ,20.9605 ,0.90374 ,3.54295 ,34.76338 
115 ,21.1526 ,0.90556 ,3.52584 ,34.59549 
116 ,21.3448 ,0.90762 ,3.52241 ,34.56192 
117 ,21.5204 ,0.90940 ,3.50188 ,34.36045 
118 ,21.6969 ,0.91115 ,3.48135 ,34.15898 
119 ,21.8888 ,0.91306 ,3.47450 ,34.09182 
120 ,22.0649 ,0.91482 ,3.45397 ,33.89035 
121 ,22.2411 ,0.91655 ,3.43686 ,33.72246 
122 ,22.4171 ,0.91832 ,3.41633 ,33.52099 
123 ,22.6090 ,0.92026 ,3.40264 ,33.38667 
124 ,22.7852 ,0.92201 ,3.39579 ,33.31952 
125 ,22.9612 ,0.92380 ,3.37526 ,33.11805 
126 ,23.1534 ,0.92559 ,3.34104 ,32.78227 
127 ,23.3291 ,0.92747 ,3.33419 ,32.71511 
128 ,23.5050 ,0.92916 ,3.33077 ,32.68153 
129 ,23.6814 ,0.93090 ,3.30682 ,32.44648 
130 ,23.8575 ,0.93272 ,3.28628 ,32.24501 
131 ,24.0337 ,0.93445 ,3.27944 ,32.17786 
132 ,24.2258 ,0.93647 ,3.27602 ,32.14428 
133 ,24.4016 ,0.93820 ,3.23837 ,31.77492 
134 ,24.5938 ,0.94009 ,3.23495 ,31.74134 
135 ,24.7698 ,0.94186 ,3.22468 ,31.64060 
136 ,24.9618 ,0.94368 ,3.20757 ,31.47271 
137 ,25.1383 ,0.94553 ,3.17335 ,31.13693 
138 ,25.3302 ,0.94751 ,3.17335 ,31.13693 
139 ,25.5063 ,0.94916 ,3.15282 ,30.93546 
140 ,25.6979 ,0.95113 ,3.11518 ,30.56610 
141 ,25.8744 ,0.95285 ,3.09464 ,30.36463 
142 ,26.0501 ,0.95463 ,3.10149 ,30.43178 
143 ,26.2265 ,0.95636 ,3.09464 ,30.36463 
144 ,26.4026 ,0.95812 ,3.06384 ,30.06242 
145 ,26.5789 ,0.95992 ,3.04673 ,29.89453 
146 ,26.7708 ,0.96196 ,3.03304 ,29.76022 
147 ,26.9469 ,0.96358 ,3.02278 ,29.65948 
148 ,27.1229 ,0.96540 ,3.00909 ,29.52517 
149 ,27.2989 ,0.96709 ,2.98171 ,29.25654 
150 ,27.4750 ,0.96884 ,2.96118 ,29.05507 
151 ,27.6513 ,0.97069 ,2.95433 ,28.98792 
152 ,27.8432 ,0.97255 ,2.95091 ,28.95434 
153 ,28.0193 ,0.97430 ,2.91669 ,28.61856 
154 ,28.1953 ,0.97607 ,2.90300 ,28.48424 
155 ,28.3876 ,0.97795 ,2.89273 ,28.38351 
156 ,28.5637 ,0.97978 ,2.88931 ,28.34993 
157 ,28.7553 ,0.98165 ,2.85851 ,28.04772 
158 ,28.9318 ,0.98340 ,2.84825 ,27.94699 
159 ,29.1236 ,0.98525 ,2.83798 ,27.84625 
160 ,29.2996 ,0.98713 ,2.80718 ,27.54405 
161 ,29.4918 ,0.98891 ,2.77980 ,27.27542 
162 ,29.6841 ,0.99098 ,2.77980 ,27.27542 
163 ,29.8597 ,0.99276 ,2.76611 ,27.14111 
164 ,30.0363 ,0.99451 ,2.74216 ,26.90606 
165 ,30.2284 ,0.99639 ,2.73531 ,26.83891 
166 ,30.3884 ,0.99815 ,2.71820 ,26.67101 
167 ,30.5645 ,0.99977 ,2.70452 ,26.53670 
168 ,30.7406 ,1.00156 ,2.67714 ,26.26807 
169 ,30.9163 ,1.00329 ,2.65660 ,26.06661 
170 ,31.0928 ,1.00500 ,2.64292 ,25.93229 
171 ,31.3004 ,1.00707 ,2.63607 ,25.86514 
172 ,31.4769 ,1.00892 ,2.60527 ,25.56293 
173 ,31.6850 ,1.01090 ,2.60185 ,25.52935 
174 ,31.8771 ,1.01291 ,2.57447 ,25.26073 
175 ,32.0531 ,1.01468 ,2.56078 ,25.12641 
176 ,32.2453 ,1.01662 ,2.56078 ,25.12641 
177 ,32.4372 ,1.01851 ,2.52656 ,24.79063 
178 ,32.6131 ,1.02029 ,2.51287 ,24.65632 
179 ,32.7894 ,1.02201 ,2.50261 ,24.55558 
180 ,32.9810 ,1.02399 ,2.47181 ,24.25338 
181 ,33.1575 ,1.02568 ,2.46154 ,24.15264 
182 ,33.3335 ,1.02745 ,2.45127 ,24.05191 
183 ,33.5092 ,1.02919 ,2.45127 ,24.05191 
184 ,33.6857 ,1.03097 ,2.43074 ,23.85044 
185 ,33.8619 ,1.03272 ,2.42390 ,23.78328 
186 ,34.0538 ,1.03462 ,2.39652 ,23.51465 
187 ,34.2300 ,1.03641 ,2.37941 ,23.34676 
188 ,34.4060 ,1.03816 ,2.37941 ,23.34676 
189 ,34.5821 ,1.03988 ,2.34861 ,23.04456 
190 ,34.7741 ,1.04185 ,2.32123 ,22.77593 
191 ,34.9505 ,1.04360 ,2.32465 ,22.80951 
192 ,35.1262 ,1.04540 ,2.30754 ,22.64162 
193 ,35.3179 ,1.04717 ,2.29043 ,22.47373 
194 ,35.4944 ,1.04900 ,2.26648 ,22.23868 
195 ,35.6704 ,1.05085 ,2.25621 ,22.13794 
196 ,35.8465 ,1.05257 ,2.24937 ,22.07079 
197 ,36.0227 ,1.05432 ,2.23568 ,21.93647 
198 ,36.1987 ,1.05607 ,2.21172 ,21.70143 
199 ,36.3908 ,1.05804 ,2.20488 ,21.63427 
200 ,36.5827 ,1.05991 ,2.18777 ,21.46638 
201 ,36.7590 ,1.06168 ,2.16381 ,21.23133 
202 ,36.9510 ,1.06352 ,2.13644 ,20.96270 
203 ,37.1428 ,1.06547 ,2.14670 ,21.06344 
204 ,37.3192 ,1.06731 ,2.12617 ,20.86197 
205 ,37.4953 ,1.06907 ,2.09537 ,20.55976 
206 ,37.6874 ,1.07097 ,2.09537 ,20.55976 
207 ,37.8634 ,1.07276 ,2.09195 ,20.52619 
208 ,38.0715 ,1.07466 ,2.04404 ,20.05609 
209 ,38.2475 ,1.07664 ,2.04746 ,20.08967 
210 ,38.4238 ,1.07830 ,2.03377 ,19.95535 
211 ,38.6317 ,1.08036 ,2.01324 ,19.75388 
212 ,38.8079 ,1.08215 ,1.99955 ,19.61957 
213 ,38.9839 ,1.08397 ,1.98244 ,19.45168 
214 ,39.1758 ,1.08579 ,1.97217 ,19.35094 
215 ,39.3680 ,1.08772 ,1.94137 ,19.04874 
216 ,39.5597 ,1.08970 ,1.94137 ,19.04874 
217 ,39.7358 ,1.09148 ,1.91742 ,18.81369 
218 ,39.9121 ,1.09318 ,1.90031 ,18.64580 
219 ,40.1203 ,1.09516 ,1.89688 ,18.61222 
220 ,40.2960 ,1.09710 ,1.86951 ,18.34360 
221 ,40.4885 ,1.09887 ,1.85240 ,18.17570 
222 ,40.6805 ,1.10091 ,1.83871 ,18.04139 
223 ,40.8566 ,1.10270 ,1.82844 ,17.94066 
224 ,41.0488 ,1.10451 ,1.82160 ,17.87350 
225 ,41.2248 ,1.10633 ,1.80791 ,17.73919 
226 ,41.4168 ,1.10824 ,1.76684 ,17.33625 
227 ,41.6088 ,1.11018 ,1.77026 ,17.36983 
228 ,41.8009 ,1.11203 ,1.75315 ,17.20193 
229 ,41.9770 ,1.11381 ,1.72235 ,16.89973 
230 ,42.1530 ,1.11560 ,1.72235 ,16.89973 
231 ,42.3288 ,1.11735 ,1.71893 ,16.86615 
232 ,42.5209 ,1.11920 ,1.70182 ,16.69826 
233 ,42.7133 ,1.12120 ,1.68129 ,16.49679 
234 ,42.9054 ,1.12308 ,1.67102 ,16.39605 
235 ,43.0812 ,1.12488 ,1.65733 ,16.26174 
236 ,43.2575 ,1.12668 ,1.64364 ,16.12743 
237 ,43.4333 ,1.12841 ,1.61627 ,15.85880 
238 ,43.6097 ,1.13017 ,1.60942 ,15.79164 
239 ,43.7855 ,1.13198 ,1.61284 ,15.82522 
240 ,43.9779 ,1.13388 ,1.58889 ,15.59018 
241 ,44.1537 ,1.13563 ,1.56493 ,15.35513 
242 ,44.3459 ,1.13745 ,1.57178 ,15.42228 
243 ,44.5214 ,1.13925 ,1.54440 ,15.15366 
244 ,44.6980 ,1.14100 ,1.53071 ,15.01934 
245 ,44.8740 ,1.14281 ,1.51702 ,14.88503 
246 ,45.0503 ,1.14457 ,1.51018 ,14.81787 
247 ,45.2261 ,1.14629 ,1.50333 ,14.75072 
248 ,45.4183 ,1.14822 ,1.48280 ,14.54925 
249 ,45.6104 ,1.15007 ,1.45542 ,14.28062 
250 ,45.8025 ,1.15214 ,1.44516 ,14.17989 
251 ,45.9785 ,1.15390 ,1.44174 ,14.14631 
252 ,46.1546 ,1.15562 ,1.41436 ,13.87768 
253 ,46.3308 ,1.15742 ,1.39383 ,13.67621 
254 ,46.5227 ,1.15925 ,1.38698 ,13.60906 
255 ,46.7149 ,1.16116 ,1.36987 ,13.44116 
256 ,46.8906 ,1.16300 ,1.35276 ,13.27327 
257 ,47.0826 ,1.16481 ,1.34249 ,13.17254 
258 ,47.2588 ,1.16667 ,1.33565 ,13.10538 
259 ,47.4511 ,1.16857 ,1.32196 ,12.97107 
260 ,47.6267 ,1.17034 ,1.31512 ,12.90391 
261 ,47.8033 ,1.17205 ,1.30827 ,12.83675 
262 ,47.9953 ,1.17393 ,1.28089 ,12.56813 
263 ,48.1713 ,1.17584 ,1.27063 ,12.46739 
264 ,48.3472 ,1.17754 ,1.26720 ,12.43381 
265 ,48.5232 ,1.17928 ,1.26036 ,12.36666 
266 ,48.6997 ,1.18103 ,1.24325 ,12.19877 
267 ,48.8758 ,1.18281 ,1.21587 ,11.93014 
268 ,49.0518 ,1.18454 ,1.19876 ,11.76225 
269 ,49.2438 ,1.18647 ,1.20561 ,11.82941 
270 ,49.4200 ,1.18824 ,1.19192 ,11.69509 
271 ,49.6118 ,1.19018 ,1.16796 ,11.46004 
272 ,49.8041 ,1.19214 ,1.15770 ,11.35931 
273 ,49.9798 ,1.19384 ,1.14743 ,11.25857 
274 ,50.1563 ,1.19560 ,1.11321 ,10.92279 
275 ,50.3323 ,1.19738 ,1.11321 ,10.92279 
276 ,50.5085 ,1.19916 ,1.10294 ,10.82206 
277 ,50.7004 ,1.20098 ,1.08925 ,10.68774 
278 ,50.8766 ,1.20285 ,1.07899 ,10.58701 
279 ,51.0526 ,1.20463 ,1.06530 ,10.45270 
280 ,51.2447 ,1.20648 ,1.07214 ,10.51985 
281 ,51.4209 ,1.20823 ,1.04819 ,10.28480 
282 ,51.6128 ,1.21016 ,1.02765 ,10.08333 
283 ,51.8047 ,1.21210 ,1.03108 ,10.11691 
284 ,51.9970 ,1.21400 ,0.99685 ,9.78113 
285 ,52.1731 ,1.21581 ,0.98659 ,9.68039 
286 ,52.3808 ,1.21783 ,0.96948 ,9.51250 
287 ,52.5572 ,1.21958 ,0.95237 ,9.34461 
288 ,52.7333 ,1.22136 ,0.94552 ,9.27745 
289 ,52.9093 ,1.22318 ,0.94552 ,9.27745 
290 ,53.1014 ,1.22502 ,0.93525 ,9.17672 
291 ,53.2775 ,1.22682 ,0.91130 ,8.94167 
292 ,53.4533 ,1.22860 ,0.90446 ,8.87451 
293 ,53.6297 ,1.23032 ,0.88392 ,8.67305 
294 ,53.8375 ,1.23233 ,0.86681 ,8.50515 
295 ,54.0138 ,1.23420 ,0.85654 ,8.40442 
296 ,54.2215 ,1.23615 ,0.85312 ,8.37084 
297 ,54.3979 ,1.23799 ,0.83601 ,8.20295 
298 ,54.5579 ,1.23968 ,0.82232 ,8.06864 
299 ,54.7341 ,1.24137 ,0.81548 ,8.00148 
300 ,54.9098 ,1.24309 ,0.79837 ,7.83359 
301 ,55.1023 ,1.24496 ,0.79837 ,7.83359 
302 ,55.2943 ,1.24698 ,0.78126 ,7.66570 
303 ,55.4703 ,1.24867 ,0.77441 ,7.59854 
304 ,55.6625 ,1.25066 ,0.77099 ,7.56496 
305 ,55.8385 ,1.25243 ,0.75388 ,7.39707 
306 ,56.0146 ,1.25415 ,0.72992 ,7.16202 
307 ,56.1906 ,1.25587 ,0.72308 ,7.09486 
308 ,56.3668 ,1.25768 ,0.70597 ,6.92697 
309 ,56.5264 ,1.25939 ,0.70939 ,6.96055 
310 ,56.7029 ,1.26100 ,0.69913 ,6.85982 
311 ,56.8949 ,1.26297 ,0.67859 ,6.65835 
312 ,57.0550 ,1.26471 ,0.64437 ,6.32256 
313 ,57.2311 ,1.26630 ,0.64437 ,6.32256 
314 ,57.3911 ,1.26803 ,0.64437 ,6.32256 
315 ,57.5672 ,1.26968 ,0.62384 ,6.12109 
316 ,57.7434 ,1.27144 ,0.62384 ,6.12109 
317 ,57.9193 ,1.27331 ,0.59988 ,5.88605 
318 ,58.0956 ,1.27492 ,0.58619 ,5.75173 
319 ,58.2874 ,1.27692 ,0.57935 ,5.68458 
320 ,58.4797 ,1.27880 ,0.58962 ,5.78531 
321 ,58.6713 ,1.28065 ,0.57593 ,5.65100 
322 ,58.8481 ,1.28246 ,0.53486 ,5.24806 
323 ,59.0397 ,1.28443 ,0.54513 ,5.34879 
324 ,59.2157 ,1.28618 ,0.52459 ,5.14732 
325 ,59.4079 ,1.28809 ,0.50406 ,4.94585 
326 ,59.5839 ,1.28981 ,0.50406 ,4.94585 
327 ,59.7757 ,1.29185 ,0.47326 ,4.64365 
328 ,59.9518 ,1.29348 ,0.46642 ,4.57649 
329 ,60.1439 ,1.29540 ,0.46642 ,4.57649 
330 ,60.3203 ,1.29720 ,0.46642 ,4.57649 
331 ,60.4964 ,1.29900 ,0.43904 ,4.30787 
332 ,60.6885 ,1.30085 ,0.42193 ,4.13997 
333 ,60.8804 ,1.30281 ,0.42535 ,4.17355 
334 ,61.0567 ,1.30461 ,0.41166 ,4.03924 
335 ,61.2488 ,1.30651 ,0.37060 ,3.63630 
336 ,61.4408 ,1.30843 ,0.39113 ,3.83777 
337 ,61.6167 ,1.31018 ,0.37060 ,3.63630 
338 ,61.8090 ,1.31206 ,0.35349 ,3.46841 
339 ,62.0170 ,1.31407 ,0.35006 ,3.43483 
340 ,62.2090 ,1.31606 ,0.31926 ,3.13263 
341 ,62.3851 ,1.31785 ,0.30215 ,2.96473 
342 ,62.5612 ,1.31973 ,0.30558 ,2.99831 
343 ,62.7374 ,1.32141 ,0.29873 ,2.93116 
344 ,62.9134 ,1.32315 ,0.28162 ,2.76326 
345 ,63.1057 ,1.32495 ,0.26451 ,2.59537 
346 ,63.2812 ,1.32681 ,0.26793 ,2.62895 
347 ,63.4416 ,1.32852 ,0.25424 ,2.49464 
348 ,63.6176 ,1.33019 ,0.24055 ,2.36032 
349 ,63.8098 ,1.33207 ,0.22002 ,2.15885 
350 ,64.0018 ,1.33390 ,0.19607 ,1.92381 
351 ,64.1779 ,1.33579 ,0.20633 ,2.02454 
352 ,64.3539 ,1.33753 ,0.19264 ,1.89023 
353 ,64.5298 ,1.33926 ,0.16869 ,1.65518 
354 ,64.7060 ,1.34104 ,0.16185 ,1.58802 
355 ,64.8822 ,1.34282 ,0.16185 ,1.58802 
356 ,65.0742 ,1.34473 ,0.13105 ,1.28582 
357 ,65.2505 ,1.34646 ,0.12078 ,1.18508 
358 ,65.4425 ,1.34833 ,0.12078 ,1.18508 
359 ,65.6345 ,1.35035 ,0.09682 ,0.95004 
360 ,65.8266 ,1.35223 ,0.07287 ,0.71499 
361 ,66.0026 ,1.35404 ,0.06945 ,0.68141 
362 ,66.1783 ,1.35573 ,0.07287 ,0.71499 
363 ,66.3548 ,1.35752 ,0.04549 ,0.44636 
364 ,66.5470 ,1.35945 ,0.02838 ,0.27847 
365 ,66.7228 ,1.36115 ,0.03522 ,0.34563 
366 ,66.8989 ,1.36295 ,0.03865 ,0.37920 
367 ,67.0750 ,1.36467 ,-0.01269 ,-0.12447 
368 ,67.2508 ,1.36649 ,-0.02637 ,-0.25878 
369 ,67.4268 ,1.36825 ,-0.02637 ,-0.25878 
370 ,67.6031 ,1.37004 ,-0.02980 ,-0.29236 
371 ,67.7952 ,1.37188 ,-0.03322 ,-0.32594 
372 ,67.9711 ,1.37367 ,-0.06744 ,-0.66172 
373 ,68.1476 ,1.37541 ,-0.07428 ,-0.72888 
374 ,68.3232 ,1.37720 ,-0.07771 ,-0.76246 
375 ,68.4991 ,1.37898 ,-0.08455 ,-0.82961 
376 ,68.6756 ,1.38074 ,-0.09824 ,-0.96393 
377 ,68.8677 ,1.38268 ,-0.11877 ,-1.16540 
378 ,69.0438 ,1.38445 ,-0.12904 ,-1.26613 
379 ,69.2199 ,1.38616 ,-0.12562 ,-1.23255 
380 ,69.4120 ,1.38797 ,-0.14273 ,-1.40045 
381 ,69.6039 ,1.38998 ,-0.15642 ,-1.53476 
382 ,69.7801 ,1.39182 ,-0.17353 ,-1.70265 
383 ,69.9722 ,1.39360 ,-0.17695 ,-1.73623 
384 ,70.1643 ,1.39564 ,-0.19748 ,-1.93770 
385 ,70.3406 ,1.39742 ,-0.19748 ,-1.93770 
386 ,70.5165 ,1.39917 ,-0.20090 ,-1.97128 
387 ,70.7086 ,1.40106 ,-0.22144 ,-2.17275 
388 ,70.9165 ,1.40309 ,-0.23170 ,-2.27348 
389 ,71.0927 ,1.40487 ,-0.24881 ,-2.44137 
390 ,71.2848 ,1.40682 ,-0.26250 ,-2.57569 
391 ,71.4608 ,1.40857 ,-0.27619 ,-2.71000 
392 ,71.6530 ,1.41042 ,-0.28988 ,-2.84431 
393 ,71.8291 ,1.41226 ,-0.30357 ,-2.97863 
394 ,72.0051 ,1.41403 ,-0.30699 ,-3.01220 
395 ,72.1812 ,1.41578 ,-0.32068 ,-3.14652 
396 ,72.3733 ,1.41769 ,-0.31726 ,-3.11294 
397 ,72.5495 ,1.41941 ,-0.34464 ,-3.38156 
398 ,72.7411 ,1.42135 ,-0.34806 ,-3.41514 
399 ,72.9335 ,1.42329 ,-0.35490 ,-3.48230 
400 ,73.1095 ,1.42510 ,-0.37201 ,-3.65019 
401 ,73.3016 ,1.42698 ,-0.39255 ,-3.85166 
402 ,73.4776 ,1.42873 ,-0.39597 ,-3.88524 
403 ,73.6694 ,1.43061 ,-0.40623 ,-3.98597 
404 ,73.8459 ,1.43246 ,-0.41650 ,-4.08671 
405 ,74.0214 ,1.43421 ,-0.43019 ,-4.22102 
406 ,74.1979 ,1.43590 ,-0.43703 ,-4.28818 
407 ,74.3741 ,1.43770 ,-0.44730 ,-4.38891 
408 ,74.5507 ,1.43950 ,-0.45072 ,-4.42249 
409 ,74.7259 ,1.44125 ,-0.47468 ,-4.65754 
410 ,74.9018 ,1.44301 ,-0.49521 ,-4.85901 
411 ,75.0782 ,1.44469 ,-0.49179 ,-4.82543 
412 ,75.2544 ,1.44648 ,-0.49521 ,-4.85901 
413 ,75.4303 ,1.44823 ,-0.51917 ,-5.09406 
414 ,75.6066 ,1.45001 ,-0.52259 ,-5.12764 
415 ,75.7822 ,1.45186 ,-0.52601 ,-5.16121 
416 ,75.9589 ,1.45352 ,-0.54654 ,-5.36268 
417 ,76.1342 ,1.45528 ,-0.53970 ,-5.29553 
418 ,76.2944 ,1.45700 ,-0.56708 ,-5.56415 
419 ,76.4704 ,1.45862 ,-0.57734 ,-5.66489 
420 ,76.6468 ,1.46043 ,-0.59788 ,-5.86636 
421 ,76.8549 ,1.46244 ,-0.59445 ,-5.83278 
422 ,77.0473 ,1.46441 ,-0.62525 ,-6.13499 
423 ,77.2393 ,1.46633 ,-0.61841 ,-6.06783 
424 ,77.4154 ,1.46811 ,-0.63552 ,-6.23572 
425 ,77.5912 ,1.46983 ,-0.63894 ,-6.26930 
426 ,77.7674 ,1.47162 ,-0.66974 ,-6.57150 
427 ,77.9436 ,1.47340 ,-0.66974 ,-6.57150 
428 ,78.1354 ,1.47519 ,-0.67659 ,-6.63866 
429 ,78.3277 ,1.47723 ,-0.69027 ,-6.77297 
430 ,78.5196 ,1.47908 ,-0.69712 ,-6.84013 
431 ,78.6959 ,1.48095 ,-0.72792 ,-7.14233 
432 ,78.8876 ,1.48283 ,-0.72107 ,-7.07518 
433 ,79.0640 ,1.48456 ,-0.74845 ,-7.34380 
434 ,79.2400 ,1.48636 ,-0.76214 ,-7.47812 
435 ,79.4161 ,1.48805 ,-0.73818 ,-7.24307 
436 ,79.5919 ,1.48984 ,-0.75530 ,-7.41096 
437 ,79.7843 ,1.49165 ,-0.77241 ,-7.57885 
438 ,79.9598 ,1.49362 ,-0.76898 ,-7.54527 
439 ,80.1365 ,1.49531 ,-0.78267 ,-7.67959 
440 ,80.3285 ,1.49725 ,-0.80321 ,-7.88106 
441 ,80.4886 ,1.49889 ,-0.83743 ,-8.21684 
442 ,80.6647 ,1.50057 ,-0.84427 ,-8.28400 
443 ,80.8568 ,1.50251 ,-0.84085 ,-8.25042 
444 ,81.0327 ,1.50427 ,-0.84427 ,-8.28400 
445 ,81.2089 ,1.50601 ,-0.85796 ,-8.41831 
446 ,81.3850 ,1.50783 ,-0.87165 ,-8.55262 
447 ,81.5609 ,1.50955 ,-0.87849 ,-8.61978 
448 ,81.7371 ,1.51131 ,-0.88876 ,-8.72051 
449 ,81.9132 ,1.51303 ,-0.89903 ,-8.82125 
450 ,82.0892 ,1.51495 ,-0.91272 ,-8.95556 
451 ,82.2654 ,1.51659 ,-0.91614 ,-8.98914 
452 ,82.4413 ,1.51838 ,-0.93325 ,-9.15703 
453 ,82.6335 ,1.52027 ,-0.94351 ,-9.25777 
454 ,82.8095 ,1.52201 ,-0.94694 ,-9.29135 
455 ,82.9857 ,1.52376 ,-0.96405 ,-9.45924 
456 ,83.1615 ,1.52546 ,-0.97431 ,-9.55997 
457 ,83.3378 ,1.52734 ,-0.98800 ,-9.69429 
458 ,83.5138 ,1.52901 ,-0.97089 ,-9.52639 
459 ,83.7060 ,1.53097 ,-0.99827 ,-9.79502 
460 ,83.9298 ,1.53307 ,-1.01196 ,-9.92933 
461 ,84.1057 ,1.53500 ,-1.02907 ,-10.09723 
462 ,84.2820 ,1.53673 ,-1.04276 ,-10.23154 
463 ,84.4743 ,1.53870 ,-1.04618 ,-10.26512 
