Data stamp = , 28-03-2022 23:01:01 826

Calibration Values: 
Slope = , 26.54 , g/V 
Offset Voltage at no contact = , -0.501760 , V 

No , Time , Stage Position ,   Mass , Force 
   ,  (s) ,      (mm)      ,   (g)  , (mN)  

1 ,0.0000 ,0.69942 ,5.38749 ,52.86209 
2 ,0.2180 ,0.69947 ,5.39092 ,52.89567 
3 ,0.5381 ,0.70030 ,5.40118 ,52.99640 
4 ,0.7142 ,0.70167 ,5.38407 ,52.82851 
5 ,0.8904 ,0.70310 ,5.38749 ,52.86209 
6 ,1.0665 ,0.70482 ,5.38407 ,52.82851 
7 ,1.2423 ,0.70645 ,5.40460 ,53.02998 
8 ,1.4182 ,0.70827 ,5.40803 ,53.06356 
9 ,1.5942 ,0.71005 ,5.37038 ,52.69420 
10 ,1.7703 ,0.71181 ,5.36354 ,52.62704 
11 ,1.9466 ,0.71362 ,5.36354 ,52.62704 
12 ,2.1389 ,0.71551 ,5.33616 ,52.35841 
13 ,2.3148 ,0.71731 ,5.30536 ,52.05621 
14 ,2.4910 ,0.71906 ,5.28825 ,51.88832 
15 ,2.6991 ,0.72105 ,5.30194 ,52.02263 
16 ,2.8912 ,0.72306 ,5.25745 ,51.58611 
17 ,3.0832 ,0.72499 ,5.25745 ,51.58611 
18 ,3.2592 ,0.72674 ,5.23007 ,51.31749 
19 ,3.4352 ,0.72849 ,5.19585 ,50.98170 
20 ,3.6114 ,0.73026 ,5.20270 ,51.04886 
21 ,3.8032 ,0.73213 ,5.18216 ,50.84739 
22 ,3.9796 ,0.73395 ,5.17190 ,50.74666 
23 ,4.1557 ,0.73573 ,5.13083 ,50.34372 
24 ,4.3318 ,0.73747 ,5.13083 ,50.34372 
25 ,4.5237 ,0.73943 ,5.12399 ,50.27656 
26 ,4.6996 ,0.74115 ,5.11372 ,50.17583 
27 ,4.8757 ,0.74287 ,5.09319 ,49.97436 
28 ,5.0518 ,0.74468 ,5.06923 ,49.73931 
29 ,5.2438 ,0.74652 ,5.05212 ,49.57142 
30 ,5.4042 ,0.74825 ,5.05212 ,49.57142 
31 ,5.5802 ,0.74993 ,5.03159 ,49.36995 
32 ,5.7560 ,0.75166 ,5.00763 ,49.13490 
33 ,5.9319 ,0.75344 ,5.01106 ,49.16848 
34 ,6.1085 ,0.75526 ,4.99052 ,48.96701 
35 ,6.3006 ,0.75708 ,4.95630 ,48.63122 
36 ,6.4925 ,0.75905 ,4.95288 ,48.59764 
37 ,6.6687 ,0.76080 ,4.94946 ,48.56407 
38 ,6.8447 ,0.76256 ,4.93919 ,48.46333 
39 ,7.0204 ,0.76430 ,4.89812 ,48.06039 
40 ,7.1969 ,0.76605 ,4.87759 ,47.85892 
41 ,7.3730 ,0.76788 ,4.87075 ,47.79177 
42 ,7.5487 ,0.76960 ,4.86048 ,47.69103 
43 ,7.7250 ,0.77138 ,4.85021 ,47.59030 
44 ,7.9012 ,0.77309 ,4.83310 ,47.42240 
45 ,8.0929 ,0.77506 ,4.80230 ,47.12020 
46 ,8.2854 ,0.77698 ,4.79546 ,47.05304 
47 ,8.4773 ,0.77886 ,4.75782 ,46.68368 
48 ,8.6534 ,0.78062 ,4.76124 ,46.71726 
49 ,8.8455 ,0.78255 ,4.73386 ,46.44863 
50 ,9.0375 ,0.78449 ,4.71333 ,46.24716 
51 ,9.2457 ,0.78641 ,4.72359 ,46.34790 
52 ,9.4378 ,0.78846 ,4.67568 ,45.87780 
53 ,9.6137 ,0.79037 ,4.66884 ,45.81065 
54 ,9.7900 ,0.79195 ,4.65515 ,45.67633 
55 ,9.9819 ,0.79383 ,4.64831 ,45.60918 
56 ,10.1582 ,0.79568 ,4.60040 ,45.13908 
57 ,10.3501 ,0.79760 ,4.61066 ,45.23981 
58 ,10.5262 ,0.79940 ,4.59013 ,45.03835 
59 ,10.7022 ,0.80116 ,4.55933 ,44.73614 
60 ,10.8944 ,0.80292 ,4.53195 ,44.46751 
61 ,11.0712 ,0.80480 ,4.53537 ,44.50109 
62 ,11.2790 ,0.80683 ,4.50800 ,44.23247 
63 ,11.4711 ,0.80880 ,4.50800 ,44.23247 
64 ,11.6465 ,0.81056 ,4.48404 ,43.99742 
65 ,11.8388 ,0.81251 ,4.44982 ,43.66163 
66 ,12.0308 ,0.81439 ,4.45324 ,43.69521 
67 ,12.2065 ,0.81617 ,4.41560 ,43.32585 
68 ,12.3827 ,0.81789 ,4.39849 ,43.15796 
69 ,12.5591 ,0.81969 ,4.37795 ,42.95649 
70 ,12.7511 ,0.82157 ,4.37795 ,42.95649 
71 ,12.9428 ,0.82350 ,4.34373 ,42.62071 
72 ,13.1189 ,0.82528 ,4.30951 ,42.28492 
73 ,13.2792 ,0.82700 ,4.31978 ,42.38566 
74 ,13.4553 ,0.82862 ,4.29924 ,42.18419 
75 ,13.6315 ,0.83041 ,4.28898 ,42.08345 
76 ,13.8075 ,0.83219 ,4.25818 ,41.78125 
77 ,13.9836 ,0.83391 ,4.24107 ,41.61336 
78 ,14.1596 ,0.83569 ,4.22738 ,41.47905 
79 ,14.3353 ,0.83740 ,4.20685 ,41.27758 
80 ,14.5118 ,0.83925 ,4.19316 ,41.14326 
81 ,14.7038 ,0.84111 ,4.17262 ,40.94179 
82 ,14.8800 ,0.84289 ,4.15551 ,40.77390 
83 ,15.0721 ,0.84484 ,4.14525 ,40.67317 
84 ,15.2481 ,0.84662 ,4.13156 ,40.53885 
85 ,15.4561 ,0.84856 ,4.10418 ,40.27023 
86 ,15.6481 ,0.85051 ,4.08023 ,40.03518 
87 ,15.8563 ,0.85252 ,4.08023 ,40.03518 
88 ,16.0325 ,0.85443 ,4.05627 ,39.80013 
89 ,16.2085 ,0.85621 ,4.02889 ,39.53150 
90 ,16.3845 ,0.85800 ,4.00494 ,39.29646 
91 ,16.5607 ,0.85968 ,3.98441 ,39.09499 
92 ,16.7528 ,0.86156 ,3.98783 ,39.12856 
93 ,16.9449 ,0.86350 ,3.95703 ,38.82636 
94 ,17.1208 ,0.86526 ,3.93307 ,38.59131 
95 ,17.2971 ,0.86703 ,3.92965 ,38.55773 
96 ,17.4890 ,0.86892 ,3.91254 ,38.38984 
97 ,17.6652 ,0.87076 ,3.89201 ,38.18837 
98 ,17.8731 ,0.87271 ,3.87832 ,38.05406 
99 ,18.0493 ,0.87456 ,3.86463 ,37.91975 
100 ,18.2254 ,0.87637 ,3.85436 ,37.81901 
101 ,18.4013 ,0.87810 ,3.83383 ,37.61754 
102 ,18.5933 ,0.87996 ,3.81672 ,37.44965 
103 ,18.7856 ,0.88188 ,3.78250 ,37.11387 
104 ,18.9779 ,0.88385 ,3.77223 ,37.01313 
105 ,19.1698 ,0.88579 ,3.75512 ,36.84524 
106 ,19.3456 ,0.88755 ,3.74828 ,36.77808 
107 ,19.5217 ,0.88931 ,3.72774 ,36.57661 
108 ,19.6818 ,0.89103 ,3.70379 ,36.34157 
109 ,19.8739 ,0.89277 ,3.71063 ,36.40872 
110 ,20.0500 ,0.89459 ,3.70037 ,36.30799 
111 ,20.2422 ,0.89641 ,3.66957 ,36.00578 
112 ,20.4181 ,0.89829 ,3.62850 ,35.60284 
113 ,20.5942 ,0.89998 ,3.65588 ,35.87147 
114 ,20.7864 ,0.90186 ,3.62850 ,35.60284 
115 ,20.9624 ,0.90373 ,3.60112 ,35.33422 
116 ,21.1385 ,0.90540 ,3.59086 ,35.23348 
117 ,21.3147 ,0.90721 ,3.58059 ,35.13275 
118 ,21.4905 ,0.90911 ,3.54979 ,34.83054 
119 ,21.6666 ,0.91077 ,3.53268 ,34.66265 
120 ,21.8588 ,0.91263 ,3.51899 ,34.52834 
121 ,22.0508 ,0.91447 ,3.50530 ,34.39402 
122 ,22.2430 ,0.91650 ,3.48819 ,34.22613 
123 ,22.4189 ,0.91823 ,3.46424 ,33.99108 
124 ,22.5948 ,0.92002 ,3.45397 ,33.89035 
125 ,22.7872 ,0.92189 ,3.42659 ,33.62172 
126 ,22.9792 ,0.92383 ,3.41290 ,33.48741 
127 ,23.1553 ,0.92561 ,3.40606 ,33.42025 
128 ,23.3313 ,0.92737 ,3.39921 ,33.35310 
129 ,23.5075 ,0.92915 ,3.35473 ,32.91658 
130 ,23.6671 ,0.93085 ,3.35130 ,32.88300 
131 ,23.8436 ,0.93247 ,3.33077 ,32.68153 
132 ,24.0198 ,0.93428 ,3.31366 ,32.51364 
133 ,24.2118 ,0.93617 ,3.30682 ,32.44648 
134 ,24.3875 ,0.93807 ,3.27944 ,32.17786 
135 ,24.5633 ,0.93970 ,3.26917 ,32.07712 
136 ,24.7395 ,0.94142 ,3.24180 ,31.80849 
137 ,24.9155 ,0.94318 ,3.24522 ,31.84207 
138 ,25.0757 ,0.94492 ,3.22811 ,31.67418 
139 ,25.2518 ,0.94657 ,3.20757 ,31.47271 
140 ,25.4282 ,0.94837 ,3.19731 ,31.37198 
141 ,25.6200 ,0.95027 ,3.17335 ,31.13693 
142 ,25.7804 ,0.95196 ,3.16309 ,31.03619 
143 ,25.9564 ,0.95359 ,3.14255 ,30.83472 
144 ,26.1321 ,0.95541 ,3.12202 ,30.63325 
145 ,26.3084 ,0.95709 ,3.10149 ,30.43178 
146 ,26.4846 ,0.95888 ,3.09122 ,30.33105 
147 ,26.6607 ,0.96065 ,3.06042 ,30.02884 
148 ,26.8207 ,0.96237 ,3.07069 ,30.12958 
149 ,26.9809 ,0.96400 ,3.03989 ,29.82737 
150 ,27.1408 ,0.96556 ,3.02278 ,29.65948 
151 ,27.3169 ,0.96720 ,3.01935 ,29.62590 
152 ,27.4930 ,0.96897 ,3.00909 ,29.52517 
153 ,27.6851 ,0.97083 ,2.95776 ,29.02150 
154 ,27.8611 ,0.97263 ,2.93722 ,28.82003 
155 ,28.0373 ,0.97442 ,2.93722 ,28.82003 
156 ,28.2132 ,0.97618 ,2.93722 ,28.82003 
157 ,28.4053 ,0.97809 ,2.88589 ,28.31635 
158 ,28.5814 ,0.97989 ,2.87562 ,28.21562 
159 ,28.7896 ,0.98181 ,2.87220 ,28.18204 
160 ,28.9661 ,0.98373 ,2.84825 ,27.94699 
161 ,29.1417 ,0.98558 ,2.83798 ,27.84625 
162 ,29.3180 ,0.98726 ,2.83114 ,27.77910 
163 ,29.4937 ,0.98908 ,2.80718 ,27.54405 
164 ,29.6699 ,0.99073 ,2.77980 ,27.27542 
165 ,29.8460 ,0.99246 ,2.75927 ,27.07395 
166 ,30.0220 ,0.99437 ,2.75243 ,27.00680 
167 ,30.2302 ,0.99620 ,2.73874 ,26.87248 
168 ,30.4223 ,0.99825 ,2.70794 ,26.57028 
169 ,30.6140 ,1.00016 ,2.70794 ,26.57028 
170 ,30.7904 ,1.00194 ,2.68398 ,26.33523 
171 ,30.9821 ,1.00379 ,2.66687 ,26.16734 
172 ,31.1585 ,1.00560 ,2.65660 ,26.06661 
173 ,31.3507 ,1.00751 ,2.61896 ,25.69724 
174 ,31.5428 ,1.00947 ,2.60185 ,25.52935 
175 ,31.7187 ,1.01124 ,2.60527 ,25.56293 
176 ,31.9108 ,1.01313 ,2.58474 ,25.36146 
177 ,32.0709 ,1.01484 ,2.54367 ,24.95852 
178 ,32.2468 ,1.01651 ,2.55052 ,25.02568 
179 ,32.4390 ,1.01838 ,2.54025 ,24.92494 
180 ,32.6149 ,1.02013 ,2.53341 ,24.85779 
181 ,32.7912 ,1.02195 ,2.51630 ,24.68989 
182 ,32.9831 ,1.02377 ,2.48207 ,24.35411 
183 ,33.1592 ,1.02558 ,2.47865 ,24.32053 
184 ,33.3514 ,1.02752 ,2.46496 ,24.18622 
185 ,33.5275 ,1.02930 ,2.43074 ,23.85044 
186 ,33.7035 ,1.03103 ,2.42048 ,23.74970 
187 ,33.8957 ,1.03303 ,2.41363 ,23.68255 
188 ,34.0718 ,1.03472 ,2.41021 ,23.64897 
189 ,34.2638 ,1.03663 ,2.36572 ,23.21245 
190 ,34.4400 ,1.03841 ,2.36230 ,23.17887 
191 ,34.6160 ,1.04021 ,2.35203 ,23.07814 
192 ,34.8078 ,1.04207 ,2.31439 ,22.70877 
193 ,35.0001 ,1.04402 ,2.32465 ,22.80951 
194 ,35.1601 ,1.04571 ,2.31097 ,22.67520 
195 ,35.3363 ,1.04737 ,2.27332 ,22.30584 
196 ,35.5281 ,1.04921 ,2.26648 ,22.23868 
197 ,35.7044 ,1.05107 ,2.23226 ,21.90290 
198 ,35.8805 ,1.05285 ,2.22199 ,21.80216 
199 ,36.0564 ,1.05459 ,2.21857 ,21.76858 
200 ,36.2326 ,1.05636 ,2.21515 ,21.73500 
201 ,36.4247 ,1.05821 ,2.18777 ,21.46638 
202 ,36.6167 ,1.06024 ,2.18092 ,21.39922 
203 ,36.8088 ,1.06212 ,2.15012 ,21.09702 
204 ,36.9850 ,1.06386 ,2.13301 ,20.92912 
205 ,37.1610 ,1.06565 ,2.12959 ,20.89555 
206 ,37.3531 ,1.06756 ,2.13644 ,20.96270 
207 ,37.5452 ,1.06944 ,2.10221 ,20.62692 
208 ,37.7052 ,1.07117 ,2.09195 ,20.52619 
209 ,37.8971 ,1.07295 ,2.08510 ,20.45903 
210 ,38.0893 ,1.07485 ,2.04404 ,20.05609 
211 ,38.2651 ,1.07664 ,2.03035 ,19.92178 
212 ,38.4415 ,1.07846 ,2.02350 ,19.85462 
213 ,38.6494 ,1.08040 ,2.00639 ,19.68673 
214 ,38.8257 ,1.08226 ,1.98244 ,19.45168 
215 ,39.0017 ,1.08406 ,1.97559 ,19.38452 
216 ,39.1939 ,1.08584 ,1.97217 ,19.35094 
217 ,39.3695 ,1.08770 ,1.93795 ,19.01516 
218 ,39.5619 ,1.08954 ,1.93453 ,18.98158 
219 ,39.7541 ,1.09143 ,1.93795 ,19.01516 
220 ,39.9299 ,1.09331 ,1.89004 ,18.54507 
221 ,40.1061 ,1.09506 ,1.87293 ,18.37717 
222 ,40.2822 ,1.09678 ,1.87293 ,18.37717 
223 ,40.4744 ,1.09871 ,1.86608 ,18.31002 
224 ,40.6501 ,1.10051 ,1.84213 ,18.07497 
225 ,40.8424 ,1.10236 ,1.83528 ,18.00781 
226 ,41.0185 ,1.10420 ,1.82502 ,17.90708 
227 ,41.1946 ,1.10595 ,1.80449 ,17.70561 
228 ,41.3862 ,1.10777 ,1.78737 ,17.53772 
229 ,41.5626 ,1.10958 ,1.77026 ,17.36983 
230 ,41.7384 ,1.11134 ,1.76684 ,17.33625 
231 ,41.9469 ,1.11334 ,1.73946 ,17.06762 
232 ,42.1387 ,1.11525 ,1.73262 ,17.00046 
233 ,42.3150 ,1.11711 ,1.71551 ,16.83257 
234 ,42.4910 ,1.11885 ,1.70524 ,16.73184 
235 ,42.6831 ,1.12069 ,1.67786 ,16.46321 
236 ,42.8593 ,1.12258 ,1.68813 ,16.56395 
237 ,43.0352 ,1.12431 ,1.66418 ,16.32890 
238 ,43.2114 ,1.12611 ,1.64022 ,16.09385 
239 ,43.4195 ,1.12808 ,1.62995 ,15.99311 
240 ,43.6115 ,1.13012 ,1.61969 ,15.89238 
241 ,43.8036 ,1.13203 ,1.59573 ,15.65733 
242 ,43.9801 ,1.13379 ,1.60258 ,15.72449 
243 ,44.1717 ,1.13573 ,1.56151 ,15.32155 
244 ,44.3479 ,1.13742 ,1.55124 ,15.22081 
245 ,44.5399 ,1.13939 ,1.55809 ,15.28797 
246 ,44.7157 ,1.14111 ,1.53756 ,15.08650 
247 ,44.8920 ,1.14288 ,1.51702 ,14.88503 
248 ,45.0681 ,1.14463 ,1.48965 ,14.61640 
249 ,45.2602 ,1.14650 ,1.49649 ,14.68356 
250 ,45.4362 ,1.14835 ,1.49307 ,14.64998 
251 ,45.6284 ,1.15026 ,1.44516 ,14.17989 
252 ,45.8203 ,1.15214 ,1.46569 ,14.38136 
253 ,45.9964 ,1.15395 ,1.44174 ,14.14631 
254 ,46.1884 ,1.15586 ,1.41436 ,13.87768 
255 ,46.3644 ,1.15766 ,1.41778 ,13.91126 
256 ,46.5568 ,1.15953 ,1.40067 ,13.74337 
257 ,46.7646 ,1.16145 ,1.38356 ,13.57548 
258 ,46.9733 ,1.16360 ,1.35618 ,13.30685 
259 ,47.1488 ,1.16546 ,1.33907 ,13.13896 
260 ,47.3411 ,1.16733 ,1.32880 ,13.03822 
261 ,47.5327 ,1.16921 ,1.33223 ,13.07180 
262 ,47.7091 ,1.17106 ,1.30485 ,12.80318 
263 ,47.8689 ,1.17275 ,1.30143 ,12.76960 
264 ,48.0449 ,1.17443 ,1.27747 ,12.53455 
265 ,48.2209 ,1.17613 ,1.27063 ,12.46739 
266 ,48.3975 ,1.17789 ,1.27405 ,12.50097 
267 ,48.5896 ,1.17991 ,1.24667 ,12.23235 
268 ,48.7655 ,1.18166 ,1.22956 ,12.06445 
269 ,48.9576 ,1.18348 ,1.21929 ,11.96372 
270 ,49.1498 ,1.18534 ,1.19534 ,11.72867 
271 ,49.3260 ,1.18721 ,1.19192 ,11.69509 
272 ,49.5179 ,1.18912 ,1.18850 ,11.66151 
273 ,49.6937 ,1.19090 ,1.15085 ,11.29215 
274 ,49.8702 ,1.19263 ,1.13716 ,11.15784 
275 ,50.0780 ,1.19469 ,1.14401 ,11.22500 
276 ,50.2540 ,1.19651 ,1.10979 ,10.88921 
277 ,50.4303 ,1.19824 ,1.10636 ,10.85563 
278 ,50.6223 ,1.20011 ,1.09610 ,10.75490 
279 ,50.8144 ,1.20210 ,1.08925 ,10.68774 
280 ,50.9903 ,1.20382 ,1.06872 ,10.48627 
281 ,51.1666 ,1.20565 ,1.05845 ,10.38554 
282 ,51.3423 ,1.20740 ,1.05161 ,10.31838 
283 ,51.5187 ,1.20914 ,1.03450 ,10.15049 
284 ,51.6947 ,1.21086 ,1.00370 ,9.84829 
285 ,51.8710 ,1.21264 ,1.01054 ,9.91544 
286 ,52.0470 ,1.21445 ,0.99343 ,9.74755 
287 ,52.2390 ,1.21627 ,0.97290 ,9.54608 
288 ,52.4150 ,1.21808 ,0.97290 ,9.54608 
289 ,52.5912 ,1.21989 ,0.95237 ,9.34461 
290 ,52.7673 ,1.22164 ,0.93183 ,9.14314 
291 ,52.9432 ,1.22339 ,0.93868 ,9.21030 
292 ,53.1352 ,1.22529 ,0.93183 ,9.14314 
293 ,53.3112 ,1.22701 ,0.91130 ,8.94167 
294 ,53.5035 ,1.22889 ,0.91472 ,8.97525 
295 ,53.6794 ,1.23070 ,0.88392 ,8.67305 
296 ,53.8553 ,1.23251 ,0.87023 ,8.53873 
297 ,54.0318 ,1.23427 ,0.84286 ,8.27011 
298 ,54.2238 ,1.23608 ,0.84628 ,8.30368 
299 ,54.3999 ,1.23798 ,0.83943 ,8.23653 
300 ,54.5920 ,1.23978 ,0.81890 ,8.03506 
301 ,54.7680 ,1.24172 ,0.82917 ,8.13579 
302 ,54.9602 ,1.24351 ,0.80179 ,7.86717 
303 ,55.1361 ,1.24529 ,0.77784 ,7.63212 
304 ,55.3122 ,1.24700 ,0.75730 ,7.43065 
305 ,55.5041 ,1.24895 ,0.77441 ,7.59854 
306 ,55.6803 ,1.25071 ,0.75730 ,7.43065 
307 ,55.8564 ,1.25249 ,0.75388 ,7.39707 
308 ,56.0324 ,1.25426 ,0.71281 ,6.99413 
309 ,56.2245 ,1.25612 ,0.70597 ,6.92697 
310 ,56.4004 ,1.25790 ,0.71966 ,7.06129 
311 ,56.5770 ,1.25965 ,0.69570 ,6.82624 
312 ,56.7527 ,1.26144 ,0.67175 ,6.59119 
313 ,56.9290 ,1.26323 ,0.66490 ,6.52403 
314 ,57.1048 ,1.26497 ,0.65806 ,6.45688 
315 ,57.2810 ,1.26675 ,0.64095 ,6.28899 
316 ,57.4571 ,1.26847 ,0.62726 ,6.15467 
317 ,57.6491 ,1.27045 ,0.61357 ,6.02036 
318 ,57.8253 ,1.27217 ,0.61015 ,5.98678 
319 ,58.0169 ,1.27414 ,0.58619 ,5.75173 
320 ,58.1930 ,1.27592 ,0.56566 ,5.55026 
321 ,58.3533 ,1.27755 ,0.55539 ,5.44953 
322 ,58.5295 ,1.27918 ,0.55197 ,5.41595 
323 ,58.7053 ,1.28097 ,0.55882 ,5.48311 
324 ,58.8817 ,1.28274 ,0.54171 ,5.31522 
325 ,59.0577 ,1.28454 ,0.52459 ,5.14732 
326 ,59.2339 ,1.28626 ,0.50406 ,4.94585 
327 ,59.4260 ,1.28817 ,0.50748 ,4.97943 
328 ,59.6020 ,1.28995 ,0.49380 ,4.84512 
329 ,59.7940 ,1.29186 ,0.47326 ,4.64365 
330 ,59.9857 ,1.29377 ,0.46984 ,4.61007 
331 ,60.1618 ,1.29552 ,0.45615 ,4.47576 
332 ,60.3383 ,1.29725 ,0.42877 ,4.20713 
333 ,60.5304 ,1.29919 ,0.41166 ,4.03924 
334 ,60.7063 ,1.30099 ,0.42193 ,4.13997 
335 ,60.8825 ,1.30276 ,0.40482 ,3.97208 
336 ,61.0586 ,1.30447 ,0.39455 ,3.87135 
337 ,61.2346 ,1.30623 ,0.36718 ,3.60272 
338 ,61.4106 ,1.30801 ,0.36033 ,3.53557 
339 ,61.5867 ,1.30973 ,0.36033 ,3.53557 
340 ,61.7625 ,1.31164 ,0.35006 ,3.43483 
341 ,61.9385 ,1.31330 ,0.34664 ,3.40125 
342 ,62.1145 ,1.31502 ,0.31926 ,3.13263 
343 ,62.2908 ,1.31684 ,0.30215 ,2.96473 
344 ,62.5151 ,1.31891 ,0.30900 ,3.03189 
345 ,62.7234 ,1.32110 ,0.29531 ,2.89758 
346 ,62.8993 ,1.32292 ,0.27478 ,2.69611 
347 ,63.0913 ,1.32480 ,0.24740 ,2.42748 
348 ,63.2671 ,1.32657 ,0.26793 ,2.62895 
349 ,63.4436 ,1.32833 ,0.25082 ,2.46106 
350 ,63.6197 ,1.33009 ,0.24398 ,2.39390 
351 ,63.7956 ,1.33183 ,0.22687 ,2.22601 
352 ,63.9877 ,1.33374 ,0.22002 ,2.15885 
353 ,64.1801 ,1.33556 ,0.20633 ,2.02454 
354 ,64.3718 ,1.33763 ,0.17553 ,1.72234 
355 ,64.5636 ,1.33948 ,0.17553 ,1.72234 
356 ,64.7400 ,1.34130 ,0.15842 ,1.55445 
357 ,64.9162 ,1.34302 ,0.14131 ,1.38655 
358 ,65.0921 ,1.34484 ,0.12078 ,1.18508 
359 ,65.2683 ,1.34661 ,0.13789 ,1.35298 
360 ,65.4283 ,1.34831 ,0.11736 ,1.15151 
361 ,65.6043 ,1.34993 ,0.11051 ,1.08435 
362 ,65.7807 ,1.35172 ,0.09682 ,0.95004 
363 ,65.9732 ,1.35363 ,0.06945 ,0.68141 
364 ,66.1487 ,1.35540 ,0.06260 ,0.61425 
365 ,66.3248 ,1.35712 ,0.05918 ,0.58067 
366 ,66.5008 ,1.35889 ,0.04549 ,0.44636 
367 ,66.7088 ,1.36092 ,0.02496 ,0.24489 
368 ,66.8850 ,1.36274 ,0.01469 ,0.14416 
369 ,67.0771 ,1.36465 ,-0.01611 ,-0.15805 
370 ,67.2692 ,1.36656 ,-0.01611 ,-0.15805 
371 ,67.4609 ,1.36840 ,-0.01269 ,-0.12447 
372 ,67.6533 ,1.37038 ,-0.03664 ,-0.35952 
373 ,67.8293 ,1.37220 ,-0.05033 ,-0.49383 
374 ,68.0214 ,1.37408 ,-0.06402 ,-0.62814 
375 ,68.1973 ,1.37583 ,-0.07771 ,-0.76246 
376 ,68.3732 ,1.37761 ,-0.10166 ,-0.99751 
377 ,68.5332 ,1.37931 ,-0.10851 ,-1.06466 
378 ,68.7256 ,1.38106 ,-0.11193 ,-1.09824 
379 ,68.9017 ,1.38291 ,-0.10851 ,-1.06466 
380 ,69.0779 ,1.38463 ,-0.13931 ,-1.36687 
381 ,69.2698 ,1.38657 ,-0.14615 ,-1.43402 
382 ,69.4460 ,1.38832 ,-0.15299 ,-1.50118 
383 ,69.6220 ,1.39009 ,-0.16326 ,-1.60191 
384 ,69.7980 ,1.39185 ,-0.18722 ,-1.83696 
385 ,69.9748 ,1.39363 ,-0.20090 ,-1.97128 
386 ,70.1503 ,1.39539 ,-0.20090 ,-1.97128 
387 ,70.3261 ,1.39714 ,-0.21117 ,-2.07201 
388 ,70.5025 ,1.39890 ,-0.22144 ,-2.17275 
389 ,70.6943 ,1.40073 ,-0.23513 ,-2.30706 
390 ,70.8706 ,1.40255 ,-0.25566 ,-2.50853 
391 ,71.0624 ,1.40452 ,-0.26935 ,-2.64284 
392 ,71.2387 ,1.40629 ,-0.28646 ,-2.81073 
393 ,71.4148 ,1.40800 ,-0.31041 ,-3.04578 
394 ,71.6069 ,1.40994 ,-0.28646 ,-2.81073 
395 ,71.7989 ,1.41185 ,-0.31384 ,-3.07936 
396 ,71.9910 ,1.41374 ,-0.33095 ,-3.24725 
397 ,72.1671 ,1.41555 ,-0.32752 ,-3.21367 
398 ,72.3432 ,1.41731 ,-0.35148 ,-3.44872 
399 ,72.5352 ,1.41912 ,-0.36859 ,-3.61661 
400 ,72.7108 ,1.42094 ,-0.37886 ,-3.71735 
401 ,72.8875 ,1.42273 ,-0.38912 ,-3.81808 
402 ,73.0955 ,1.42472 ,-0.40966 ,-4.01955 
403 ,73.2715 ,1.42658 ,-0.42335 ,-4.15387 
404 ,73.4476 ,1.42833 ,-0.41308 ,-4.05313 
405 ,73.6237 ,1.43011 ,-0.43361 ,-4.25460 
406 ,73.7999 ,1.43183 ,-0.45757 ,-4.48965 
407 ,73.9760 ,1.43364 ,-0.45757 ,-4.48965 
408 ,74.1519 ,1.43536 ,-0.47126 ,-4.62396 
409 ,74.3120 ,1.43708 ,-0.47126 ,-4.62396 
410 ,74.4882 ,1.43874 ,-0.48494 ,-4.75828 
411 ,74.6640 ,1.44055 ,-0.48837 ,-4.79185 
412 ,74.8404 ,1.44227 ,-0.51917 ,-5.09406 
413 ,75.0485 ,1.44423 ,-0.52943 ,-5.19479 
414 ,75.2406 ,1.44616 ,-0.53628 ,-5.26195 
415 ,75.4327 ,1.44817 ,-0.54312 ,-5.32911 
416 ,75.6086 ,1.44995 ,-0.54312 ,-5.32911 
417 ,75.8007 ,1.45180 ,-0.57392 ,-5.63131 
418 ,75.9930 ,1.45374 ,-0.57050 ,-5.59773 
419 ,76.1689 ,1.45552 ,-0.57734 ,-5.66489 
420 ,76.3450 ,1.45729 ,-0.60814 ,-5.96709 
421 ,76.5370 ,1.45920 ,-0.61499 ,-6.03425 
422 ,76.7131 ,1.46098 ,-0.62183 ,-6.10141 
423 ,76.8888 ,1.46273 ,-0.62183 ,-6.10141 
424 ,77.0652 ,1.46451 ,-0.63210 ,-6.20214 
425 ,77.2734 ,1.46653 ,-0.64236 ,-6.30288 
426 ,77.4492 ,1.46836 ,-0.65605 ,-6.43719 
427 ,77.6253 ,1.47012 ,-0.66632 ,-6.53793 
428 ,77.8015 ,1.47194 ,-0.68685 ,-6.73940 
429 ,77.9781 ,1.47362 ,-0.70739 ,-6.94086 
430 ,78.1536 ,1.47543 ,-0.71081 ,-6.97444 
431 ,78.3297 ,1.47710 ,-0.69712 ,-6.84013 
432 ,78.5058 ,1.47884 ,-0.71765 ,-7.04160 
433 ,78.6818 ,1.48072 ,-0.73476 ,-7.20949 
434 ,78.8580 ,1.48244 ,-0.74845 ,-7.34380 
435 ,79.0661 ,1.48443 ,-0.72107 ,-7.07518 
436 ,79.2741 ,1.48663 ,-0.75187 ,-7.37738 
437 ,79.4660 ,1.48851 ,-0.75530 ,-7.41096 
438 ,79.6423 ,1.49025 ,-0.77925 ,-7.64601 
439 ,79.8183 ,1.49200 ,-0.79636 ,-7.81390 
440 ,79.9940 ,1.49379 ,-0.80321 ,-7.88106 
441 ,80.1706 ,1.49555 ,-0.79636 ,-7.81390 
442 ,80.3464 ,1.49735 ,-0.81005 ,-7.94821 
443 ,80.5387 ,1.49913 ,-0.82374 ,-8.08253 
444 ,80.7145 ,1.50096 ,-0.85112 ,-8.35115 
445 ,80.8908 ,1.50277 ,-0.83743 ,-8.21684 
446 ,81.0828 ,1.50455 ,-0.85112 ,-8.35115 
447 ,81.2587 ,1.50644 ,-0.87165 ,-8.55262 
448 ,81.4349 ,1.50819 ,-0.88192 ,-8.65336 
449 ,81.5951 ,1.50990 ,-0.88876 ,-8.72051 
450 ,81.7708 ,1.51154 ,-0.87849 ,-8.61978 
451 ,81.9472 ,1.51331 ,-0.88876 ,-8.72051 
452 ,82.1390 ,1.51519 ,-0.92640 ,-9.08988 
453 ,82.3313 ,1.51702 ,-0.92298 ,-9.05630 
454 ,82.5074 ,1.51889 ,-0.92640 ,-9.08988 
455 ,82.6835 ,1.52065 ,-0.95036 ,-9.32492 
456 ,82.8757 ,1.52262 ,-0.95720 ,-9.39208 
457 ,83.0515 ,1.52433 ,-0.97089 ,-9.52639 
458 ,83.2437 ,1.52625 ,-0.98458 ,-9.66071 
459 ,83.4518 ,1.52826 ,-0.98800 ,-9.69429 
460 ,83.6439 ,1.53029 ,-1.00511 ,-9.86218 
461 ,83.8198 ,1.53201 ,-1.02907 ,-10.09723 
462 ,84.0120 ,1.53392 ,-1.00511 ,-9.86218 
463 ,84.1878 ,1.53570 ,-1.02907 ,-10.09723 
