Data stamp = , 28-03-2022 18:34:52 773

Calibration Values: 
Slope = , 26.54 , g/V 
Offset Voltage at no contact = , -0.501760 , V 

No , Time , Stage Position ,   Mass , Force 
   ,  (s) ,      (mm)      ,   (g)  , (mN)  

1 ,0.0000 ,0.69951 ,5.20954 ,51.11602 
2 ,0.2118 ,0.69957 ,5.21296 ,51.14960 
3 ,0.5804 ,0.70059 ,5.22665 ,51.28391 
4 ,0.7722 ,0.70224 ,5.21296 ,51.14960 
5 ,0.9484 ,0.70378 ,5.21981 ,51.21675 
6 ,1.1562 ,0.70572 ,5.20954 ,51.11602 
7 ,1.3322 ,0.70751 ,5.23692 ,51.38464 
8 ,1.5083 ,0.70933 ,5.20954 ,51.11602 
9 ,1.6847 ,0.71114 ,5.21296 ,51.14960 
10 ,1.8928 ,0.71323 ,5.18216 ,50.84739 
11 ,2.0848 ,0.71518 ,5.17532 ,50.78023 
12 ,2.2610 ,0.71693 ,5.17532 ,50.78023 
13 ,2.4695 ,0.71897 ,5.15821 ,50.61234 
14 ,2.6451 ,0.72083 ,5.15821 ,50.61234 
15 ,2.8215 ,0.72251 ,5.14794 ,50.51161 
16 ,2.9973 ,0.72426 ,5.13768 ,50.41087 
17 ,3.2214 ,0.72630 ,5.12056 ,50.24298 
18 ,3.3974 ,0.72825 ,5.10688 ,50.10867 
19 ,3.5895 ,0.73010 ,5.08977 ,49.94078 
20 ,3.7656 ,0.73193 ,5.08634 ,49.90720 
21 ,3.9416 ,0.73370 ,5.08634 ,49.90720 
22 ,4.1015 ,0.73542 ,5.05212 ,49.57142 
23 ,4.2778 ,0.73700 ,5.04870 ,49.53784 
24 ,4.4540 ,0.73882 ,5.03159 ,49.36995 
25 ,4.6457 ,0.74079 ,5.00763 ,49.13490 
26 ,4.8221 ,0.74248 ,5.02474 ,49.30279 
27 ,4.9981 ,0.74426 ,5.00079 ,49.06774 
28 ,5.1743 ,0.74598 ,4.97341 ,48.79911 
29 ,5.3500 ,0.74780 ,4.95972 ,48.66480 
30 ,5.5424 ,0.74962 ,4.95630 ,48.63122 
31 ,5.7183 ,0.75147 ,4.93919 ,48.46333 
32 ,5.9105 ,0.75341 ,4.91181 ,48.19471 
33 ,6.0705 ,0.75512 ,4.91181 ,48.19471 
34 ,6.2465 ,0.75679 ,4.89812 ,48.06039 
35 ,6.4227 ,0.75850 ,4.89128 ,47.99324 
36 ,6.6308 ,0.76045 ,4.86048 ,47.69103 
37 ,6.8229 ,0.76242 ,4.85706 ,47.65745 
38 ,7.0147 ,0.76444 ,4.83995 ,47.48956 
39 ,7.1907 ,0.76618 ,4.81257 ,47.22093 
40 ,7.3506 ,0.76788 ,4.80915 ,47.18736 
41 ,7.5271 ,0.76953 ,4.80230 ,47.12020 
42 ,7.7190 ,0.77141 ,4.78861 ,46.98589 
43 ,7.8953 ,0.77322 ,4.76124 ,46.71726 
44 ,8.0712 ,0.77498 ,4.74755 ,46.58295 
45 ,8.2795 ,0.77692 ,4.73386 ,46.44863 
46 ,8.4720 ,0.77901 ,4.69279 ,46.04569 
47 ,8.6476 ,0.78075 ,4.69964 ,46.11285 
48 ,8.8556 ,0.78272 ,4.68595 ,45.97854 
49 ,9.0477 ,0.78472 ,4.65515 ,45.67633 
50 ,9.2077 ,0.78642 ,4.66199 ,45.74349 
51 ,9.3837 ,0.78807 ,4.64488 ,45.57560 
52 ,9.5599 ,0.78979 ,4.62093 ,45.34055 
53 ,9.7360 ,0.79161 ,4.59013 ,45.03835 
54 ,9.9281 ,0.79341 ,4.57302 ,44.87045 
55 ,10.1199 ,0.79543 ,4.57302 ,44.87045 
56 ,10.2963 ,0.79720 ,4.55933 ,44.73614 
57 ,10.4884 ,0.79918 ,4.54564 ,44.60183 
58 ,10.6804 ,0.80106 ,4.53195 ,44.46751 
59 ,10.8564 ,0.80278 ,4.51826 ,44.33320 
60 ,11.0325 ,0.80456 ,4.49773 ,44.13173 
61 ,11.1923 ,0.80629 ,4.47378 ,43.89668 
62 ,11.3685 ,0.80795 ,4.46693 ,43.82953 
63 ,11.5447 ,0.80972 ,4.46693 ,43.82953 
64 ,11.7208 ,0.81147 ,4.44982 ,43.66163 
65 ,11.8969 ,0.81321 ,4.41902 ,43.35943 
66 ,12.0887 ,0.81509 ,4.40191 ,43.19154 
67 ,12.2487 ,0.81683 ,4.39849 ,43.15796 
68 ,12.4250 ,0.81849 ,4.39849 ,43.15796 
69 ,12.6331 ,0.82044 ,4.36427 ,42.82218 
70 ,12.8089 ,0.82232 ,4.33689 ,42.55355 
71 ,12.9851 ,0.82409 ,4.33004 ,42.48639 
72 ,13.1772 ,0.82604 ,4.33004 ,42.48639 
73 ,13.3532 ,0.82779 ,4.28213 ,42.01630 
74 ,13.5296 ,0.82954 ,4.26502 ,41.84841 
75 ,13.7056 ,0.83135 ,4.26160 ,41.81483 
76 ,13.8815 ,0.83304 ,4.26502 ,41.84841 
77 ,14.0578 ,0.83480 ,4.23765 ,41.57978 
78 ,14.2497 ,0.83672 ,4.21369 ,41.34473 
79 ,14.4419 ,0.83860 ,4.18974 ,41.10968 
80 ,14.6339 ,0.84054 ,4.16920 ,40.90821 
81 ,14.8101 ,0.84237 ,4.15894 ,40.80748 
82 ,14.9861 ,0.84411 ,4.14525 ,40.67317 
83 ,15.1622 ,0.84585 ,4.14525 ,40.67317 
84 ,15.3539 ,0.84779 ,4.11103 ,40.33738 
85 ,15.5303 ,0.84951 ,4.09391 ,40.16949 
86 ,15.7064 ,0.85127 ,4.08707 ,40.10233 
87 ,15.8825 ,0.85309 ,4.07680 ,40.00160 
88 ,16.0748 ,0.85497 ,4.04600 ,39.69940 
89 ,16.2665 ,0.85691 ,4.03916 ,39.63224 
90 ,16.4422 ,0.85862 ,4.02889 ,39.53150 
91 ,16.6187 ,0.86032 ,4.00494 ,39.29646 
92 ,16.7948 ,0.86214 ,3.96387 ,38.89352 
93 ,16.9711 ,0.86394 ,3.96045 ,38.85994 
94 ,17.1466 ,0.86572 ,3.96045 ,38.85994 
95 ,17.3230 ,0.86745 ,3.94676 ,38.72562 
96 ,17.5150 ,0.86942 ,3.90912 ,38.35626 
97 ,17.6911 ,0.87112 ,3.89543 ,38.22195 
98 ,17.8673 ,0.87287 ,3.88516 ,38.12122 
99 ,18.0434 ,0.87468 ,3.87832 ,38.05406 
100 ,18.2193 ,0.87637 ,3.85094 ,37.78543 
101 ,18.3954 ,0.87818 ,3.83383 ,37.61754 
102 ,18.5555 ,0.87988 ,3.80303 ,37.31534 
103 ,18.7316 ,0.88149 ,3.80645 ,37.34891 
104 ,18.9075 ,0.88332 ,3.79276 ,37.21460 
105 ,19.0837 ,0.88507 ,3.77908 ,37.08029 
106 ,19.2598 ,0.88679 ,3.76196 ,36.91240 
107 ,19.4358 ,0.88863 ,3.74143 ,36.71093 
108 ,19.6119 ,0.89038 ,3.72090 ,36.50946 
109 ,19.7881 ,0.89210 ,3.72432 ,36.54303 
110 ,19.9641 ,0.89388 ,3.70721 ,36.37514 
111 ,20.1398 ,0.89558 ,3.69010 ,36.20725 
112 ,20.3161 ,0.89740 ,3.65588 ,35.87147 
113 ,20.5243 ,0.89937 ,3.64561 ,35.77073 
114 ,20.7163 ,0.90140 ,3.63534 ,35.67000 
115 ,20.9084 ,0.90326 ,3.62508 ,35.56926 
116 ,21.0845 ,0.90503 ,3.61481 ,35.46853 
117 ,21.2767 ,0.90692 ,3.57375 ,35.06559 
118 ,21.4527 ,0.90871 ,3.56348 ,34.96485 
119 ,21.6285 ,0.91049 ,3.56690 ,34.99843 
120 ,21.8048 ,0.91230 ,3.55321 ,34.86412 
121 ,21.9965 ,0.91415 ,3.52584 ,34.59549 
122 ,22.1732 ,0.91591 ,3.50188 ,34.36045 
123 ,22.3649 ,0.91782 ,3.50188 ,34.36045 
124 ,22.5571 ,0.91966 ,3.48477 ,34.19255 
125 ,22.7491 ,0.92169 ,3.45739 ,33.92393 
126 ,22.9253 ,0.92349 ,3.44713 ,33.82319 
127 ,23.1172 ,0.92531 ,3.41633 ,33.52099 
128 ,23.2934 ,0.92712 ,3.40264 ,33.38667 
129 ,23.4700 ,0.92891 ,3.38210 ,33.18520 
130 ,23.6616 ,0.93072 ,3.38895 ,33.25236 
131 ,23.8375 ,0.93254 ,3.34788 ,32.84942 
132 ,24.0456 ,0.93464 ,3.33762 ,32.74869 
133 ,24.2218 ,0.93642 ,3.34104 ,32.78227 
134 ,24.3978 ,0.93820 ,3.31024 ,32.48006 
135 ,24.5740 ,0.93992 ,3.28286 ,32.21143 
136 ,24.7499 ,0.94171 ,3.26575 ,32.04354 
137 ,24.9260 ,0.94343 ,3.26917 ,32.07712 
138 ,25.1182 ,0.94530 ,3.26233 ,32.00996 
139 ,25.2940 ,0.94712 ,3.21784 ,31.57345 
140 ,25.4540 ,0.94881 ,3.21442 ,31.53987 
141 ,25.6463 ,0.95059 ,3.20073 ,31.40555 
142 ,25.8222 ,0.95243 ,3.16993 ,31.10335 
143 ,25.9985 ,0.95415 ,3.15624 ,30.96904 
144 ,26.1741 ,0.95595 ,3.13913 ,30.80115 
145 ,26.3506 ,0.95767 ,3.13913 ,30.80115 
146 ,26.5266 ,0.95947 ,3.12544 ,30.66683 
147 ,26.7188 ,0.96127 ,3.09806 ,30.39821 
148 ,26.9108 ,0.96328 ,3.07753 ,30.19674 
149 ,27.0870 ,0.96502 ,3.06042 ,30.02884 
150 ,27.2630 ,0.96678 ,3.05015 ,29.92811 
151 ,27.4390 ,0.96863 ,3.00909 ,29.52517 
152 ,27.6150 ,0.97031 ,3.00567 ,29.49159 
153 ,27.7908 ,0.97206 ,2.98855 ,29.32370 
154 ,27.9672 ,0.97385 ,2.99198 ,29.35728 
155 ,28.1589 ,0.97564 ,2.95776 ,29.02150 
156 ,28.3354 ,0.97748 ,2.93038 ,28.75287 
157 ,28.5275 ,0.97933 ,2.91327 ,28.58498 
158 ,28.7035 ,0.98123 ,2.91669 ,28.61856 
159 ,28.8797 ,0.98302 ,2.88931 ,28.34993 
160 ,29.0557 ,0.98474 ,2.87220 ,28.18204 
161 ,29.2318 ,0.98656 ,2.86878 ,28.14846 
162 ,29.4079 ,0.98825 ,2.85851 ,28.04772 
163 ,29.5840 ,0.99000 ,2.84140 ,27.87983 
164 ,29.7601 ,0.99182 ,2.80718 ,27.54405 
165 ,29.9362 ,0.99356 ,2.77980 ,27.27542 
166 ,30.1120 ,0.99528 ,2.78322 ,27.30900 
167 ,30.2882 ,0.99707 ,2.77296 ,27.20827 
168 ,30.4478 ,0.99875 ,2.76269 ,27.10753 
169 ,30.6079 ,1.00038 ,2.75585 ,27.04038 
170 ,30.7680 ,1.00197 ,2.72847 ,26.77175 
171 ,30.9440 ,1.00360 ,2.72163 ,26.70459 
172 ,31.1201 ,1.00536 ,2.68398 ,26.33523 
173 ,31.2963 ,1.00713 ,2.67372 ,26.23450 
174 ,31.5046 ,1.00920 ,2.68740 ,26.36881 
175 ,31.6809 ,1.01095 ,2.62923 ,25.79798 
176 ,31.8889 ,1.01296 ,2.63607 ,25.86514 
177 ,32.0651 ,1.01484 ,2.63265 ,25.83156 
178 ,32.2568 ,1.01676 ,2.59158 ,25.42862 
179 ,32.4492 ,1.01863 ,2.58474 ,25.36146 
180 ,32.6249 ,1.02041 ,2.57105 ,25.22715 
181 ,32.8012 ,1.02217 ,2.54710 ,24.99210 
182 ,32.9933 ,1.02408 ,2.54367 ,24.95852 
183 ,33.1531 ,1.02578 ,2.52998 ,24.82421 
184 ,33.3135 ,1.02742 ,2.51972 ,24.72347 
185 ,33.5053 ,1.02918 ,2.49918 ,24.52200 
186 ,33.6817 ,1.03097 ,2.46496 ,24.18622 
187 ,33.8578 ,1.03275 ,2.45812 ,24.11906 
188 ,34.0338 ,1.03453 ,2.44785 ,24.01833 
189 ,34.2097 ,1.03626 ,2.43759 ,23.91759 
190 ,34.3857 ,1.03810 ,2.42390 ,23.78328 
191 ,34.5620 ,1.03975 ,2.40336 ,23.58181 
192 ,34.7380 ,1.04151 ,2.38968 ,23.44750 
193 ,34.9301 ,1.04338 ,2.37599 ,23.31318 
194 ,35.1061 ,1.04521 ,2.35545 ,23.11171 
195 ,35.2818 ,1.04698 ,2.32808 ,22.84309 
196 ,35.4583 ,1.04874 ,2.32465 ,22.80951 
197 ,35.6505 ,1.05064 ,2.32123 ,22.77593 
198 ,35.8425 ,1.05247 ,2.30412 ,22.60804 
199 ,36.0186 ,1.05432 ,2.26648 ,22.23868 
200 ,36.1947 ,1.05612 ,2.26648 ,22.23868 
201 ,36.3865 ,1.05805 ,2.25621 ,22.13794 
202 ,36.5629 ,1.05977 ,2.23568 ,21.93647 
203 ,36.7550 ,1.06165 ,2.22541 ,21.83574 
204 ,36.9310 ,1.06349 ,2.21857 ,21.76858 
205 ,37.1071 ,1.06527 ,2.18777 ,21.46638 
206 ,37.2992 ,1.06713 ,2.17408 ,21.33206 
207 ,37.4912 ,1.06902 ,2.16381 ,21.23133 
208 ,37.6833 ,1.07095 ,2.13986 ,20.99628 
209 ,37.8594 ,1.07275 ,2.11590 ,20.76123 
210 ,38.0355 ,1.07450 ,2.11932 ,20.79481 
211 ,38.2114 ,1.07624 ,2.09537 ,20.55976 
212 ,38.4032 ,1.07813 ,2.07826 ,20.39187 
213 ,38.5795 ,1.07992 ,2.04746 ,20.08967 
214 ,38.7557 ,1.08165 ,2.05773 ,20.19040 
215 ,38.9477 ,1.08353 ,2.04061 ,20.02251 
216 ,39.1239 ,1.08541 ,2.00639 ,19.68673 
217 ,39.3000 ,1.08725 ,2.00982 ,19.72031 
218 ,39.4596 ,1.08885 ,1.99270 ,19.55241 
219 ,39.6360 ,1.09049 ,1.98586 ,19.48526 
220 ,39.8122 ,1.09223 ,1.96533 ,19.28379 
221 ,39.9883 ,1.09404 ,1.96533 ,19.28379 
222 ,40.1802 ,1.09595 ,1.92426 ,18.88085 
223 ,40.3564 ,1.09766 ,1.92084 ,18.84727 
224 ,40.5644 ,1.09971 ,1.92084 ,18.84727 
225 ,40.7565 ,1.10166 ,1.88662 ,18.51149 
226 ,40.9327 ,1.10347 ,1.89346 ,18.57864 
227 ,41.1247 ,1.10540 ,1.84897 ,18.14213 
228 ,41.3168 ,1.10731 ,1.84555 ,18.10855 
229 ,41.4929 ,1.10904 ,1.84897 ,18.14213 
230 ,41.6848 ,1.11099 ,1.81133 ,17.77276 
231 ,41.8773 ,1.11292 ,1.79422 ,17.60487 
232 ,42.0530 ,1.11470 ,1.78395 ,17.50414 
233 ,42.2613 ,1.11658 ,1.74973 ,17.16836 
234 ,42.4529 ,1.11863 ,1.74973 ,17.16836 
235 ,42.6453 ,1.12053 ,1.73262 ,17.00046 
236 ,42.8053 ,1.12226 ,1.71893 ,16.86615 
237 ,42.9815 ,1.12392 ,1.69155 ,16.59752 
238 ,43.1576 ,1.12571 ,1.68129 ,16.49679 
239 ,43.3495 ,1.12757 ,1.68129 ,16.49679 
240 ,43.5418 ,1.12953 ,1.64707 ,16.16101 
241 ,43.7338 ,1.13143 ,1.64364 ,16.12743 
242 ,43.9259 ,1.13328 ,1.61969 ,15.89238 
243 ,44.1019 ,1.13514 ,1.61284 ,15.82522 
244 ,44.2782 ,1.13689 ,1.60942 ,15.79164 
245 ,44.4701 ,1.13885 ,1.57862 ,15.48944 
246 ,44.6460 ,1.14057 ,1.56151 ,15.32155 
247 ,44.8222 ,1.14233 ,1.55809 ,15.28797 
248 ,45.0143 ,1.14417 ,1.53413 ,15.05292 
249 ,45.1902 ,1.14605 ,1.52387 ,14.95219 
250 ,45.3663 ,1.14775 ,1.50676 ,14.78430 
251 ,45.5424 ,1.14953 ,1.47938 ,14.51567 
252 ,45.7183 ,1.15132 ,1.47938 ,14.51567 
253 ,45.8946 ,1.15307 ,1.47596 ,14.48209 
254 ,46.0708 ,1.15491 ,1.44516 ,14.17989 
255 ,46.2467 ,1.15656 ,1.44174 ,14.14631 
256 ,46.4228 ,1.15845 ,1.43831 ,14.11273 
257 ,46.5990 ,1.16008 ,1.42462 ,13.97842 
258 ,46.7746 ,1.16183 ,1.40409 ,13.77695 
259 ,46.9672 ,1.16370 ,1.39383 ,13.67621 
260 ,47.1433 ,1.16555 ,1.37329 ,13.47474 
261 ,47.3193 ,1.16730 ,1.35618 ,13.30685 
262 ,47.4955 ,1.16906 ,1.36645 ,13.40759 
263 ,47.6872 ,1.17099 ,1.34591 ,13.20612 
264 ,47.8634 ,1.17273 ,1.31854 ,12.93749 
265 ,48.0557 ,1.17466 ,1.31854 ,12.93749 
266 ,48.2316 ,1.17641 ,1.29458 ,12.70244 
267 ,48.4076 ,1.17811 ,1.27747 ,12.53455 
268 ,48.5996 ,1.18008 ,1.28432 ,12.60171 
269 ,48.7920 ,1.18202 ,1.25352 ,12.29950 
270 ,48.9680 ,1.18378 ,1.23641 ,12.13161 
271 ,49.1440 ,1.18553 ,1.21587 ,11.93014 
272 ,49.3202 ,1.18731 ,1.21245 ,11.89656 
273 ,49.4962 ,1.18907 ,1.21245 ,11.89656 
274 ,49.6722 ,1.19085 ,1.19192 ,11.69509 
275 ,49.8644 ,1.19266 ,1.16454 ,11.42647 
276 ,50.0405 ,1.19450 ,1.15770 ,11.35931 
277 ,50.2166 ,1.19627 ,1.15427 ,11.32573 
278 ,50.4082 ,1.19827 ,1.11321 ,10.92279 
279 ,50.5684 ,1.19989 ,1.10636 ,10.85563 
280 ,50.7447 ,1.20149 ,1.09610 ,10.75490 
281 ,50.9207 ,1.20329 ,1.07556 ,10.55343 
282 ,51.0968 ,1.20511 ,1.09267 ,10.72132 
283 ,51.2731 ,1.20683 ,1.06872 ,10.48627 
284 ,51.4488 ,1.20859 ,1.05161 ,10.31838 
285 ,51.6250 ,1.21033 ,1.02423 ,10.04976 
286 ,51.8008 ,1.21210 ,1.03108 ,10.11691 
287 ,51.9769 ,1.21385 ,1.01739 ,9.98260 
288 ,52.1529 ,1.21563 ,1.01396 ,9.94902 
289 ,52.3293 ,1.21738 ,0.99685 ,9.78113 
290 ,52.5054 ,1.21925 ,0.96948 ,9.51250 
291 ,52.6976 ,1.22101 ,0.98659 ,9.68039 
292 ,52.8732 ,1.22280 ,0.96263 ,9.44535 
293 ,53.0493 ,1.22458 ,0.94552 ,9.27745 
294 ,53.2256 ,1.22634 ,0.91472 ,8.97525 
295 ,53.4173 ,1.22824 ,0.92157 ,9.04241 
296 ,53.5938 ,1.22999 ,0.92499 ,9.07598 
297 ,53.7699 ,1.23178 ,0.88734 ,8.70662 
298 ,53.9461 ,1.23356 ,0.87023 ,8.53873 
299 ,54.1218 ,1.23526 ,0.84970 ,8.33726 
300 ,54.2982 ,1.23707 ,0.85654 ,8.40442 
301 ,54.4582 ,1.23881 ,0.84970 ,8.33726 
302 ,54.6183 ,1.24035 ,0.83943 ,8.23653 
303 ,54.7942 ,1.24200 ,0.81890 ,8.03506 
304 ,54.9704 ,1.24378 ,0.80521 ,7.90074 
305 ,55.1462 ,1.24555 ,0.78810 ,7.73285 
306 ,55.3225 ,1.24729 ,0.76757 ,7.53138 
307 ,55.4986 ,1.24908 ,0.78126 ,7.66570 
308 ,55.6587 ,1.25077 ,0.75388 ,7.39707 
309 ,55.8347 ,1.25242 ,0.75730 ,7.43065 
310 ,56.0109 ,1.25420 ,0.74019 ,7.26276 
311 ,56.1868 ,1.25599 ,0.72308 ,7.09486 
312 ,56.3792 ,1.25780 ,0.71624 ,7.02771 
313 ,56.5712 ,1.25972 ,0.70255 ,6.89340 
314 ,56.7472 ,1.26157 ,0.68201 ,6.69193 
315 ,56.9393 ,1.26351 ,0.68544 ,6.72550 
316 ,57.1151 ,1.26523 ,0.67175 ,6.59119 
317 ,57.2915 ,1.26700 ,0.65806 ,6.45688 
318 ,57.4512 ,1.26869 ,0.63753 ,6.25541 
319 ,57.6275 ,1.27029 ,0.62042 ,6.08752 
320 ,57.8037 ,1.27208 ,0.61015 ,5.98678 
321 ,57.9798 ,1.27386 ,0.61699 ,6.05394 
322 ,58.1556 ,1.27561 ,0.59988 ,5.88605 
323 ,58.3320 ,1.27739 ,0.58962 ,5.78531 
324 ,58.4916 ,1.27909 ,0.56908 ,5.58384 
325 ,58.6676 ,1.28073 ,0.55197 ,5.41595 
326 ,58.8440 ,1.28250 ,0.53144 ,5.21448 
327 ,59.0202 ,1.28424 ,0.53486 ,5.24806 
328 ,59.2123 ,1.28619 ,0.52802 ,5.18090 
329 ,59.3882 ,1.28794 ,0.51433 ,5.04659 
330 ,59.5801 ,1.28981 ,0.50748 ,4.97943 
331 ,59.7564 ,1.29157 ,0.49380 ,4.84512 
332 ,59.9483 ,1.29354 ,0.46984 ,4.61007 
333 ,60.1246 ,1.29529 ,0.44931 ,4.40860 
334 ,60.3008 ,1.29702 ,0.44931 ,4.40860 
335 ,60.4765 ,1.29881 ,0.44931 ,4.40860 
336 ,60.6529 ,1.30058 ,0.43904 ,4.30787 
337 ,60.8289 ,1.30236 ,0.42535 ,4.17355 
338 ,61.0050 ,1.30408 ,0.41166 ,4.03924 
339 ,61.1811 ,1.30587 ,0.39797 ,3.90493 
340 ,61.3570 ,1.30760 ,0.37744 ,3.70346 
341 ,61.5492 ,1.30947 ,0.36033 ,3.53557 
342 ,61.7409 ,1.31149 ,0.35006 ,3.43483 
343 ,61.9009 ,1.31317 ,0.34322 ,3.36767 
344 ,62.0608 ,1.31477 ,0.34322 ,3.36767 
345 ,62.2375 ,1.31645 ,0.32269 ,3.16620 
346 ,62.4292 ,1.31837 ,0.30558 ,2.99831 
347 ,62.6054 ,1.32012 ,0.29531 ,2.89758 
348 ,62.8137 ,1.32219 ,0.28162 ,2.76326 
349 ,62.9898 ,1.32397 ,0.27820 ,2.72969 
350 ,63.1817 ,1.32575 ,0.25767 ,2.52822 
351 ,63.3579 ,1.32760 ,0.25767 ,2.52822 
352 ,63.5340 ,1.32938 ,0.25082 ,2.46106 
353 ,63.7101 ,1.33110 ,0.22344 ,2.19243 
354 ,63.9022 ,1.33308 ,0.20291 ,1.99096 
355 ,64.0942 ,1.33499 ,0.21318 ,2.09170 
356 ,64.2703 ,1.33678 ,0.19607 ,1.92381 
357 ,64.4463 ,1.33847 ,0.16185 ,1.58802 
358 ,64.6384 ,1.34044 ,0.17896 ,1.75592 
359 ,64.8304 ,1.34225 ,0.16869 ,1.65518 
360 ,65.0066 ,1.34416 ,0.14131 ,1.38655 
361 ,65.1986 ,1.34595 ,0.14131 ,1.38655 
362 ,65.3746 ,1.34776 ,0.13447 ,1.31940 
363 ,65.5507 ,1.34957 ,0.11393 ,1.11793 
364 ,65.7269 ,1.35133 ,0.09682 ,0.95004 
365 ,65.9190 ,1.35317 ,0.08998 ,0.88288 
366 ,66.1111 ,1.35506 ,0.06260 ,0.61425 
367 ,66.3191 ,1.35723 ,0.04549 ,0.44636 
368 ,66.4948 ,1.35892 ,0.05234 ,0.51352 
369 ,66.7033 ,1.36091 ,0.03180 ,0.31205 
370 ,66.8795 ,1.36280 ,0.03180 ,0.31205 
371 ,67.0553 ,1.36458 ,0.02496 ,0.24489 
372 ,67.2152 ,1.36628 ,0.00785 ,0.07700 
373 ,67.3916 ,1.36792 ,0.01127 ,0.11058 
374 ,67.5680 ,1.36972 ,-0.01953 ,-0.19163 
375 ,67.7438 ,1.37144 ,-0.02980 ,-0.29236 
376 ,67.9356 ,1.37332 ,-0.04348 ,-0.42667 
377 ,68.1119 ,1.37513 ,-0.03664 ,-0.35952 
378 ,68.2879 ,1.37691 ,-0.05717 ,-0.56099 
379 ,68.4639 ,1.37864 ,-0.07086 ,-0.69530 
380 ,68.6401 ,1.38039 ,-0.06060 ,-0.59457 
381 ,68.8162 ,1.38217 ,-0.08113 ,-0.79604 
382 ,69.0401 ,1.38431 ,-0.09482 ,-0.93035 
383 ,69.2164 ,1.38618 ,-0.09140 ,-0.89677 
384 ,69.3925 ,1.38797 ,-0.12219 ,-1.19898 
385 ,69.5846 ,1.38987 ,-0.14273 ,-1.40045 
386 ,69.7603 ,1.39165 ,-0.15642 ,-1.53476 
387 ,69.9365 ,1.39339 ,-0.13931 ,-1.36687 
388 ,70.1288 ,1.39529 ,-0.17011 ,-1.66907 
389 ,70.3048 ,1.39707 ,-0.18722 ,-1.83696 
390 ,70.4809 ,1.39877 ,-0.17695 ,-1.73623 
391 ,70.6574 ,1.40059 ,-0.19064 ,-1.87054 
392 ,70.8329 ,1.40236 ,-0.19748 ,-1.93770 
393 ,71.0087 ,1.40408 ,-0.21459 ,-2.10559 
394 ,71.1851 ,1.40587 ,-0.22828 ,-2.23990 
395 ,71.3609 ,1.40763 ,-0.23170 ,-2.27348 
396 ,71.5373 ,1.40938 ,-0.24539 ,-2.40779 
397 ,71.7294 ,1.41129 ,-0.26593 ,-2.60926 
398 ,71.9212 ,1.41319 ,-0.25566 ,-2.50853 
399 ,72.0975 ,1.41501 ,-0.26593 ,-2.60926 
400 ,72.2896 ,1.41693 ,-0.31384 ,-3.07936 
401 ,72.4655 ,1.41870 ,-0.31041 ,-3.04578 
402 ,72.6578 ,1.42053 ,-0.31384 ,-3.07936 
403 ,72.8336 ,1.42236 ,-0.32410 ,-3.18010 
404 ,73.0260 ,1.42422 ,-0.32410 ,-3.18010 
405 ,73.2180 ,1.42620 ,-0.35148 ,-3.44872 
406 ,73.3936 ,1.42791 ,-0.35490 ,-3.48230 
407 ,73.5702 ,1.42972 ,-0.37544 ,-3.68377 
408 ,73.7462 ,1.43152 ,-0.38912 ,-3.81808 
409 ,73.9219 ,1.43321 ,-0.40623 ,-3.98597 
410 ,74.0982 ,1.43501 ,-0.40281 ,-3.95240 
411 ,74.2745 ,1.43674 ,-0.41650 ,-4.08671 
412 ,74.4669 ,1.43859 ,-0.43361 ,-4.25460 
413 ,74.6586 ,1.44047 ,-0.44388 ,-4.35534 
414 ,74.8506 ,1.44250 ,-0.46783 ,-4.59038 
415 ,75.0268 ,1.44425 ,-0.47468 ,-4.65754 
416 ,75.2188 ,1.44619 ,-0.46783 ,-4.59038 
417 ,75.3949 ,1.44794 ,-0.49863 ,-4.89259 
418 ,75.5710 ,1.44982 ,-0.50206 ,-4.92617 
419 ,75.7631 ,1.45151 ,-0.50548 ,-4.95975 
420 ,75.9392 ,1.45339 ,-0.51574 ,-5.06048 
421 ,76.1153 ,1.45514 ,-0.52943 ,-5.19479 
422 ,76.3069 ,1.45702 ,-0.54312 ,-5.32911 
423 ,76.4830 ,1.45881 ,-0.56023 ,-5.49700 
424 ,76.6594 ,1.46054 ,-0.57392 ,-5.63131 
425 ,76.8355 ,1.46232 ,-0.58077 ,-5.69847 
426 ,77.0116 ,1.46414 ,-0.59445 ,-5.83278 
427 ,77.2037 ,1.46600 ,-0.59445 ,-5.83278 
428 ,77.3957 ,1.46795 ,-0.60130 ,-5.89994 
429 ,77.6038 ,1.46990 ,-0.63210 ,-6.20214 
430 ,77.7798 ,1.47175 ,-0.62868 ,-6.16856 
431 ,77.9558 ,1.47352 ,-0.64236 ,-6.30288 
432 ,78.1321 ,1.47527 ,-0.66632 ,-6.53793 
433 ,78.3240 ,1.47725 ,-0.66632 ,-6.53793 
434 ,78.5319 ,1.47924 ,-0.67316 ,-6.60508 
435 ,78.7082 ,1.48107 ,-0.70054 ,-6.87371 
436 ,78.8844 ,1.48279 ,-0.69712 ,-6.84013 
437 ,79.0604 ,1.48458 ,-0.70054 ,-6.87371 
438 ,79.2364 ,1.48636 ,-0.70739 ,-6.94086 
439 ,79.4128 ,1.48809 ,-0.72792 ,-7.14233 
440 ,79.5887 ,1.48988 ,-0.74845 ,-7.34380 
441 ,79.7809 ,1.49168 ,-0.74503 ,-7.31023 
442 ,79.9568 ,1.49351 ,-0.75530 ,-7.41096 
443 ,80.1330 ,1.49529 ,-0.77925 ,-7.64601 
444 ,80.3410 ,1.49722 ,-0.77583 ,-7.61243 
445 ,80.5328 ,1.49931 ,-0.80321 ,-7.88106 
446 ,80.7092 ,1.50103 ,-0.80663 ,-7.91464 
447 ,80.9012 ,1.50297 ,-0.79978 ,-7.84748 
448 ,81.0933 ,1.50491 ,-0.83743 ,-8.21684 
449 ,81.2854 ,1.50684 ,-0.82716 ,-8.11611 
450 ,81.4778 ,1.50879 ,-0.83401 ,-8.18326 
451 ,81.6536 ,1.51049 ,-0.86481 ,-8.48547 
452 ,81.8295 ,1.51224 ,-0.86823 ,-8.51904 
453 ,82.0217 ,1.51425 ,-0.85796 ,-8.41831 
454 ,82.1976 ,1.51597 ,-0.89218 ,-8.75409 
455 ,82.3897 ,1.51787 ,-0.90245 ,-8.85483 
456 ,82.5658 ,1.51960 ,-0.89903 ,-8.82125 
457 ,82.7419 ,1.52135 ,-0.89903 ,-8.82125 
458 ,82.9340 ,1.52318 ,-0.91956 ,-9.02272 
459 ,83.1100 ,1.52504 ,-0.93667 ,-9.19061 
460 ,83.2857 ,1.52696 ,-0.94351 ,-9.25777 
461 ,83.4461 ,1.52852 ,-0.95036 ,-9.32492 
462 ,83.6221 ,1.53017 ,-0.95378 ,-9.35850 
463 ,83.7984 ,1.53195 ,-0.97774 ,-9.59355 
