Data stamp = , 28-03-2022 18:21:53 698

Calibration Values: 
Slope = , 26.54 , g/V 
Offset Voltage at no contact = , -0.501760 , V 

No , Time , Stage Position ,   Mass , Force 
   ,  (s) ,      (mm)      ,   (g)  , (mN)  

1 ,0.0000 ,0.69942 ,5.22323 ,51.25033 
2 ,0.2168 ,0.69950 ,5.21296 ,51.14960 
3 ,0.4408 ,0.70005 ,5.21639 ,51.18317 
4 ,0.6329 ,0.70110 ,5.20270 ,51.04886 
5 ,0.8247 ,0.70251 ,5.19585 ,50.98170 
6 ,1.0010 ,0.70419 ,5.20954 ,51.11602 
7 ,1.1770 ,0.70589 ,5.21296 ,51.14960 
8 ,1.3532 ,0.70763 ,5.23007 ,51.31749 
9 ,1.5292 ,0.70947 ,5.19585 ,50.98170 
10 ,1.7213 ,0.71140 ,5.19927 ,51.01528 
11 ,1.9130 ,0.71330 ,5.17874 ,50.81381 
12 ,2.0895 ,0.71508 ,5.16163 ,50.64592 
13 ,2.2975 ,0.71706 ,5.15821 ,50.61234 
14 ,2.4736 ,0.71895 ,5.15136 ,50.54519 
15 ,2.6497 ,0.72072 ,5.13425 ,50.37729 
16 ,2.8575 ,0.72270 ,5.14110 ,50.44445 
17 ,3.0339 ,0.72459 ,5.11030 ,50.14225 
18 ,3.2419 ,0.72658 ,5.11030 ,50.14225 
19 ,3.4179 ,0.72831 ,5.10345 ,50.07509 
20 ,3.6099 ,0.73021 ,5.08634 ,49.90720 
21 ,3.8180 ,0.73225 ,5.06923 ,49.73931 
22 ,4.0098 ,0.73417 ,5.06239 ,49.67215 
23 ,4.1863 ,0.73604 ,5.04528 ,49.50426 
24 ,4.3623 ,0.73783 ,5.04185 ,49.47068 
25 ,4.5545 ,0.73971 ,5.03501 ,49.40352 
26 ,4.7305 ,0.74150 ,5.00763 ,49.13490 
27 ,4.9227 ,0.74331 ,5.01106 ,49.16848 
28 ,5.1148 ,0.74534 ,5.00421 ,49.10132 
29 ,5.3067 ,0.74723 ,4.97683 ,48.83269 
30 ,5.4827 ,0.74902 ,4.96999 ,48.76554 
31 ,5.6586 ,0.75073 ,4.95972 ,48.66480 
32 ,5.8507 ,0.75264 ,4.92550 ,48.32902 
33 ,6.0270 ,0.75447 ,4.91523 ,48.22828 
34 ,6.2186 ,0.75635 ,4.90155 ,48.09397 
35 ,6.3951 ,0.75809 ,4.89128 ,47.99324 
36 ,6.5871 ,0.76006 ,4.86732 ,47.75819 
37 ,6.7793 ,0.76192 ,4.87759 ,47.85892 
38 ,6.9553 ,0.76372 ,4.86048 ,47.69103 
39 ,7.1311 ,0.76551 ,4.83310 ,47.42240 
40 ,7.3076 ,0.76724 ,4.81599 ,47.25451 
41 ,7.4836 ,0.76899 ,4.80915 ,47.18736 
42 ,7.6595 ,0.77076 ,4.79888 ,47.08662 
43 ,7.8517 ,0.77264 ,4.75782 ,46.68368 
44 ,8.0277 ,0.77443 ,4.75097 ,46.61653 
45 ,8.2038 ,0.77616 ,4.74413 ,46.54937 
46 ,8.3800 ,0.77797 ,4.73728 ,46.48221 
47 ,8.5559 ,0.77975 ,4.72702 ,46.38148 
48 ,8.7322 ,0.78150 ,4.69622 ,46.07927 
49 ,8.9241 ,0.78332 ,4.68595 ,45.97854 
50 ,9.1163 ,0.78532 ,4.66542 ,45.77707 
51 ,9.3082 ,0.78723 ,4.65173 ,45.64275 
52 ,9.5004 ,0.78914 ,4.65173 ,45.64275 
53 ,9.6764 ,0.79090 ,4.63462 ,45.47486 
54 ,9.8686 ,0.79278 ,4.59697 ,45.10550 
55 ,10.0445 ,0.79459 ,4.58328 ,44.97119 
56 ,10.2366 ,0.79648 ,4.57986 ,44.93761 
57 ,10.4288 ,0.79835 ,4.56617 ,44.80330 
58 ,10.6211 ,0.80036 ,4.53537 ,44.50109 
59 ,10.7969 ,0.80215 ,4.53195 ,44.46751 
60 ,10.9730 ,0.80389 ,4.50457 ,44.19889 
61 ,11.1492 ,0.80565 ,4.48062 ,43.96384 
62 ,11.3408 ,0.80754 ,4.49089 ,44.06457 
63 ,11.5180 ,0.80931 ,4.47035 ,43.86310 
64 ,11.6933 ,0.81107 ,4.44640 ,43.62806 
65 ,11.8695 ,0.81279 ,4.41218 ,43.29227 
66 ,12.0773 ,0.81486 ,4.41902 ,43.35943 
67 ,12.2536 ,0.81670 ,4.39849 ,43.15796 
68 ,12.4295 ,0.81843 ,4.37795 ,42.95649 
69 ,12.6219 ,0.82021 ,4.36769 ,42.85576 
70 ,12.7975 ,0.82209 ,4.35400 ,42.72144 
71 ,12.9740 ,0.82388 ,4.33689 ,42.55355 
72 ,13.1499 ,0.82571 ,4.31978 ,42.38566 
73 ,13.3421 ,0.82757 ,4.30609 ,42.25135 
74 ,13.5189 ,0.82932 ,4.30609 ,42.25135 
75 ,13.6943 ,0.83110 ,4.27871 ,41.98272 
76 ,13.8863 ,0.83298 ,4.25818 ,41.78125 
77 ,14.0624 ,0.83471 ,4.24107 ,41.61336 
78 ,14.2385 ,0.83652 ,4.24791 ,41.68051 
79 ,14.4306 ,0.83844 ,4.20000 ,41.21042 
80 ,14.6227 ,0.84030 ,4.20342 ,41.24400 
81 ,14.7983 ,0.84222 ,4.17262 ,40.94179 
82 ,14.9747 ,0.84387 ,4.15209 ,40.74032 
83 ,15.1670 ,0.84581 ,4.13156 ,40.53885 
84 ,15.3429 ,0.84753 ,4.13840 ,40.60601 
85 ,15.5346 ,0.84939 ,4.12814 ,40.50527 
86 ,15.7109 ,0.85129 ,4.07680 ,40.00160 
87 ,15.9028 ,0.85308 ,4.08707 ,40.10233 
88 ,16.0791 ,0.85490 ,4.07338 ,39.96802 
89 ,16.2712 ,0.85671 ,4.04258 ,39.66582 
90 ,16.4634 ,0.85873 ,4.03574 ,39.59866 
91 ,16.6393 ,0.86054 ,4.01520 ,39.39719 
92 ,16.8154 ,0.86225 ,3.99809 ,39.22930 
93 ,16.9916 ,0.86401 ,3.96387 ,38.89352 
94 ,17.1997 ,0.86604 ,3.94676 ,38.72562 
95 ,17.3757 ,0.86786 ,3.94676 ,38.72562 
96 ,17.5517 ,0.86964 ,3.91254 ,38.38984 
97 ,17.7278 ,0.87137 ,3.90227 ,38.28911 
98 ,17.9196 ,0.87335 ,3.90570 ,38.32268 
99 ,18.0960 ,0.87504 ,3.87490 ,38.02048 
100 ,18.2720 ,0.87688 ,3.85094 ,37.78543 
101 ,18.4482 ,0.87864 ,3.84410 ,37.71828 
102 ,18.6399 ,0.88049 ,3.83041 ,37.58396 
103 ,18.8164 ,0.88229 ,3.81330 ,37.41607 
104 ,19.0082 ,0.88417 ,3.78250 ,37.11387 
105 ,19.1845 ,0.88596 ,3.78934 ,37.18102 
106 ,19.3605 ,0.88772 ,3.76539 ,36.94597 
107 ,19.5366 ,0.88955 ,3.74143 ,36.71093 
108 ,19.7124 ,0.89124 ,3.72090 ,36.50946 
109 ,19.8888 ,0.89297 ,3.71748 ,36.47588 
110 ,20.0808 ,0.89487 ,3.71405 ,36.44230 
111 ,20.2570 ,0.89666 ,3.68325 ,36.14010 
112 ,20.4330 ,0.89850 ,3.66272 ,35.93863 
113 ,20.6251 ,0.90029 ,3.66272 ,35.93863 
114 ,20.8011 ,0.90207 ,3.64561 ,35.77073 
115 ,20.9931 ,0.90401 ,3.62166 ,35.53569 
116 ,21.1853 ,0.90581 ,3.59428 ,35.26706 
117 ,21.3612 ,0.90768 ,3.60112 ,35.33422 
118 ,21.5375 ,0.90946 ,3.57375 ,35.06559 
119 ,21.7134 ,0.91121 ,3.56006 ,34.93128 
120 ,21.8896 ,0.91303 ,3.52584 ,34.59549 
121 ,22.0813 ,0.91488 ,3.52926 ,34.62907 
122 ,22.2578 ,0.91669 ,3.51899 ,34.52834 
123 ,22.4336 ,0.91842 ,3.48819 ,34.22613 
124 ,22.6260 ,0.92029 ,3.48477 ,34.19255 
125 ,22.8177 ,0.92230 ,3.46766 ,34.02466 
126 ,22.9940 ,0.92397 ,3.42659 ,33.62172 
127 ,23.1860 ,0.92585 ,3.40264 ,33.38667 
128 ,23.3621 ,0.92775 ,3.40948 ,33.45383 
129 ,23.5383 ,0.92944 ,3.39579 ,33.31952 
130 ,23.7304 ,0.93136 ,3.38895 ,33.25236 
131 ,23.9225 ,0.93329 ,3.35473 ,32.91658 
132 ,24.1145 ,0.93520 ,3.32393 ,32.61437 
133 ,24.2906 ,0.93700 ,3.31366 ,32.51364 
134 ,24.4666 ,0.93874 ,3.31366 ,32.51364 
135 ,24.6428 ,0.94055 ,3.31024 ,32.48006 
136 ,24.8347 ,0.94244 ,3.26917 ,32.07712 
137 ,25.0114 ,0.94420 ,3.24864 ,31.87565 
138 ,25.2030 ,0.94611 ,3.25206 ,31.90923 
139 ,25.3788 ,0.94786 ,3.21784 ,31.57345 
140 ,25.5547 ,0.94964 ,3.19388 ,31.33840 
141 ,25.7310 ,0.95133 ,3.18020 ,31.20409 
142 ,25.9232 ,0.95320 ,3.18362 ,31.23766 
143 ,26.0991 ,0.95511 ,3.16651 ,31.06977 
144 ,26.2913 ,0.95699 ,3.12202 ,30.63325 
145 ,26.4674 ,0.95871 ,3.13229 ,30.73399 
146 ,26.6436 ,0.96054 ,3.12202 ,30.63325 
147 ,26.8195 ,0.96228 ,3.09806 ,30.39821 
148 ,26.9953 ,0.96404 ,3.06384 ,30.06242 
149 ,27.1717 ,0.96578 ,3.05700 ,29.99527 
150 ,27.3638 ,0.96776 ,3.05015 ,29.92811 
151 ,27.5398 ,0.96946 ,3.02620 ,29.69306 
152 ,27.7321 ,0.97134 ,3.00567 ,29.49159 
153 ,27.9241 ,0.97333 ,2.99540 ,29.39086 
154 ,28.1001 ,0.97509 ,2.97487 ,29.18939 
155 ,28.2762 ,0.97690 ,2.95433 ,28.98792 
156 ,28.4682 ,0.97869 ,2.95091 ,28.95434 
157 ,28.6441 ,0.98045 ,2.92011 ,28.65213 
158 ,28.8524 ,0.98255 ,2.90300 ,28.48424 
159 ,29.0283 ,0.98433 ,2.88931 ,28.34993 
160 ,29.2206 ,0.98623 ,2.87562 ,28.21562 
161 ,29.3964 ,0.98803 ,2.85851 ,28.04772 
162 ,29.5887 ,0.98999 ,2.85509 ,28.01415 
163 ,29.7646 ,0.99175 ,2.82087 ,27.67836 
164 ,29.9408 ,0.99347 ,2.81402 ,27.61121 
165 ,30.1166 ,0.99534 ,2.77980 ,27.27542 
166 ,30.2930 ,0.99698 ,2.77296 ,27.20827 
167 ,30.5175 ,0.99914 ,2.75585 ,27.04038 
168 ,30.7090 ,1.00109 ,2.74558 ,26.93964 
169 ,30.9012 ,1.00296 ,2.71478 ,26.63744 
170 ,31.1090 ,1.00510 ,2.70452 ,26.53670 
171 ,31.2853 ,1.00692 ,2.69767 ,26.46954 
172 ,31.4613 ,1.00864 ,2.67029 ,26.20092 
173 ,31.6375 ,1.01045 ,2.66003 ,26.10018 
174 ,31.8294 ,1.01232 ,2.64976 ,25.99945 
175 ,32.0216 ,1.01420 ,2.62238 ,25.73082 
176 ,32.1975 ,1.01602 ,2.60869 ,25.59651 
177 ,32.3738 ,1.01783 ,2.58474 ,25.36146 
178 ,32.5499 ,1.01955 ,2.59158 ,25.42862 
179 ,32.7420 ,1.02147 ,2.55736 ,25.09283 
180 ,32.9340 ,1.02331 ,2.56421 ,25.15999 
181 ,33.1260 ,1.02526 ,2.53341 ,24.85779 
182 ,33.3022 ,1.02704 ,2.51287 ,24.65632 
183 ,33.4943 ,1.02901 ,2.49234 ,24.45485 
184 ,33.6701 ,1.03074 ,2.47523 ,24.28696 
185 ,33.8463 ,1.03249 ,2.47523 ,24.28696 
186 ,34.0380 ,1.03435 ,2.44101 ,23.95117 
187 ,34.2147 ,1.03616 ,2.44101 ,23.95117 
188 ,34.3745 ,1.03793 ,2.44101 ,23.95117 
189 ,34.5507 ,1.03954 ,2.41363 ,23.68255 
190 ,34.7266 ,1.04128 ,2.40679 ,23.61539 
191 ,34.9029 ,1.04304 ,2.39652 ,23.51465 
192 ,35.0786 ,1.04483 ,2.36230 ,23.17887 
193 ,35.2550 ,1.04663 ,2.34519 ,23.01098 
194 ,35.4472 ,1.04851 ,2.35203 ,23.07814 
195 ,35.6389 ,1.05033 ,2.33492 ,22.91024 
196 ,35.8152 ,1.05220 ,2.30754 ,22.64162 
197 ,35.9914 ,1.05396 ,2.28017 ,22.37299 
198 ,36.1671 ,1.05571 ,2.28017 ,22.37299 
199 ,36.3433 ,1.05746 ,2.26306 ,22.20510 
200 ,36.5195 ,1.05922 ,2.24594 ,22.03721 
201 ,36.6956 ,1.06097 ,2.22883 ,21.86932 
202 ,36.8717 ,1.06276 ,2.22541 ,21.83574 
203 ,37.0798 ,1.06473 ,2.20146 ,21.60069 
204 ,37.2879 ,1.06684 ,2.18092 ,21.39922 
205 ,37.4799 ,1.06884 ,2.15697 ,21.16417 
206 ,37.6560 ,1.07060 ,2.14328 ,21.02986 
207 ,37.8320 ,1.07235 ,2.13986 ,20.99628 
208 ,38.0083 ,1.07412 ,2.12959 ,20.89555 
209 ,38.1842 ,1.07588 ,2.09537 ,20.55976 
210 ,38.3763 ,1.07778 ,2.08852 ,20.49261 
211 ,38.5524 ,1.07957 ,2.08168 ,20.42545 
212 ,38.7445 ,1.08151 ,2.06457 ,20.25756 
213 ,38.9205 ,1.08318 ,2.03035 ,19.92178 
214 ,39.0966 ,1.08500 ,2.02008 ,19.82104 
215 ,39.2727 ,1.08680 ,2.02008 ,19.82104 
216 ,39.4649 ,1.08866 ,1.98244 ,19.45168 
217 ,39.6248 ,1.09040 ,1.98244 ,19.45168 
218 ,39.8009 ,1.09206 ,1.96875 ,19.31737 
219 ,39.9930 ,1.09394 ,1.96875 ,19.31737 
220 ,40.2330 ,1.09611 ,1.93453 ,18.98158 
221 ,40.4251 ,1.09830 ,1.93453 ,18.98158 
222 ,40.6010 ,1.10002 ,1.90031 ,18.64580 
223 ,40.7774 ,1.10180 ,1.89004 ,18.54507 
224 ,40.9852 ,1.10382 ,1.88319 ,18.47791 
225 ,41.1774 ,1.10585 ,1.86266 ,18.27644 
226 ,41.3534 ,1.10754 ,1.85924 ,18.24286 
227 ,41.5297 ,1.10930 ,1.83871 ,18.04139 
228 ,41.7218 ,1.11131 ,1.80449 ,17.70561 
229 ,41.8977 ,1.11309 ,1.81133 ,17.77276 
230 ,42.0735 ,1.11475 ,1.78395 ,17.50414 
231 ,42.2498 ,1.11650 ,1.78395 ,17.50414 
232 ,42.4259 ,1.11830 ,1.76000 ,17.26909 
233 ,42.6020 ,1.12002 ,1.74973 ,17.16836 
234 ,42.7782 ,1.12179 ,1.71893 ,16.86615 
235 ,42.9702 ,1.12370 ,1.71551 ,16.83257 
236 ,43.1622 ,1.12561 ,1.69498 ,16.63110 
237 ,43.3543 ,1.12755 ,1.70182 ,16.69826 
238 ,43.5305 ,1.12929 ,1.68813 ,16.56395 
239 ,43.7224 ,1.13127 ,1.64707 ,16.16101 
240 ,43.8986 ,1.13297 ,1.65049 ,16.19458 
241 ,44.0903 ,1.13494 ,1.64364 ,16.12743 
242 ,44.2666 ,1.13662 ,1.61284 ,15.82522 
243 ,44.4423 ,1.13839 ,1.59916 ,15.69091 
244 ,44.6349 ,1.14028 ,1.59231 ,15.62375 
245 ,44.8109 ,1.14216 ,1.57520 ,15.45586 
246 ,45.0029 ,1.14396 ,1.56493 ,15.35513 
247 ,45.1791 ,1.14586 ,1.53413 ,15.05292 
248 ,45.3550 ,1.14756 ,1.53071 ,15.01934 
249 ,45.5313 ,1.14933 ,1.52387 ,14.95219 
250 ,45.7072 ,1.15112 ,1.49991 ,14.71714 
251 ,45.8834 ,1.15284 ,1.48280 ,14.54925 
252 ,46.0755 ,1.15475 ,1.46911 ,14.41493 
253 ,46.2675 ,1.15664 ,1.45885 ,14.31420 
254 ,46.4437 ,1.15839 ,1.44516 ,14.17989 
255 ,46.6198 ,1.16021 ,1.43831 ,14.11273 
256 ,46.7956 ,1.16196 ,1.42805 ,14.01199 
257 ,46.9877 ,1.16380 ,1.41094 ,13.84410 
258 ,47.1960 ,1.16594 ,1.40067 ,13.74337 
259 ,47.3720 ,1.16774 ,1.39725 ,13.70979 
260 ,47.5638 ,1.16969 ,1.34934 ,13.23969 
261 ,47.7402 ,1.17136 ,1.34249 ,13.17254 
262 ,47.9161 ,1.17329 ,1.33565 ,13.10538 
263 ,48.0923 ,1.17491 ,1.33907 ,13.13896 
264 ,48.2684 ,1.17671 ,1.30485 ,12.80318 
265 ,48.4604 ,1.17861 ,1.28089 ,12.56813 
266 ,48.6366 ,1.18033 ,1.27747 ,12.53455 
267 ,48.8126 ,1.18214 ,1.27747 ,12.53455 
268 ,48.9887 ,1.18389 ,1.25694 ,12.33308 
269 ,49.1967 ,1.18582 ,1.23298 ,12.09803 
270 ,49.3729 ,1.18773 ,1.22614 ,12.03088 
271 ,49.5648 ,1.18972 ,1.22614 ,12.03088 
272 ,49.7410 ,1.19144 ,1.19534 ,11.72867 
273 ,49.9009 ,1.19313 ,1.19192 ,11.69509 
274 ,50.0768 ,1.19471 ,1.17481 ,11.52720 
275 ,50.2530 ,1.19655 ,1.16112 ,11.39289 
276 ,50.4292 ,1.19827 ,1.16112 ,11.39289 
277 ,50.6052 ,1.20005 ,1.13032 ,11.09068 
278 ,50.7814 ,1.20177 ,1.12690 ,11.05710 
279 ,50.9572 ,1.20359 ,1.11321 ,10.92279 
280 ,51.1491 ,1.20543 ,1.09610 ,10.75490 
281 ,51.3256 ,1.20722 ,1.06187 ,10.41912 
282 ,51.5017 ,1.20897 ,1.07556 ,10.55343 
283 ,51.6938 ,1.21095 ,1.06872 ,10.48627 
284 ,51.8698 ,1.21272 ,1.04819 ,10.28480 
285 ,52.0454 ,1.21446 ,1.02081 ,10.01618 
286 ,52.2218 ,1.21618 ,1.01739 ,9.98260 
287 ,52.3979 ,1.21795 ,1.03108 ,10.11691 
288 ,52.5740 ,1.21967 ,0.99343 ,9.74755 
289 ,52.7662 ,1.22169 ,0.96263 ,9.44535 
290 ,52.9422 ,1.22340 ,0.96948 ,9.51250 
291 ,53.1663 ,1.22551 ,0.94552 ,9.27745 
292 ,53.3584 ,1.22744 ,0.93525 ,9.17672 
293 ,53.5344 ,1.22932 ,0.93868 ,9.21030 
294 ,53.7262 ,1.23124 ,0.91130 ,8.94167 
295 ,53.9022 ,1.23300 ,0.89761 ,8.80736 
296 ,54.0786 ,1.23480 ,0.89419 ,8.77378 
297 ,54.2707 ,1.23655 ,0.88050 ,8.63947 
298 ,54.4463 ,1.23847 ,0.85312 ,8.37084 
299 ,54.6224 ,1.24018 ,0.84970 ,8.33726 
300 ,54.7825 ,1.24191 ,0.84628 ,8.30368 
301 ,54.9588 ,1.24359 ,0.82575 ,8.10221 
302 ,55.1669 ,1.24567 ,0.81206 ,7.96790 
303 ,55.3592 ,1.24751 ,0.80179 ,7.86717 
304 ,55.5513 ,1.24948 ,0.78810 ,7.73285 
305 ,55.7273 ,1.25122 ,0.76415 ,7.49780 
306 ,55.9033 ,1.25306 ,0.77784 ,7.63212 
307 ,56.0795 ,1.25475 ,0.75046 ,7.36349 
308 ,56.2716 ,1.25666 ,0.73677 ,7.22918 
309 ,56.4476 ,1.25841 ,0.71624 ,7.02771 
310 ,56.6397 ,1.26026 ,0.70597 ,6.92697 
311 ,56.8319 ,1.26226 ,0.70255 ,6.89340 
312 ,57.0398 ,1.26427 ,0.69228 ,6.79266 
313 ,57.2161 ,1.26614 ,0.67517 ,6.62477 
314 ,57.3920 ,1.26793 ,0.65806 ,6.45688 
315 ,57.5680 ,1.26965 ,0.64779 ,6.35614 
316 ,57.7437 ,1.27147 ,0.64437 ,6.32256 
317 ,57.9202 ,1.27313 ,0.63068 ,6.18825 
318 ,58.0963 ,1.27491 ,0.62042 ,6.08752 
319 ,58.2723 ,1.27667 ,0.60673 ,5.95320 
320 ,58.4485 ,1.27844 ,0.57935 ,5.68458 
321 ,58.6246 ,1.28024 ,0.56908 ,5.58384 
322 ,58.8007 ,1.28198 ,0.57593 ,5.65100 
323 ,58.9927 ,1.28389 ,0.56224 ,5.51668 
324 ,59.1847 ,1.28578 ,0.53144 ,5.21448 
325 ,59.3606 ,1.28760 ,0.52117 ,5.11375 
326 ,59.5368 ,1.28934 ,0.53144 ,5.21448 
327 ,59.7290 ,1.29126 ,0.49380 ,4.84512 
328 ,59.9050 ,1.29300 ,0.49380 ,4.84512 
329 ,60.0812 ,1.29476 ,0.48011 ,4.71081 
330 ,60.2571 ,1.29654 ,0.49380 ,4.84512 
331 ,60.4330 ,1.29829 ,0.45957 ,4.50934 
332 ,60.6094 ,1.30007 ,0.43562 ,4.27429 
333 ,60.8014 ,1.30185 ,0.43562 ,4.27429 
334 ,60.9935 ,1.30391 ,0.43562 ,4.27429 
335 ,61.1696 ,1.30569 ,0.41166 ,4.03924 
336 ,61.3617 ,1.30756 ,0.40824 ,4.00566 
337 ,61.5378 ,1.30934 ,0.39797 ,3.90493 
338 ,61.7299 ,1.31125 ,0.37402 ,3.66988 
339 ,61.9055 ,1.31301 ,0.34664 ,3.40125 
340 ,62.0660 ,1.31470 ,0.35349 ,3.46841 
341 ,62.2579 ,1.31651 ,0.36033 ,3.53557 
342 ,62.4342 ,1.31827 ,0.34664 ,3.40125 
343 ,62.5941 ,1.32001 ,0.31242 ,3.06547 
344 ,62.7863 ,1.32178 ,0.31926 ,3.13263 
345 ,62.9623 ,1.32358 ,0.31242 ,3.06547 
346 ,63.1383 ,1.32533 ,0.28847 ,2.83042 
347 ,63.3146 ,1.32708 ,0.28162 ,2.76326 
348 ,63.4907 ,1.32881 ,0.26793 ,2.62895 
349 ,63.6668 ,1.33060 ,0.25082 ,2.46106 
350 ,63.8748 ,1.33264 ,0.24398 ,2.39390 
351 ,64.0508 ,1.33447 ,0.22344 ,2.19243 
352 ,64.2267 ,1.33614 ,0.20291 ,1.99096 
353 ,64.4029 ,1.33795 ,0.21318 ,2.09170 
354 ,64.5789 ,1.33968 ,0.21660 ,2.12528 
355 ,64.7712 ,1.34156 ,0.18922 ,1.85665 
356 ,64.9631 ,1.34359 ,0.16185 ,1.58802 
357 ,65.1393 ,1.34535 ,0.17896 ,1.75592 
358 ,65.3314 ,1.34716 ,0.13789 ,1.35298 
359 ,65.5239 ,1.34914 ,0.15158 ,1.48729 
360 ,65.6991 ,1.35094 ,0.13789 ,1.35298 
361 ,65.8756 ,1.35270 ,0.11051 ,1.08435 
362 ,66.0515 ,1.35443 ,0.11051 ,1.08435 
363 ,66.2272 ,1.35621 ,0.08656 ,0.84930 
364 ,66.4033 ,1.35792 ,0.08998 ,0.88288 
365 ,66.5799 ,1.35968 ,0.06602 ,0.64783 
366 ,66.7556 ,1.36152 ,0.06602 ,0.64783 
367 ,66.9316 ,1.36322 ,0.04207 ,0.41278 
368 ,67.1077 ,1.36502 ,0.03865 ,0.37920 
369 ,67.2999 ,1.36695 ,0.01469 ,0.14416 
370 ,67.4922 ,1.36883 ,0.00443 ,0.04342 
371 ,67.6842 ,1.37074 ,-0.00242 ,-0.02373 
372 ,67.8601 ,1.37251 ,-0.00242 ,-0.02373 
373 ,68.0364 ,1.37427 ,-0.00242 ,-0.02373 
374 ,68.2120 ,1.37605 ,-0.03664 ,-0.35952 
375 ,68.3880 ,1.37781 ,-0.05717 ,-0.56099 
376 ,68.5643 ,1.37953 ,-0.03322 ,-0.32594 
377 ,68.7724 ,1.38162 ,-0.06060 ,-0.59457 
378 ,68.9486 ,1.38341 ,-0.08455 ,-0.82961 
379 ,69.1246 ,1.38513 ,-0.09824 ,-0.96393 
380 ,69.3009 ,1.38689 ,-0.08797 ,-0.86319 
381 ,69.4605 ,1.38863 ,-0.11877 ,-1.16540 
382 ,69.6367 ,1.39028 ,-0.11877 ,-1.16540 
383 ,69.8291 ,1.39211 ,-0.12904 ,-1.26613 
384 ,70.0218 ,1.39412 ,-0.14957 ,-1.46760 
385 ,70.2134 ,1.39609 ,-0.17695 ,-1.73623 
386 ,70.3893 ,1.39777 ,-0.17695 ,-1.73623 
387 ,70.5814 ,1.39971 ,-0.17695 ,-1.73623 
388 ,70.7576 ,1.40148 ,-0.19406 ,-1.90412 
389 ,70.9332 ,1.40328 ,-0.20433 ,-2.00485 
390 ,71.1097 ,1.40500 ,-0.23513 ,-2.30706 
391 ,71.3017 ,1.40694 ,-0.22486 ,-2.20632 
392 ,71.4777 ,1.40868 ,-0.24539 ,-2.40779 
393 ,71.6698 ,1.41059 ,-0.27277 ,-2.67642 
394 ,71.8615 ,1.41240 ,-0.26593 ,-2.60926 
395 ,72.0380 ,1.41424 ,-0.27277 ,-2.67642 
396 ,72.2300 ,1.41619 ,-0.30015 ,-2.94505 
397 ,72.4062 ,1.41797 ,-0.28646 ,-2.81073 
398 ,72.5822 ,1.41973 ,-0.30699 ,-3.01220 
399 ,72.7744 ,1.42154 ,-0.31726 ,-3.11294 
400 ,72.9501 ,1.42342 ,-0.34121 ,-3.34799 
401 ,73.1265 ,1.42524 ,-0.33437 ,-3.28083 
402 ,73.3184 ,1.42703 ,-0.35832 ,-3.51588 
403 ,73.4947 ,1.42884 ,-0.38912 ,-3.81808 
404 ,73.6867 ,1.43077 ,-0.38228 ,-3.75093 
405 ,73.8628 ,1.43256 ,-0.37544 ,-3.68377 
406 ,74.0549 ,1.43448 ,-0.40623 ,-3.98597 
407 ,74.2469 ,1.43636 ,-0.40623 ,-3.98597 
408 ,74.4391 ,1.43830 ,-0.41650 ,-4.08671 
409 ,74.6310 ,1.44017 ,-0.43361 ,-4.25460 
410 ,74.8068 ,1.44195 ,-0.43703 ,-4.28818 
411 ,74.9831 ,1.44367 ,-0.45072 ,-4.42249 
412 ,75.1588 ,1.44541 ,-0.45072 ,-4.42249 
413 ,75.3352 ,1.44724 ,-0.48494 ,-4.75828 
414 ,75.5274 ,1.44915 ,-0.49179 ,-4.82543 
415 ,75.7035 ,1.45089 ,-0.50206 ,-4.92617 
416 ,75.8954 ,1.45285 ,-0.52259 ,-5.12764 
417 ,76.0877 ,1.45466 ,-0.52943 ,-5.19479 
418 ,76.2634 ,1.45654 ,-0.50890 ,-4.99332 
419 ,76.4398 ,1.45824 ,-0.53285 ,-5.22837 
420 ,76.6159 ,1.46002 ,-0.56708 ,-5.56415 
421 ,76.7919 ,1.46180 ,-0.56023 ,-5.49700 
422 ,76.9679 ,1.46353 ,-0.56365 ,-5.53058 
423 ,77.1601 ,1.46547 ,-0.57392 ,-5.63131 
424 ,77.3202 ,1.46720 ,-0.59788 ,-5.86636 
425 ,77.4964 ,1.46885 ,-0.60472 ,-5.93352 
426 ,77.6885 ,1.47078 ,-0.60472 ,-5.93352 
427 ,77.8805 ,1.47269 ,-0.61841 ,-6.06783 
428 ,78.0566 ,1.47448 ,-0.63210 ,-6.20214 
429 ,78.2484 ,1.47637 ,-0.64579 ,-6.33646 
430 ,78.4404 ,1.47822 ,-0.66974 ,-6.57150 
431 ,78.6169 ,1.48002 ,-0.67316 ,-6.60508 
432 ,78.7925 ,1.48181 ,-0.69027 ,-6.77297 
433 ,78.9686 ,1.48359 ,-0.69027 ,-6.77297 
434 ,79.1606 ,1.48547 ,-0.68685 ,-6.73940 
435 ,79.3206 ,1.48719 ,-0.71423 ,-7.00802 
436 ,79.4971 ,1.48879 ,-0.72792 ,-7.14233 
437 ,79.6892 ,1.49074 ,-0.73818 ,-7.24307 
438 ,79.8652 ,1.49258 ,-0.72792 ,-7.14233 
439 ,80.0251 ,1.49421 ,-0.75530 ,-7.41096 
440 ,80.2014 ,1.49589 ,-0.75530 ,-7.41096 
441 ,80.3773 ,1.49761 ,-0.76214 ,-7.47812 
442 ,80.5535 ,1.49939 ,-0.78952 ,-7.74674 
443 ,80.7455 ,1.50133 ,-0.77241 ,-7.57885 
444 ,80.9217 ,1.50310 ,-0.79294 ,-7.78032 
445 ,81.1135 ,1.50494 ,-0.80663 ,-7.91464 
446 ,81.3058 ,1.50694 ,-0.81347 ,-7.98179 
447 ,81.4658 ,1.50866 ,-0.82032 ,-8.04895 
448 ,81.6259 ,1.51023 ,-0.82716 ,-8.11611 
449 ,81.8020 ,1.51184 ,-0.84427 ,-8.28400 
450 ,81.9777 ,1.51376 ,-0.86481 ,-8.48547 
451 ,82.1541 ,1.51542 ,-0.87165 ,-8.55262 
452 ,82.3302 ,1.51718 ,-0.88534 ,-8.68694 
453 ,82.5223 ,1.51902 ,-0.87507 ,-8.58620 
454 ,82.7142 ,1.52095 ,-0.91272 ,-8.95556 
455 ,82.8906 ,1.52275 ,-0.91614 ,-8.98914 
456 ,83.0663 ,1.52455 ,-0.90929 ,-8.92198 
457 ,83.2426 ,1.52627 ,-0.91956 ,-9.02272 
458 ,83.4344 ,1.52823 ,-0.95036 ,-9.32492 
459 ,83.6268 ,1.53004 ,-0.95036 ,-9.32492 
460 ,83.8187 ,1.53205 ,-0.95720 ,-9.39208 
461 ,83.9948 ,1.53376 ,-0.97774 ,-9.59355 
462 ,84.1708 ,1.53555 ,-0.97774 ,-9.59355 
463 ,84.3631 ,1.53747 ,-0.98116 ,-9.62713 
