Data stamp = , 29-03-2022 11:01:23 574

Calibration Values: 
Slope = , 26.54 , g/V 
Offset Voltage at no contact = , -0.501760 , V 

No , Time , Stage Position ,   Mass , Force 
   ,  (s) ,      (mm)      ,   (g)  , (mN)  

1 ,0.0000 ,0.69951 ,5.27114 ,51.72043 
2 ,0.2148 ,0.69960 ,5.27456 ,51.75401 
3 ,0.4388 ,0.70015 ,5.27798 ,51.78758 
4 ,0.6307 ,0.70113 ,5.28483 ,51.85474 
5 ,0.8066 ,0.70250 ,5.27114 ,51.72043 
6 ,0.9829 ,0.70406 ,5.27456 ,51.75401 
7 ,1.1750 ,0.70591 ,5.29852 ,51.98905 
8 ,1.3511 ,0.70769 ,5.28483 ,51.85474 
9 ,1.5272 ,0.70952 ,5.27456 ,51.75401 
10 ,1.7192 ,0.71142 ,5.25061 ,51.51896 
11 ,1.8949 ,0.71317 ,5.25061 ,51.51896 
12 ,2.0714 ,0.71499 ,5.23007 ,51.31749 
13 ,2.2474 ,0.71671 ,5.18559 ,50.88097 
14 ,2.4235 ,0.71846 ,5.17532 ,50.78023 
15 ,2.5837 ,0.72018 ,5.17532 ,50.78023 
16 ,2.7754 ,0.72193 ,5.15479 ,50.57876 
17 ,2.9516 ,0.72376 ,5.14794 ,50.51161 
18 ,3.1275 ,0.72551 ,5.11030 ,50.14225 
19 ,3.3037 ,0.72729 ,5.10345 ,50.07509 
20 ,3.4960 ,0.72917 ,5.09661 ,50.00793 
21 ,3.6719 ,0.73098 ,5.07950 ,49.84004 
22 ,3.8481 ,0.73273 ,5.05897 ,49.63857 
23 ,4.0241 ,0.73448 ,5.03501 ,49.40352 
24 ,4.2000 ,0.73621 ,5.03501 ,49.40352 
25 ,4.3764 ,0.73799 ,5.02474 ,49.30279 
26 ,4.5523 ,0.73971 ,5.00421 ,49.10132 
27 ,4.7285 ,0.74152 ,4.98026 ,48.86627 
28 ,4.9206 ,0.74343 ,4.96657 ,48.73196 
29 ,5.0966 ,0.74522 ,4.95288 ,48.59764 
30 ,5.2886 ,0.74707 ,4.93577 ,48.42975 
31 ,5.4647 ,0.74880 ,4.91523 ,48.22828 
32 ,5.6408 ,0.75066 ,4.91866 ,48.26186 
33 ,5.8169 ,0.75239 ,4.89812 ,48.06039 
34 ,5.9927 ,0.75417 ,4.89470 ,48.02681 
35 ,6.1690 ,0.75596 ,4.86390 ,47.72461 
36 ,6.3611 ,0.75787 ,4.85364 ,47.62387 
37 ,6.5371 ,0.75962 ,4.83310 ,47.42240 
38 ,6.7292 ,0.76150 ,4.81599 ,47.25451 
39 ,6.9050 ,0.76325 ,4.79204 ,47.01946 
40 ,7.0814 ,0.76503 ,4.77493 ,46.85157 
41 ,7.2735 ,0.76692 ,4.76466 ,46.75084 
42 ,7.4657 ,0.76888 ,4.73386 ,46.44863 
43 ,7.6416 ,0.77065 ,4.73044 ,46.41506 
44 ,7.8174 ,0.77236 ,4.72017 ,46.31432 
45 ,7.9938 ,0.77421 ,4.69279 ,46.04569 
46 ,8.1535 ,0.77586 ,4.68595 ,45.97854 
47 ,8.3299 ,0.77750 ,4.67568 ,45.87780 
48 ,8.5220 ,0.77943 ,4.64488 ,45.57560 
49 ,8.7140 ,0.78134 ,4.64831 ,45.60918 
50 ,8.8901 ,0.78307 ,4.61408 ,45.27339 
51 ,9.0822 ,0.78505 ,4.60382 ,45.17266 
52 ,9.2582 ,0.78680 ,4.60382 ,45.17266 
53 ,9.4503 ,0.78867 ,4.57986 ,44.93761 
54 ,9.6265 ,0.79059 ,4.55591 ,44.70256 
55 ,9.8026 ,0.79225 ,4.53195 ,44.46751 
56 ,9.9946 ,0.79413 ,4.53880 ,44.53467 
57 ,10.1868 ,0.79609 ,4.49773 ,44.13173 
58 ,10.3949 ,0.79807 ,4.49431 ,44.09815 
59 ,10.6029 ,0.80018 ,4.47378 ,43.89668 
60 ,10.7786 ,0.80203 ,4.46009 ,43.76237 
61 ,10.9548 ,0.80371 ,4.44982 ,43.66163 
62 ,11.1471 ,0.80556 ,4.43271 ,43.49374 
63 ,11.3231 ,0.80759 ,4.40533 ,43.22512 
64 ,11.4992 ,0.80921 ,4.39507 ,43.12438 
65 ,11.6753 ,0.81097 ,4.38822 ,43.05723 
66 ,11.8510 ,0.81276 ,4.36769 ,42.85576 
67 ,12.0114 ,0.81441 ,4.33004 ,42.48639 
68 ,12.1879 ,0.81610 ,4.32320 ,42.41924 
69 ,12.3796 ,0.81798 ,4.30951 ,42.28492 
70 ,12.5875 ,0.81998 ,4.29240 ,42.11703 
71 ,12.7792 ,0.82202 ,4.27529 ,41.94914 
72 ,12.9554 ,0.82377 ,4.26502 ,41.84841 
73 ,13.1157 ,0.82547 ,4.24791 ,41.68051 
74 ,13.3077 ,0.82721 ,4.21711 ,41.37831 
75 ,13.5000 ,0.82912 ,4.21711 ,41.37831 
76 ,13.6759 ,0.83098 ,4.19658 ,41.17684 
77 ,13.8521 ,0.83273 ,4.17262 ,40.94179 
78 ,14.0442 ,0.83464 ,4.14867 ,40.70674 
79 ,14.2203 ,0.83642 ,4.12814 ,40.50527 
80 ,14.4119 ,0.83831 ,4.12471 ,40.47170 
81 ,14.6045 ,0.84009 ,4.08707 ,40.10233 
82 ,14.7965 ,0.84215 ,4.08707 ,40.10233 
83 ,14.9565 ,0.84388 ,4.06996 ,39.93444 
84 ,15.1327 ,0.84556 ,4.05285 ,39.76655 
85 ,15.3087 ,0.84729 ,4.03574 ,39.59866 
86 ,15.4851 ,0.84903 ,4.01520 ,39.39719 
87 ,15.6930 ,0.85102 ,4.01520 ,39.39719 
88 ,15.8689 ,0.85293 ,3.98098 ,39.06141 
89 ,16.0289 ,0.85457 ,3.97072 ,38.96067 
90 ,16.2051 ,0.85624 ,3.95018 ,38.75920 
91 ,16.3813 ,0.85803 ,3.93307 ,38.59131 
92 ,16.5572 ,0.85987 ,3.92965 ,38.55773 
93 ,16.7493 ,0.86165 ,3.89201 ,38.18837 
94 ,16.9413 ,0.86351 ,3.87832 ,38.05406 
95 ,17.1174 ,0.86535 ,3.87832 ,38.05406 
96 ,17.2935 ,0.86713 ,3.86805 ,37.95332 
97 ,17.4856 ,0.86894 ,3.83041 ,37.58396 
98 ,17.6777 ,0.87095 ,3.82356 ,37.51681 
99 ,17.8537 ,0.87273 ,3.80303 ,37.31534 
100 ,18.0459 ,0.87453 ,3.77908 ,37.08029 
101 ,18.2379 ,0.87657 ,3.78250 ,37.11387 
102 ,18.4140 ,0.87834 ,3.75512 ,36.84524 
103 ,18.5736 ,0.88007 ,3.73459 ,36.64377 
104 ,18.7499 ,0.88166 ,3.71748 ,36.47588 
105 ,18.9257 ,0.88340 ,3.70037 ,36.30799 
106 ,19.1022 ,0.88520 ,3.67641 ,36.07294 
107 ,19.2944 ,0.88710 ,3.67641 ,36.07294 
108 ,19.4703 ,0.88893 ,3.65930 ,35.90505 
109 ,19.6624 ,0.89080 ,3.63534 ,35.67000 
110 ,19.8385 ,0.89251 ,3.62508 ,35.56926 
111 ,20.0147 ,0.89430 ,3.61139 ,35.43495 
112 ,20.2067 ,0.89627 ,3.57717 ,35.09917 
113 ,20.3831 ,0.89804 ,3.56006 ,34.93128 
114 ,20.5584 ,0.89973 ,3.55663 ,34.89770 
115 ,20.7349 ,0.90151 ,3.54979 ,34.83054 
116 ,20.9270 ,0.90342 ,3.51557 ,34.49476 
117 ,21.1190 ,0.90533 ,3.51215 ,34.46118 
118 ,21.3111 ,0.90728 ,3.50188 ,34.36045 
119 ,21.4872 ,0.90906 ,3.45739 ,33.92393 
120 ,21.6633 ,0.91081 ,3.46424 ,33.99108 
121 ,21.8392 ,0.91253 ,3.44370 ,33.78961 
122 ,22.0315 ,0.91443 ,3.41633 ,33.52099 
123 ,22.2234 ,0.91638 ,3.39237 ,33.28594 
124 ,22.3994 ,0.91813 ,3.40264 ,33.38667 
125 ,22.5756 ,0.91989 ,3.38553 ,33.21878 
126 ,22.7674 ,0.92177 ,3.34788 ,32.84942 
127 ,22.9439 ,0.92361 ,3.33077 ,32.68153 
128 ,23.1519 ,0.92555 ,3.34104 ,32.78227 
129 ,23.3279 ,0.92747 ,3.29997 ,32.37933 
130 ,23.5041 ,0.92919 ,3.27602 ,32.14428 
131 ,23.6802 ,0.93097 ,3.27944 ,32.17786 
132 ,23.8721 ,0.93282 ,3.24522 ,31.84207 
133 ,24.0322 ,0.93460 ,3.23153 ,31.70776 
134 ,24.2243 ,0.93644 ,3.22126 ,31.60702 
135 ,24.4003 ,0.93816 ,3.21442 ,31.53987 
136 ,24.5766 ,0.93993 ,3.20073 ,31.40555 
137 ,24.7525 ,0.94171 ,3.18704 ,31.27124 
138 ,24.9284 ,0.94340 ,3.15966 ,31.00262 
139 ,25.1044 ,0.94524 ,3.14940 ,30.90188 
140 ,25.2968 ,0.94711 ,3.12202 ,30.63325 
141 ,25.4889 ,0.94903 ,3.11518 ,30.56610 
142 ,25.6808 ,0.95094 ,3.10833 ,30.49894 
143 ,25.8564 ,0.95272 ,3.08780 ,30.29747 
144 ,26.0329 ,0.95442 ,3.07411 ,30.16316 
145 ,26.2251 ,0.95638 ,3.03989 ,29.82737 
146 ,26.4012 ,0.95817 ,3.03647 ,29.79380 
147 ,26.5772 ,0.95992 ,3.02962 ,29.72664 
148 ,26.7532 ,0.96171 ,3.01251 ,29.55875 
149 ,26.9294 ,0.96343 ,2.97829 ,29.22297 
150 ,27.1214 ,0.96531 ,2.96802 ,29.12223 
151 ,27.3135 ,0.96729 ,2.95433 ,28.98792 
152 ,27.4899 ,0.96903 ,2.93380 ,28.78645 
153 ,27.6656 ,0.97081 ,2.92353 ,28.68571 
154 ,27.8420 ,0.97254 ,2.91669 ,28.61856 
155 ,28.0334 ,0.97446 ,2.89958 ,28.45066 
156 ,28.2100 ,0.97624 ,2.87562 ,28.21562 
157 ,28.3860 ,0.97799 ,2.85167 ,27.98057 
158 ,28.5782 ,0.97986 ,2.85851 ,28.04772 
159 ,28.7543 ,0.98169 ,2.84482 ,27.91341 
160 ,28.9462 ,0.98354 ,2.80376 ,27.51047 
161 ,29.1540 ,0.98551 ,2.80376 ,27.51047 
162 ,29.3299 ,0.98744 ,2.77296 ,27.20827 
163 ,29.4900 ,0.98916 ,2.74900 ,26.97322 
164 ,29.6665 ,0.99082 ,2.73874 ,26.87248 
165 ,29.8904 ,0.99303 ,2.74216 ,26.90606 
166 ,30.0668 ,0.99487 ,2.70109 ,26.50312 
167 ,30.2587 ,0.99671 ,2.70794 ,26.57028 
168 ,30.4508 ,0.99854 ,2.69767 ,26.46954 
169 ,30.6269 ,1.00039 ,2.67029 ,26.20092 
170 ,30.8030 ,1.00216 ,2.65318 ,26.03303 
171 ,30.9791 ,1.00388 ,2.63949 ,25.89871 
172 ,31.1548 ,1.00570 ,2.63949 ,25.89871 
173 ,31.3311 ,1.00748 ,2.61896 ,25.69724 
174 ,31.5071 ,1.00920 ,2.57789 ,25.29430 
175 ,31.6835 ,1.01100 ,2.58474 ,25.36146 
176 ,31.8593 ,1.01272 ,2.58132 ,25.32788 
177 ,32.0515 ,1.01452 ,2.57105 ,25.22715 
178 ,32.2272 ,1.01644 ,2.53341 ,24.85779 
179 ,32.4037 ,1.01812 ,2.51287 ,24.65632 
180 ,32.5958 ,1.02010 ,2.51972 ,24.72347 
181 ,32.7716 ,1.02181 ,2.47865 ,24.32053 
182 ,32.9479 ,1.02358 ,2.46154 ,24.15264 
183 ,33.1239 ,1.02536 ,2.44785 ,24.01833 
184 ,33.3000 ,1.02711 ,2.45470 ,24.08549 
185 ,33.4920 ,1.02902 ,2.43074 ,23.85044 
186 ,33.6682 ,1.03078 ,2.40679 ,23.61539 
187 ,33.8603 ,1.03258 ,2.39310 ,23.48108 
188 ,34.0524 ,1.03463 ,2.36572 ,23.21245 
189 ,34.2444 ,1.03660 ,2.35888 ,23.14529 
190 ,34.4205 ,1.03832 ,2.35545 ,23.11171 
191 ,34.6128 ,1.04023 ,2.33150 ,22.87667 
192 ,34.7887 ,1.04202 ,2.31097 ,22.67520 
193 ,34.9646 ,1.04374 ,2.29728 ,22.54088 
194 ,35.1569 ,1.04564 ,2.29043 ,22.47373 
195 ,35.3486 ,1.04757 ,2.25621 ,22.13794 
196 ,35.5250 ,1.04934 ,2.24594 ,22.03721 
197 ,35.7329 ,1.05135 ,2.24594 ,22.03721 
198 ,35.9088 ,1.05320 ,2.21172 ,21.70143 
199 ,36.1011 ,1.05507 ,2.21515 ,21.73500 
200 ,36.2769 ,1.05690 ,2.19803 ,21.56711 
201 ,36.4370 ,1.05859 ,2.18435 ,21.43280 
202 ,36.6133 ,1.06020 ,2.14328 ,21.02986 
203 ,36.8055 ,1.06219 ,2.12959 ,20.89555 
204 ,36.9814 ,1.06391 ,2.13986 ,20.99628 
205 ,37.1576 ,1.06569 ,2.12617 ,20.86197 
206 ,37.3335 ,1.06740 ,2.11590 ,20.76123 
207 ,37.5258 ,1.06939 ,2.08510 ,20.45903 
208 ,37.7020 ,1.07113 ,2.07484 ,20.35829 
209 ,37.8939 ,1.07305 ,2.05773 ,20.19040 
210 ,38.0699 ,1.07480 ,2.04061 ,20.02251 
211 ,38.2622 ,1.07674 ,2.03035 ,19.92178 
212 ,38.4380 ,1.07850 ,2.02008 ,19.82104 
213 ,38.6301 ,1.08040 ,1.99270 ,19.55241 
214 ,38.8062 ,1.08221 ,1.97559 ,19.38452 
215 ,38.9825 ,1.08394 ,1.96533 ,19.28379 
216 ,39.1585 ,1.08575 ,1.97217 ,19.35094 
217 ,39.3507 ,1.08753 ,1.94822 ,19.11590 
218 ,39.5262 ,1.08935 ,1.91742 ,18.81369 
219 ,39.7026 ,1.09116 ,1.91399 ,18.78011 
220 ,39.8948 ,1.09304 ,1.90031 ,18.64580 
221 ,40.0550 ,1.09474 ,1.87635 ,18.41075 
222 ,40.2309 ,1.09639 ,1.85582 ,18.20928 
223 ,40.4071 ,1.09814 ,1.84897 ,18.14213 
224 ,40.5990 ,1.10000 ,1.83871 ,18.04139 
225 ,40.7750 ,1.10194 ,1.82844 ,17.94066 
226 ,40.9672 ,1.10379 ,1.80106 ,17.67203 
227 ,41.1591 ,1.10567 ,1.80791 ,17.73919 
228 ,41.3514 ,1.10757 ,1.76684 ,17.33625 
229 ,41.5432 ,1.10955 ,1.76342 ,17.30267 
230 ,41.7356 ,1.11146 ,1.74289 ,17.10120 
231 ,41.9275 ,1.11334 ,1.71893 ,16.86615 
232 ,42.1036 ,1.11512 ,1.71551 ,16.83257 
233 ,42.2798 ,1.11691 ,1.71209 ,16.79899 
234 ,42.4881 ,1.11892 ,1.68813 ,16.56395 
235 ,42.6636 ,1.12073 ,1.66760 ,16.36248 
236 ,42.8401 ,1.12246 ,1.67444 ,16.42963 
237 ,43.0158 ,1.12426 ,1.65733 ,16.26174 
238 ,43.2081 ,1.12617 ,1.62653 ,15.95954 
239 ,43.4001 ,1.12806 ,1.62311 ,15.92596 
240 ,43.5763 ,1.12980 ,1.60600 ,15.75807 
241 ,43.7523 ,1.13166 ,1.58547 ,15.55660 
242 ,43.9282 ,1.13334 ,1.57520 ,15.45586 
243 ,44.1046 ,1.13514 ,1.57178 ,15.42228 
244 ,44.2966 ,1.13702 ,1.54098 ,15.12008 
245 ,44.4888 ,1.13901 ,1.52045 ,14.91861 
246 ,44.6647 ,1.14071 ,1.52387 ,14.95219 
247 ,44.8408 ,1.14248 ,1.52387 ,14.95219 
248 ,45.0166 ,1.14421 ,1.49307 ,14.64998 
249 ,45.1931 ,1.14605 ,1.48965 ,14.61640 
250 ,45.3690 ,1.14780 ,1.44858 ,14.21346 
251 ,45.5451 ,1.14950 ,1.46569 ,14.38136 
252 ,45.7211 ,1.15125 ,1.44174 ,14.14631 
253 ,45.9131 ,1.15320 ,1.40751 ,13.81053 
254 ,46.1053 ,1.15510 ,1.41436 ,13.87768 
255 ,46.2815 ,1.15692 ,1.40409 ,13.77695 
256 ,46.4736 ,1.15868 ,1.39040 ,13.64263 
257 ,46.6656 ,1.16074 ,1.35960 ,13.34043 
258 ,46.8416 ,1.16249 ,1.36645 ,13.40759 
259 ,47.0177 ,1.16422 ,1.34249 ,13.17254 
260 ,47.1938 ,1.16603 ,1.32880 ,13.03822 
261 ,47.3699 ,1.16781 ,1.29800 ,12.73602 
262 ,47.5620 ,1.16972 ,1.32196 ,12.97107 
263 ,47.7539 ,1.17157 ,1.28432 ,12.60171 
264 ,47.9301 ,1.17333 ,1.26036 ,12.36666 
265 ,48.1058 ,1.17514 ,1.26036 ,12.36666 
266 ,48.2983 ,1.17702 ,1.24325 ,12.19877 
267 ,48.4741 ,1.17884 ,1.22956 ,12.06445 
268 ,48.6665 ,1.18071 ,1.22614 ,12.03088 
269 ,48.8421 ,1.18247 ,1.21929 ,11.96372 
270 ,49.0187 ,1.18424 ,1.21587 ,11.93014 
271 ,49.2106 ,1.18612 ,1.16796 ,11.46004 
272 ,49.3868 ,1.18791 ,1.17481 ,11.52720 
273 ,49.5628 ,1.18973 ,1.16796 ,11.46004 
274 ,49.7389 ,1.19148 ,1.14743 ,11.25857 
275 ,49.9147 ,1.19323 ,1.12005 ,10.98995 
276 ,50.0910 ,1.19502 ,1.11321 ,10.92279 
277 ,50.2670 ,1.19673 ,1.10636 ,10.85563 
278 ,50.4433 ,1.19846 ,1.09610 ,10.75490 
279 ,50.6193 ,1.20022 ,1.07214 ,10.51985 
280 ,50.8111 ,1.20208 ,1.07214 ,10.51985 
281 ,50.9870 ,1.20397 ,1.05161 ,10.31838 
282 ,51.1473 ,1.20563 ,1.04134 ,10.21765 
283 ,51.3395 ,1.20741 ,1.03108 ,10.11691 
284 ,51.5156 ,1.20919 ,0.99685 ,9.78113 
285 ,51.6917 ,1.21094 ,0.99343 ,9.74755 
286 ,51.8837 ,1.21283 ,0.98659 ,9.68039 
287 ,52.0599 ,1.21460 ,0.97290 ,9.54608 
288 ,52.2359 ,1.21640 ,0.94894 ,9.31103 
289 ,52.4120 ,1.21812 ,0.94894 ,9.31103 
290 ,52.6042 ,1.22012 ,0.93868 ,9.21030 
291 ,52.7800 ,1.22190 ,0.93183 ,9.14314 
292 ,52.9718 ,1.22368 ,0.90788 ,8.90809 
293 ,53.1483 ,1.22556 ,0.89419 ,8.77378 
294 ,53.3244 ,1.22732 ,0.88392 ,8.67305 
295 ,53.5000 ,1.22904 ,0.88050 ,8.63947 
296 ,53.6766 ,1.23079 ,0.85312 ,8.37084 
297 ,53.8525 ,1.23254 ,0.83259 ,8.16937 
298 ,54.0287 ,1.23432 ,0.83259 ,8.16937 
299 ,54.2208 ,1.23620 ,0.82575 ,8.10221 
300 ,54.4129 ,1.23821 ,0.79837 ,7.83359 
301 ,54.5890 ,1.23999 ,0.79495 ,7.80001 
302 ,54.7646 ,1.24166 ,0.78810 ,7.73285 
303 ,54.9410 ,1.24347 ,0.76072 ,7.46423 
304 ,55.1171 ,1.24522 ,0.75046 ,7.36349 
305 ,55.3090 ,1.24711 ,0.75046 ,7.36349 
306 ,55.4855 ,1.24889 ,0.74019 ,7.26276 
307 ,55.6613 ,1.25067 ,0.71966 ,7.06129 
308 ,55.8535 ,1.25243 ,0.69913 ,6.85982 
309 ,56.0295 ,1.25433 ,0.68886 ,6.75908 
310 ,56.2213 ,1.25628 ,0.68886 ,6.75908 
311 ,56.3977 ,1.25802 ,0.66833 ,6.55761 
312 ,56.5737 ,1.25981 ,0.64437 ,6.32256 
313 ,56.7498 ,1.26153 ,0.64779 ,6.35614 
314 ,56.9259 ,1.26331 ,0.64779 ,6.35614 
315 ,57.0860 ,1.26498 ,0.62042 ,6.08752 
316 ,57.2620 ,1.26667 ,0.61015 ,5.98678 
317 ,57.4542 ,1.26857 ,0.58962 ,5.78531 
318 ,57.6303 ,1.27033 ,0.58619 ,5.75173 
319 ,57.8063 ,1.27211 ,0.58962 ,5.78531 
320 ,57.9824 ,1.27387 ,0.56224 ,5.51668 
321 ,58.1584 ,1.27559 ,0.53144 ,5.21448 
322 ,58.3502 ,1.27750 ,0.53828 ,5.28164 
323 ,58.5262 ,1.27930 ,0.53486 ,5.24806 
324 ,58.7027 ,1.28100 ,0.48695 ,4.77796 
325 ,58.8948 ,1.28298 ,0.48695 ,4.77796 
326 ,59.0707 ,1.28472 ,0.50406 ,4.94585 
327 ,59.2469 ,1.28648 ,0.48695 ,4.77796 
328 ,59.4066 ,1.28819 ,0.46642 ,4.57649 
329 ,59.5829 ,1.28985 ,0.45273 ,4.44218 
330 ,59.7592 ,1.29161 ,0.42535 ,4.17355 
331 ,59.9352 ,1.29338 ,0.42193 ,4.13997 
332 ,60.1112 ,1.29514 ,0.42535 ,4.17355 
333 ,60.3032 ,1.29695 ,0.39797 ,3.90493 
334 ,60.4790 ,1.29884 ,0.39113 ,3.83777 
335 ,60.6715 ,1.30062 ,0.37744 ,3.70346 
336 ,60.8474 ,1.30250 ,0.38429 ,3.77061 
337 ,61.0235 ,1.30428 ,0.36033 ,3.53557 
338 ,61.1994 ,1.30598 ,0.33295 ,3.26694 
339 ,61.3917 ,1.30791 ,0.33295 ,3.26694 
340 ,61.5677 ,1.30969 ,0.31926 ,3.13263 
341 ,61.7439 ,1.31145 ,0.30215 ,2.96473 
342 ,61.9359 ,1.31329 ,0.28847 ,2.83042 
343 ,62.1280 ,1.31527 ,0.28162 ,2.76326 
344 ,62.3041 ,1.31703 ,0.26451 ,2.59537 
345 ,62.4962 ,1.31894 ,0.26109 ,2.56179 
346 ,62.6884 ,1.32084 ,0.23371 ,2.29317 
347 ,62.8644 ,1.32264 ,0.22687 ,2.22601 
348 ,63.0404 ,1.32439 ,0.21660 ,2.12528 
349 ,63.2165 ,1.32617 ,0.18922 ,1.85665 
350 ,63.4086 ,1.32811 ,0.19949 ,1.95738 
351 ,63.6006 ,1.33001 ,0.17896 ,1.75592 
352 ,63.7767 ,1.33174 ,0.16869 ,1.65518 
353 ,63.9687 ,1.33374 ,0.17211 ,1.68876 
354 ,64.1449 ,1.33540 ,0.14816 ,1.45371 
355 ,64.3209 ,1.33721 ,0.12762 ,1.25224 
356 ,64.4968 ,1.33898 ,0.10709 ,1.05077 
357 ,64.6729 ,1.34072 ,0.12078 ,1.18508 
358 ,64.8492 ,1.34251 ,0.11393 ,1.11793 
359 ,65.0251 ,1.34425 ,0.09682 ,0.95004 
360 ,65.2012 ,1.34595 ,0.06602 ,0.64783 
361 ,65.3770 ,1.34776 ,0.06945 ,0.68141 
362 ,65.5534 ,1.34954 ,0.05918 ,0.58067 
363 ,65.7295 ,1.35126 ,0.04891 ,0.47994 
364 ,65.9214 ,1.35318 ,0.02496 ,0.24489 
365 ,66.0972 ,1.35499 ,0.00785 ,0.07700 
366 ,66.2735 ,1.35668 ,0.00100 ,0.00984 
367 ,66.4499 ,1.35849 ,0.01127 ,0.11058 
368 ,66.6254 ,1.36031 ,-0.00584 ,-0.05731 
369 ,66.8019 ,1.36204 ,-0.02980 ,-0.29236 
370 ,67.0096 ,1.36402 ,-0.03322 ,-0.32594 
371 ,67.1861 ,1.36585 ,-0.04691 ,-0.46025 
372 ,67.3780 ,1.36780 ,-0.05717 ,-0.56099 
373 ,67.5540 ,1.36952 ,-0.07086 ,-0.69530 
374 ,67.7298 ,1.37127 ,-0.07428 ,-0.72888 
375 ,67.9063 ,1.37300 ,-0.08797 ,-0.86319 
376 ,68.0821 ,1.37485 ,-0.10851 ,-1.06466 
377 ,68.2585 ,1.37659 ,-0.12562 ,-1.23255 
378 ,68.4505 ,1.37840 ,-0.12219 ,-1.19898 
379 ,68.6426 ,1.38036 ,-0.13588 ,-1.33329 
380 ,68.8344 ,1.38229 ,-0.14957 ,-1.46760 
381 ,69.0108 ,1.38412 ,-0.14957 ,-1.46760 
382 ,69.1869 ,1.38589 ,-0.17353 ,-1.70265 
383 ,69.3789 ,1.38772 ,-0.18037 ,-1.76981 
384 ,69.5551 ,1.38955 ,-0.19748 ,-1.93770 
385 ,69.7310 ,1.39130 ,-0.20433 ,-2.00485 
386 ,69.9071 ,1.39299 ,-0.22144 ,-2.17275 
387 ,70.0990 ,1.39494 ,-0.22828 ,-2.23990 
388 ,70.2752 ,1.39672 ,-0.23513 ,-2.30706 
389 ,70.4512 ,1.39847 ,-0.23855 ,-2.34064 
390 ,70.6272 ,1.40024 ,-0.26250 ,-2.57569 
391 ,70.8033 ,1.40201 ,-0.26593 ,-2.60926 
392 ,70.9796 ,1.40374 ,-0.27961 ,-2.74358 
393 ,71.1555 ,1.40561 ,-0.27961 ,-2.74358 
394 ,71.3317 ,1.40733 ,-0.28304 ,-2.77716 
395 ,71.5238 ,1.40921 ,-0.32068 ,-3.14652 
396 ,71.6996 ,1.41096 ,-0.32752 ,-3.21367 
397 ,71.8915 ,1.41279 ,-0.33095 ,-3.24725 
398 ,72.0837 ,1.41469 ,-0.34464 ,-3.38156 
399 ,72.2917 ,1.41680 ,-0.35148 ,-3.44872 
400 ,72.4681 ,1.41862 ,-0.37544 ,-3.68377 
401 ,72.6761 ,1.42067 ,-0.36859 ,-3.61661 
402 ,72.8522 ,1.42244 ,-0.38228 ,-3.75093 
403 ,73.0280 ,1.42428 ,-0.38228 ,-3.75093 
404 ,73.2045 ,1.42599 ,-0.42335 ,-4.15387 
405 ,73.3964 ,1.42792 ,-0.42677 ,-4.18744 
406 ,73.5722 ,1.42964 ,-0.43361 ,-4.25460 
407 ,73.7485 ,1.43145 ,-0.44388 ,-4.35534 
408 ,73.9246 ,1.43319 ,-0.45757 ,-4.48965 
409 ,74.1004 ,1.43498 ,-0.46783 ,-4.59038 
410 ,74.2929 ,1.43684 ,-0.47468 ,-4.65754 
411 ,74.4849 ,1.43883 ,-0.49521 ,-4.85901 
412 ,74.6610 ,1.44058 ,-0.50206 ,-4.92617 
413 ,74.8531 ,1.44248 ,-0.49863 ,-4.89259 
414 ,75.0288 ,1.44423 ,-0.51574 ,-5.06048 
415 ,75.2051 ,1.44603 ,-0.53285 ,-5.22837 
416 ,75.3971 ,1.44792 ,-0.54312 ,-5.32911 
417 ,75.5733 ,1.44967 ,-0.53970 ,-5.29553 
418 ,75.7493 ,1.45139 ,-0.56708 ,-5.56415 
419 ,75.9255 ,1.45317 ,-0.58077 ,-5.69847 
420 ,76.1012 ,1.45498 ,-0.59103 ,-5.79920 
421 ,76.2939 ,1.45675 ,-0.58419 ,-5.73205 
422 ,76.4858 ,1.45875 ,-0.61499 ,-6.03425 
423 ,76.6780 ,1.46066 ,-0.62868 ,-6.16856 
424 ,76.8697 ,1.46264 ,-0.62868 ,-6.16856 
425 ,77.0618 ,1.46454 ,-0.64579 ,-6.33646 
426 ,77.2540 ,1.46653 ,-0.65947 ,-6.47077 
427 ,77.4458 ,1.46839 ,-0.66290 ,-6.50435 
428 ,77.6058 ,1.47011 ,-0.68343 ,-6.70582 
429 ,77.7818 ,1.47178 ,-0.69027 ,-6.77297 
430 ,77.9579 ,1.47349 ,-0.68685 ,-6.73940 
431 ,78.1179 ,1.47524 ,-0.69712 ,-6.84013 
432 ,78.2780 ,1.47682 ,-0.70396 ,-6.90729 
433 ,78.4381 ,1.47846 ,-0.71423 ,-7.00802 
434 ,78.5981 ,1.48002 ,-0.72107 ,-7.07518 
435 ,78.7582 ,1.48163 ,-0.72792 ,-7.14233 
436 ,78.9183 ,1.48322 ,-0.75187 ,-7.37738 
437 ,79.0948 ,1.48489 ,-0.75530 ,-7.41096 
438 ,79.2704 ,1.48669 ,-0.75530 ,-7.41096 
439 ,79.4465 ,1.48838 ,-0.78267 ,-7.67959 
440 ,79.6066 ,1.49009 ,-0.79978 ,-7.84748 
441 ,79.7665 ,1.49169 ,-0.81005 ,-7.94821 
442 ,79.9267 ,1.49332 ,-0.82374 ,-8.08253 
443 ,80.0868 ,1.49493 ,-0.83058 ,-8.14968 
444 ,80.2629 ,1.49657 ,-0.83401 ,-8.18326 
445 ,80.4389 ,1.49831 ,-0.85112 ,-8.35115 
446 ,80.5989 ,1.50001 ,-0.83401 ,-8.18326 
447 ,80.7751 ,1.50166 ,-0.85454 ,-8.38473 
448 ,80.9351 ,1.50337 ,-0.85112 ,-8.35115 
449 ,81.0953 ,1.50500 ,-0.86481 ,-8.48547 
450 ,81.2712 ,1.50663 ,-0.86138 ,-8.45189 
451 ,81.4474 ,1.50840 ,-0.88192 ,-8.65336 
452 ,81.6075 ,1.51012 ,-0.90587 ,-8.88841 
453 ,81.7838 ,1.51175 ,-0.91956 ,-9.02272 
454 ,81.9596 ,1.51350 ,-0.92640 ,-9.08988 
455 ,82.1359 ,1.51530 ,-0.89903 ,-8.82125 
456 ,82.3121 ,1.51711 ,-0.91272 ,-8.95556 
457 ,82.5042 ,1.51888 ,-0.92640 ,-9.08988 
458 ,82.6964 ,1.52090 ,-0.94009 ,-9.22419 
459 ,82.9044 ,1.52287 ,-0.95720 ,-9.39208 
460 ,83.0799 ,1.52476 ,-0.97089 ,-9.52639 
461 ,83.2726 ,1.52650 ,-0.95720 ,-9.39208 
462 ,83.4646 ,1.52854 ,-0.99827 ,-9.79502 
463 ,83.6407 ,1.53030 ,-0.99143 ,-9.72786 
