Data stamp = , 29-03-2022 11:14:22 473

Calibration Values: 
Slope = , 26.54 , g/V 
Offset Voltage at no contact = , -0.501760 , V 

No , Time , Stage Position ,   Mass , Force 
   ,  (s) ,      (mm)      ,   (g)  , (mN)  

1 ,0.0000 ,0.69951 ,5.27114 ,51.72043 
2 ,0.2142 ,0.69958 ,5.27114 ,51.72043 
3 ,0.5185 ,0.70034 ,5.27114 ,51.72043 
4 ,0.7106 ,0.70167 ,5.27798 ,51.78758 
5 ,0.8867 ,0.70317 ,5.25745 ,51.58611 
6 ,1.0789 ,0.70505 ,5.27114 ,51.72043 
7 ,1.2547 ,0.70671 ,5.28141 ,51.82116 
8 ,1.4789 ,0.70888 ,5.27798 ,51.78758 
9 ,1.6550 ,0.71079 ,5.25403 ,51.55254 
10 ,1.8471 ,0.71264 ,5.23007 ,51.31749 
11 ,2.0232 ,0.71449 ,5.21296 ,51.14960 
12 ,2.1990 ,0.71623 ,5.20270 ,51.04886 
13 ,2.3913 ,0.71820 ,5.19243 ,50.94813 
14 ,2.5671 ,0.71990 ,5.16163 ,50.64592 
15 ,2.7593 ,0.72184 ,5.16848 ,50.71308 
16 ,2.9512 ,0.72375 ,5.13425 ,50.37729 
17 ,3.1276 ,0.72553 ,5.10688 ,50.10867 
18 ,3.3195 ,0.72745 ,5.11030 ,50.14225 
19 ,3.5113 ,0.72929 ,5.09319 ,49.97436 
20 ,3.6877 ,0.73111 ,5.07608 ,49.80646 
21 ,3.8798 ,0.73308 ,5.06581 ,49.70573 
22 ,4.0716 ,0.73496 ,5.03843 ,49.43710 
23 ,4.2479 ,0.73672 ,5.02132 ,49.26921 
24 ,4.4241 ,0.73850 ,5.00079 ,49.06774 
25 ,4.5839 ,0.74021 ,4.99394 ,49.00058 
26 ,4.7601 ,0.74179 ,4.97341 ,48.79911 
27 ,4.9364 ,0.74365 ,4.98026 ,48.86627 
28 ,5.1283 ,0.74545 ,4.94946 ,48.56407 
29 ,5.3204 ,0.74743 ,4.93577 ,48.42975 
30 ,5.5126 ,0.74923 ,4.93577 ,48.42975 
31 ,5.7206 ,0.75134 ,4.90155 ,48.09397 
32 ,5.9128 ,0.75341 ,4.89812 ,48.06039 
33 ,6.1048 ,0.75528 ,4.86390 ,47.72461 
34 ,6.2969 ,0.75721 ,4.86732 ,47.75819 
35 ,6.4728 ,0.75898 ,4.83310 ,47.42240 
36 ,6.6488 ,0.76068 ,4.81599 ,47.25451 
37 ,6.8249 ,0.76248 ,4.79888 ,47.08662 
38 ,7.0016 ,0.76421 ,4.78519 ,46.95231 
39 ,7.1931 ,0.76612 ,4.77493 ,46.85157 
40 ,7.3852 ,0.76810 ,4.74413 ,46.54937 
41 ,7.5611 ,0.76991 ,4.74413 ,46.54937 
42 ,7.7534 ,0.77170 ,4.73044 ,46.41506 
43 ,7.9454 ,0.77369 ,4.70306 ,46.14643 
44 ,8.1377 ,0.77561 ,4.68253 ,45.94496 
45 ,8.3138 ,0.77737 ,4.67568 ,45.87780 
46 ,8.5057 ,0.77925 ,4.64488 ,45.57560 
47 ,8.6819 ,0.78105 ,4.62777 ,45.40771 
48 ,8.8740 ,0.78296 ,4.62093 ,45.34055 
49 ,9.0658 ,0.78485 ,4.59013 ,45.03835 
50 ,9.2423 ,0.78661 ,4.57986 ,44.93761 
51 ,9.4180 ,0.78841 ,4.56960 ,44.83688 
52 ,9.5940 ,0.79014 ,4.56275 ,44.76972 
53 ,9.7859 ,0.79195 ,4.54906 ,44.63541 
54 ,9.9621 ,0.79383 ,4.51826 ,44.33320 
55 ,10.1385 ,0.79556 ,4.52169 ,44.36678 
56 ,10.3306 ,0.79756 ,4.48746 ,44.03100 
57 ,10.5225 ,0.79934 ,4.47720 ,43.93026 
58 ,10.7148 ,0.80135 ,4.46351 ,43.79595 
59 ,10.8908 ,0.80316 ,4.44982 ,43.66163 
60 ,11.0666 ,0.80498 ,4.40533 ,43.22512 
61 ,11.2431 ,0.80660 ,4.39507 ,43.12438 
62 ,11.4353 ,0.80861 ,4.39507 ,43.12438 
63 ,11.6107 ,0.81036 ,4.37795 ,42.95649 
64 ,11.8031 ,0.81215 ,4.34031 ,42.58713 
65 ,11.9953 ,0.81419 ,4.34716 ,42.65429 
66 ,12.1710 ,0.81593 ,4.31636 ,42.35208 
67 ,12.3629 ,0.81779 ,4.27529 ,41.94914 
68 ,12.5394 ,0.81960 ,4.27187 ,41.91556 
69 ,12.7157 ,0.82139 ,4.27187 ,41.91556 
70 ,12.9073 ,0.82327 ,4.24107 ,41.61336 
71 ,13.0833 ,0.82502 ,4.21711 ,41.37831 
72 ,13.2598 ,0.82680 ,4.21369 ,41.34473 
73 ,13.4359 ,0.82852 ,4.20685 ,41.27758 
74 ,13.6115 ,0.83030 ,4.19316 ,41.14326 
75 ,13.7881 ,0.83210 ,4.16578 ,40.87464 
76 ,13.9796 ,0.83406 ,4.13498 ,40.57243 
77 ,14.1558 ,0.83575 ,4.13840 ,40.60601 
78 ,14.3322 ,0.83753 ,4.11787 ,40.40454 
79 ,14.5082 ,0.83932 ,4.07680 ,40.00160 
80 ,14.7004 ,0.84124 ,4.06654 ,39.90087 
81 ,14.9083 ,0.84318 ,4.06996 ,39.93444 
82 ,15.1003 ,0.84521 ,4.04258 ,39.66582 
83 ,15.2766 ,0.84699 ,4.01863 ,39.43077 
84 ,15.4527 ,0.84871 ,4.01863 ,39.43077 
85 ,15.6284 ,0.85048 ,3.99467 ,39.19572 
86 ,15.8045 ,0.85223 ,3.95703 ,38.82636 
87 ,15.9809 ,0.85395 ,3.95703 ,38.82636 
88 ,16.1569 ,0.85575 ,3.96045 ,38.85994 
89 ,16.3490 ,0.85763 ,3.92281 ,38.49058 
90 ,16.5252 ,0.85945 ,3.89201 ,38.18837 
91 ,16.7011 ,0.86121 ,3.89201 ,38.18837 
92 ,16.8771 ,0.86302 ,3.87490 ,38.02048 
93 ,17.0533 ,0.86471 ,3.87490 ,38.02048 
94 ,17.2292 ,0.86644 ,3.84752 ,37.75185 
95 ,17.4213 ,0.86838 ,3.80987 ,37.38249 
96 ,17.5975 ,0.87016 ,3.82014 ,37.48323 
97 ,17.7897 ,0.87206 ,3.79276 ,37.21460 
98 ,17.9657 ,0.87388 ,3.77565 ,37.04671 
99 ,18.1575 ,0.87571 ,3.76881 ,36.97955 
100 ,18.3340 ,0.87754 ,3.74143 ,36.71093 
101 ,18.5099 ,0.87926 ,3.72090 ,36.50946 
102 ,18.6699 ,0.88095 ,3.70379 ,36.34157 
103 ,18.8461 ,0.88261 ,3.68325 ,36.14010 
104 ,19.0381 ,0.88447 ,3.66957 ,36.00578 
105 ,19.2139 ,0.88628 ,3.67641 ,36.07294 
106 ,19.3903 ,0.88805 ,3.65246 ,35.83789 
107 ,19.5663 ,0.88982 ,3.62508 ,35.56926 
108 ,19.7426 ,0.89162 ,3.61139 ,35.43495 
109 ,19.9184 ,0.89339 ,3.59428 ,35.26706 
110 ,20.0942 ,0.89511 ,3.59770 ,35.30064 
111 ,20.2706 ,0.89682 ,3.58401 ,35.16632 
112 ,20.4466 ,0.89860 ,3.54979 ,34.83054 
113 ,20.6226 ,0.90036 ,3.53952 ,34.72981 
114 ,20.8147 ,0.90227 ,3.52926 ,34.62907 
115 ,20.9910 ,0.90409 ,3.50872 ,34.42760 
116 ,21.1830 ,0.90597 ,3.49504 ,34.29329 
117 ,21.3431 ,0.90771 ,3.47450 ,34.09182 
118 ,21.5192 ,0.90935 ,3.45739 ,33.92393 
119 ,21.6952 ,0.91118 ,3.45397 ,33.89035 
120 ,21.8552 ,0.91284 ,3.44028 ,33.75604 
121 ,22.0314 ,0.91449 ,3.42317 ,33.58814 
122 ,22.2075 ,0.91625 ,3.41290 ,33.48741 
123 ,22.3835 ,0.91801 ,3.38210 ,33.18520 
124 ,22.5596 ,0.91973 ,3.36157 ,32.98374 
125 ,22.7518 ,0.92164 ,3.36842 ,33.05089 
126 ,22.9278 ,0.92348 ,3.34104 ,32.78227 
127 ,23.1034 ,0.92518 ,3.31024 ,32.48006 
128 ,23.2637 ,0.92687 ,3.28971 ,32.27859 
129 ,23.4237 ,0.92851 ,3.28286 ,32.21143 
130 ,23.5997 ,0.93018 ,3.27944 ,32.17786 
131 ,23.7760 ,0.93189 ,3.24522 ,31.84207 
132 ,23.9523 ,0.93364 ,3.24864 ,31.87565 
133 ,24.1440 ,0.93559 ,3.21442 ,31.53987 
134 ,24.3204 ,0.93731 ,3.20415 ,31.43913 
135 ,24.4965 ,0.93912 ,3.19731 ,31.37198 
136 ,24.6884 ,0.94098 ,3.16993 ,31.10335 
137 ,24.8646 ,0.94276 ,3.14940 ,30.90188 
138 ,25.0408 ,0.94457 ,3.14597 ,30.86830 
139 ,25.2169 ,0.94632 ,3.13913 ,30.80115 
140 ,25.4088 ,0.94829 ,3.10149 ,30.43178 
141 ,25.6008 ,0.95008 ,3.09464 ,30.36463 
142 ,25.7768 ,0.95190 ,3.07411 ,30.16316 
143 ,25.9530 ,0.95368 ,3.07411 ,30.16316 
144 ,26.1291 ,0.95549 ,3.06042 ,30.02884 
145 ,26.3213 ,0.95726 ,3.02620 ,29.69306 
146 ,26.5131 ,0.95926 ,3.00909 ,29.52517 
147 ,26.6732 ,0.96098 ,2.99198 ,29.35728 
148 ,26.8493 ,0.96264 ,2.98513 ,29.29012 
149 ,27.0415 ,0.96446 ,2.96118 ,29.05507 
150 ,27.2335 ,0.96655 ,2.95776 ,29.02150 
151 ,27.4256 ,0.96839 ,2.93380 ,28.78645 
152 ,27.6016 ,0.97015 ,2.91327 ,28.58498 
153 ,27.7938 ,0.97203 ,2.90985 ,28.55140 
154 ,27.9698 ,0.97387 ,2.89958 ,28.45066 
155 ,28.1462 ,0.97557 ,2.86193 ,28.08130 
156 ,28.3381 ,0.97755 ,2.86193 ,28.08130 
157 ,28.5463 ,0.97955 ,2.83456 ,27.81268 
158 ,28.7382 ,0.98146 ,2.80718 ,27.54405 
159 ,28.9303 ,0.98341 ,2.80718 ,27.54405 
160 ,29.1384 ,0.98544 ,2.78322 ,27.30900 
161 ,29.3145 ,0.98730 ,2.77638 ,27.24185 
162 ,29.4906 ,0.98907 ,2.76269 ,27.10753 
163 ,29.6665 ,0.99076 ,2.73531 ,26.83891 
164 ,29.8428 ,0.99257 ,2.71478 ,26.63744 
165 ,30.0188 ,0.99437 ,2.70452 ,26.53670 
166 ,30.1946 ,0.99608 ,2.69767 ,26.46954 
167 ,30.3707 ,0.99784 ,2.69083 ,26.40239 
168 ,30.5470 ,0.99964 ,2.66687 ,26.16734 
169 ,30.7229 ,1.00138 ,2.63265 ,25.83156 
170 ,30.9476 ,1.00345 ,2.63265 ,25.83156 
171 ,31.1391 ,1.00552 ,2.60869 ,25.59651 
172 ,31.3312 ,1.00740 ,2.60185 ,25.52935 
173 ,31.5072 ,1.00923 ,2.58816 ,25.39504 
174 ,31.6673 ,1.01090 ,2.56078 ,25.12641 
175 ,31.8433 ,1.01256 ,2.55394 ,25.05926 
176 ,32.0195 ,1.01430 ,2.54367 ,24.95852 
177 ,32.1952 ,1.01611 ,2.52998 ,24.82421 
178 ,32.3716 ,1.01784 ,2.51972 ,24.72347 
179 ,32.5637 ,1.01975 ,2.48550 ,24.38769 
180 ,32.7395 ,1.02150 ,2.47523 ,24.28696 
181 ,32.9319 ,1.02332 ,2.46154 ,24.15264 
182 ,33.1400 ,1.02543 ,2.44443 ,23.98475 
183 ,33.3156 ,1.02727 ,2.44443 ,23.98475 
184 ,33.4920 ,1.02903 ,2.42732 ,23.81686 
185 ,33.6682 ,1.03077 ,2.40336 ,23.58181 
186 ,33.8440 ,1.03258 ,2.38283 ,23.38034 
187 ,34.0203 ,1.03430 ,2.36230 ,23.17887 
188 ,34.2122 ,1.03616 ,2.36230 ,23.17887 
189 ,34.3884 ,1.03801 ,2.34519 ,23.01098 
190 ,34.5645 ,1.03969 ,2.32808 ,22.84309 
191 ,34.7406 ,1.04150 ,2.30412 ,22.60804 
192 ,34.9166 ,1.04341 ,2.30412 ,22.60804 
193 ,35.1088 ,1.04517 ,2.28359 ,22.40657 
194 ,35.2849 ,1.04696 ,2.25279 ,22.10437 
195 ,35.4610 ,1.04876 ,2.24594 ,22.03721 
196 ,35.6368 ,1.05049 ,2.23226 ,21.90290 
197 ,35.8132 ,1.05227 ,2.23910 ,21.97005 
198 ,36.0212 ,1.05432 ,2.20488 ,21.63427 
199 ,36.2128 ,1.05628 ,2.19803 ,21.56711 
200 ,36.3894 ,1.05800 ,2.18092 ,21.39922 
201 ,36.5813 ,1.05992 ,2.16039 ,21.19775 
202 ,36.7570 ,1.06167 ,2.12959 ,20.89555 
203 ,36.9170 ,1.06340 ,2.13644 ,20.96270 
204 ,37.0771 ,1.06499 ,2.12617 ,20.86197 
205 ,37.2536 ,1.06667 ,2.11248 ,20.72766 
206 ,37.4455 ,1.06858 ,2.10221 ,20.62692 
207 ,37.6053 ,1.07028 ,2.06115 ,20.22398 
208 ,37.7654 ,1.07189 ,2.05773 ,20.19040 
209 ,37.9423 ,1.07352 ,2.04404 ,20.05609 
210 ,38.1340 ,1.07547 ,2.04746 ,20.08967 
211 ,38.3421 ,1.07747 ,2.00982 ,19.72031 
212 ,38.5182 ,1.07929 ,1.99613 ,19.58599 
213 ,38.6777 ,1.08100 ,1.99613 ,19.58599 
214 ,38.8542 ,1.08261 ,1.97902 ,19.41810 
215 ,39.0300 ,1.08444 ,1.97217 ,19.35094 
216 ,39.2067 ,1.08616 ,1.93795 ,19.01516 
217 ,39.3826 ,1.08796 ,1.93453 ,18.98158 
218 ,39.5906 ,1.08992 ,1.92426 ,18.88085 
219 ,39.7665 ,1.09175 ,1.90715 ,18.71296 
220 ,39.9433 ,1.09353 ,1.88662 ,18.51149 
221 ,40.1348 ,1.09543 ,1.86951 ,18.34360 
222 ,40.2949 ,1.09715 ,1.87293 ,18.37717 
223 ,40.4710 ,1.09884 ,1.86951 ,18.34360 
224 ,40.6471 ,1.10054 ,1.84213 ,18.07497 
225 ,40.8390 ,1.10250 ,1.80106 ,17.67203 
226 ,41.0151 ,1.10423 ,1.79764 ,17.63845 
227 ,41.1748 ,1.10594 ,1.80106 ,17.67203 
228 ,41.3514 ,1.10760 ,1.78737 ,17.53772 
229 ,41.5433 ,1.10954 ,1.76000 ,17.26909 
230 ,41.7034 ,1.11124 ,1.72920 ,16.96689 
231 ,41.8796 ,1.11287 ,1.72578 ,16.93331 
232 ,42.0556 ,1.11467 ,1.71893 ,16.86615 
233 ,42.2316 ,1.11643 ,1.70524 ,16.73184 
234 ,42.4079 ,1.11816 ,1.69840 ,16.66468 
235 ,42.5839 ,1.11994 ,1.67786 ,16.46321 
236 ,42.7599 ,1.12168 ,1.65391 ,16.22816 
237 ,42.9520 ,1.12356 ,1.65049 ,16.19458 
238 ,43.1442 ,1.12551 ,1.62995 ,15.99311 
239 ,43.3201 ,1.12729 ,1.60942 ,15.79164 
240 ,43.5121 ,1.12921 ,1.60258 ,15.72449 
241 ,43.6882 ,1.13096 ,1.59573 ,15.65733 
242 ,43.8962 ,1.13296 ,1.57178 ,15.42228 
243 ,44.0884 ,1.13487 ,1.57178 ,15.42228 
244 ,44.2644 ,1.13672 ,1.55124 ,15.22081 
245 ,44.4566 ,1.13863 ,1.52729 ,14.98577 
246 ,44.6484 ,1.14057 ,1.52387 ,14.95219 
247 ,44.8249 ,1.14232 ,1.49991 ,14.71714 
248 ,45.0009 ,1.14408 ,1.47938 ,14.51567 
249 ,45.1769 ,1.14586 ,1.47596 ,14.48209 
250 ,45.3687 ,1.14780 ,1.47253 ,14.44851 
251 ,45.5450 ,1.14960 ,1.43489 ,14.07915 
252 ,45.7209 ,1.15128 ,1.43489 ,14.07915 
253 ,45.8974 ,1.15304 ,1.41094 ,13.84410 
254 ,46.0734 ,1.15482 ,1.40067 ,13.74337 
255 ,46.2492 ,1.15654 ,1.41094 ,13.84410 
256 ,46.4411 ,1.15836 ,1.38698 ,13.60906 
257 ,46.6336 ,1.16036 ,1.37329 ,13.47474 
258 ,46.8095 ,1.16212 ,1.35618 ,13.30685 
259 ,46.9857 ,1.16396 ,1.35618 ,13.30685 
260 ,47.1617 ,1.16571 ,1.33565 ,13.10538 
261 ,47.3376 ,1.16744 ,1.30143 ,12.76960 
262 ,47.5460 ,1.16951 ,1.29458 ,12.70244 
263 ,47.7375 ,1.17142 ,1.28089 ,12.56813 
264 ,47.9300 ,1.17329 ,1.25352 ,12.29950 
265 ,48.1059 ,1.17515 ,1.26720 ,12.43381 
266 ,48.2819 ,1.17683 ,1.25009 ,12.26592 
267 ,48.4582 ,1.17865 ,1.22272 ,11.99730 
268 ,48.6343 ,1.18043 ,1.21587 ,11.93014 
269 ,48.8264 ,1.18234 ,1.20561 ,11.82941 
270 ,49.0023 ,1.18407 ,1.18507 ,11.62794 
271 ,49.1785 ,1.18587 ,1.17481 ,11.52720 
272 ,49.3706 ,1.18769 ,1.17138 ,11.49362 
273 ,49.5464 ,1.18957 ,1.15770 ,11.35931 
274 ,49.7225 ,1.19130 ,1.13716 ,11.15784 
275 ,49.9149 ,1.19314 ,1.12690 ,11.05710 
276 ,50.0909 ,1.19499 ,1.10636 ,10.85563 
277 ,50.2506 ,1.19670 ,1.10979 ,10.88921 
278 ,50.4268 ,1.19829 ,1.09610 ,10.75490 
279 ,50.6028 ,1.20012 ,1.07556 ,10.55343 
280 ,50.7791 ,1.20184 ,1.05503 ,10.35196 
281 ,50.9553 ,1.20361 ,1.03792 ,10.18407 
282 ,51.1313 ,1.20541 ,1.03792 ,10.18407 
283 ,51.3235 ,1.20729 ,1.02081 ,10.01618 
284 ,51.4994 ,1.20900 ,1.00028 ,9.81471 
285 ,51.6752 ,1.21079 ,0.99001 ,9.71397 
286 ,51.8516 ,1.21254 ,0.96948 ,9.51250 
287 ,52.0276 ,1.21432 ,0.96605 ,9.47892 
288 ,52.2037 ,1.21602 ,0.95237 ,9.34461 
289 ,52.3955 ,1.21790 ,0.93868 ,9.21030 
290 ,52.5718 ,1.21974 ,0.93868 ,9.21030 
291 ,52.7476 ,1.22150 ,0.93525 ,9.17672 
292 ,52.9241 ,1.22331 ,0.90788 ,8.90809 
293 ,53.1001 ,1.22506 ,0.89761 ,8.80736 
294 ,53.2761 ,1.22691 ,0.87366 ,8.57231 
295 ,53.4519 ,1.22854 ,0.86681 ,8.50515 
296 ,53.6282 ,1.23028 ,0.85997 ,8.43800 
297 ,53.7883 ,1.23201 ,0.84628 ,8.30368 
298 ,53.9484 ,1.23360 ,0.83601 ,8.20295 
299 ,54.1245 ,1.23532 ,0.84286 ,8.27011 
300 ,54.3166 ,1.23712 ,0.80521 ,7.90074 
301 ,54.4925 ,1.23897 ,0.79495 ,7.80001 
302 ,54.6686 ,1.24074 ,0.79152 ,7.76643 
303 ,54.8447 ,1.24246 ,0.77099 ,7.56496 
304 ,55.0368 ,1.24434 ,0.74704 ,7.32991 
305 ,55.2130 ,1.24615 ,0.75046 ,7.36349 
306 ,55.4210 ,1.24818 ,0.71624 ,7.02771 
307 ,55.5971 ,1.24999 ,0.70597 ,6.92697 
308 ,55.7731 ,1.25178 ,0.69913 ,6.85982 
309 ,55.9498 ,1.25354 ,0.69913 ,6.85982 
310 ,56.1414 ,1.25545 ,0.67859 ,6.65835 
311 ,56.3493 ,1.25751 ,0.67517 ,6.62477 
312 ,56.5251 ,1.25926 ,0.65806 ,6.45688 
313 ,56.7015 ,1.26105 ,0.63068 ,6.18825 
314 ,56.8932 ,1.26288 ,0.62726 ,6.15467 
315 ,57.0696 ,1.26475 ,0.61699 ,6.05394 
316 ,57.2460 ,1.26646 ,0.60673 ,5.95320 
317 ,57.4217 ,1.26823 ,0.58277 ,5.71815 
318 ,57.5979 ,1.26997 ,0.56908 ,5.58384 
319 ,57.7738 ,1.27188 ,0.57251 ,5.61742 
320 ,57.9335 ,1.27347 ,0.55539 ,5.44953 
321 ,58.1100 ,1.27508 ,0.55197 ,5.41595 
322 ,58.2861 ,1.27685 ,0.53486 ,5.24806 
323 ,58.4463 ,1.27857 ,0.51433 ,5.04659 
324 ,58.6223 ,1.28024 ,0.50748 ,4.97943 
325 ,58.7982 ,1.28196 ,0.50064 ,4.91228 
326 ,58.9741 ,1.28374 ,0.47668 ,4.67723 
327 ,59.1506 ,1.28549 ,0.48011 ,4.71081 
328 ,59.3746 ,1.28765 ,0.45957 ,4.50934 
329 ,59.5507 ,1.28951 ,0.44588 ,4.37502 
330 ,59.7424 ,1.29145 ,0.42877 ,4.20713 
331 ,59.9188 ,1.29323 ,0.41509 ,4.07282 
332 ,60.1108 ,1.29514 ,0.41166 ,4.03924 
333 ,60.2870 ,1.29689 ,0.40824 ,4.00566 
334 ,60.4629 ,1.29868 ,0.39113 ,3.83777 
335 ,60.6551 ,1.30053 ,0.37744 ,3.70346 
336 ,60.8311 ,1.30233 ,0.36033 ,3.53557 
337 ,61.0391 ,1.30429 ,0.34322 ,3.36767 
338 ,61.2152 ,1.30615 ,0.32953 ,3.23336 
339 ,61.3913 ,1.30786 ,0.33980 ,3.33410 
340 ,61.5674 ,1.30966 ,0.31926 ,3.13263 
341 ,61.7432 ,1.31145 ,0.30215 ,2.96473 
342 ,61.9196 ,1.31314 ,0.27478 ,2.69611 
343 ,62.0955 ,1.31496 ,0.26793 ,2.62895 
344 ,62.2720 ,1.31673 ,0.26451 ,2.59537 
345 ,62.4483 ,1.31853 ,0.26793 ,2.62895 
346 ,62.6400 ,1.32040 ,0.23371 ,2.29317 
347 ,62.8158 ,1.32215 ,0.22344 ,2.19243 
348 ,62.9922 ,1.32394 ,0.20633 ,2.02454 
349 ,63.1678 ,1.32571 ,0.22344 ,2.19243 
350 ,63.3444 ,1.32745 ,0.20633 ,2.02454 
351 ,63.5362 ,1.32932 ,0.18922 ,1.85665 
352 ,63.7283 ,1.33127 ,0.17896 ,1.75592 
353 ,63.9044 ,1.33311 ,0.17553 ,1.72234 
354 ,64.0805 ,1.33480 ,0.14131 ,1.38655 
355 ,64.2562 ,1.33654 ,0.12420 ,1.21866 
356 ,64.4493 ,1.33834 ,0.13789 ,1.35298 
357 ,64.6247 ,1.34025 ,0.11393 ,1.11793 
358 ,64.8009 ,1.34200 ,0.09340 ,0.91646 
359 ,64.9930 ,1.34394 ,0.07629 ,0.74857 
360 ,65.1691 ,1.34572 ,0.07971 ,0.78214 
361 ,65.3451 ,1.34748 ,0.07629 ,0.74857 
362 ,65.5372 ,1.34938 ,0.04891 ,0.47994 
363 ,65.7133 ,1.35111 ,0.05234 ,0.51352 
364 ,65.9213 ,1.35309 ,0.01811 ,0.17773 
365 ,66.0975 ,1.35491 ,0.00785 ,0.07700 
366 ,66.2896 ,1.35690 ,0.00100 ,0.00984 
367 ,66.4815 ,1.35879 ,-0.01269 ,-0.12447 
368 ,66.6413 ,1.36050 ,-0.01953 ,-0.19163 
369 ,66.8175 ,1.36213 ,-0.04348 ,-0.42667 
370 ,66.9936 ,1.36389 ,-0.04691 ,-0.46025 
371 ,67.1536 ,1.36563 ,-0.04348 ,-0.42667 
372 ,67.3137 ,1.36722 ,-0.06060 ,-0.59457 
373 ,67.4737 ,1.36883 ,-0.07086 ,-0.69530 
374 ,67.6501 ,1.37044 ,-0.07771 ,-0.76246 
375 ,67.8577 ,1.37254 ,-0.09482 ,-0.93035 
376 ,68.0341 ,1.37433 ,-0.11535 ,-1.13182 
377 ,68.2100 ,1.37602 ,-0.11193 ,-1.09824 
378 ,68.3862 ,1.37786 ,-0.12219 ,-1.19898 
379 ,68.5620 ,1.37962 ,-0.13931 ,-1.36687 
380 ,68.7382 ,1.38134 ,-0.16668 ,-1.63549 
381 ,68.9144 ,1.38313 ,-0.16668 ,-1.63549 
382 ,69.0905 ,1.38493 ,-0.19064 ,-1.87054 
383 ,69.2666 ,1.38662 ,-0.18379 ,-1.80338 
384 ,69.4429 ,1.38845 ,-0.18722 ,-1.83696 
385 ,69.6187 ,1.39022 ,-0.21117 ,-2.07201 
386 ,69.8108 ,1.39210 ,-0.23170 ,-2.27348 
387 ,70.0029 ,1.39402 ,-0.22486 ,-2.20632 
388 ,70.1788 ,1.39576 ,-0.24539 ,-2.40779 
389 ,70.3550 ,1.39750 ,-0.25908 ,-2.54211 
390 ,70.5307 ,1.39922 ,-0.26250 ,-2.57569 
391 ,70.7070 ,1.40105 ,-0.27277 ,-2.67642 
392 ,70.8828 ,1.40280 ,-0.27961 ,-2.74358 
393 ,71.0590 ,1.40453 ,-0.30357 ,-2.97863 
394 ,71.2353 ,1.40632 ,-0.32068 ,-3.14652 
395 ,71.4114 ,1.40804 ,-0.31726 ,-3.11294 
396 ,71.5871 ,1.40981 ,-0.32068 ,-3.14652 
397 ,71.7632 ,1.41160 ,-0.34121 ,-3.34799 
398 ,71.9396 ,1.41336 ,-0.35490 ,-3.48230 
399 ,72.1158 ,1.41511 ,-0.37544 ,-3.68377 
400 ,72.2916 ,1.41692 ,-0.38228 ,-3.75093 
401 ,72.4839 ,1.41870 ,-0.38228 ,-3.75093 
402 ,72.6596 ,1.42058 ,-0.39255 ,-3.85166 
403 ,72.8360 ,1.42234 ,-0.43019 ,-4.22102 
404 ,73.0121 ,1.42406 ,-0.43019 ,-4.22102 
405 ,73.1879 ,1.42587 ,-0.42677 ,-4.18744 
406 ,73.3802 ,1.42775 ,-0.44730 ,-4.38891 
407 ,73.5561 ,1.42951 ,-0.45414 ,-4.45607 
408 ,73.7323 ,1.43123 ,-0.47810 ,-4.69112 
409 ,73.9244 ,1.43311 ,-0.47126 ,-4.62396 
410 ,74.1005 ,1.43496 ,-0.48494 ,-4.75828 
411 ,74.2766 ,1.43677 ,-0.49521 ,-4.85901 
412 ,74.4687 ,1.43861 ,-0.49179 ,-4.82543 
413 ,74.6449 ,1.44040 ,-0.51917 ,-5.09406 
414 ,74.8207 ,1.44232 ,-0.53628 ,-5.26195 
415 ,74.9968 ,1.44388 ,-0.53628 ,-5.26195 
416 ,75.1725 ,1.44565 ,-0.55339 ,-5.42984 
417 ,75.3489 ,1.44741 ,-0.54997 ,-5.39626 
418 ,75.5411 ,1.44928 ,-0.56023 ,-5.49700 
419 ,75.7330 ,1.45130 ,-0.58761 ,-5.76562 
420 ,75.9253 ,1.45317 ,-0.57392 ,-5.63131 
421 ,76.1171 ,1.45512 ,-0.61156 ,-6.00067 
422 ,76.3092 ,1.45696 ,-0.60472 ,-5.93352 
423 ,76.5015 ,1.45887 ,-0.61156 ,-6.00067 
424 ,76.6775 ,1.46073 ,-0.63552 ,-6.23572 
425 ,76.8536 ,1.46247 ,-0.64579 ,-6.33646 
426 ,77.0296 ,1.46422 ,-0.65605 ,-6.43719 
427 ,77.2058 ,1.46604 ,-0.65947 ,-6.47077 
428 ,77.3814 ,1.46779 ,-0.67316 ,-6.60508 
429 ,77.5579 ,1.46952 ,-0.69370 ,-6.80655 
430 ,77.7337 ,1.47129 ,-0.70739 ,-6.94086 
431 ,77.9101 ,1.47304 ,-0.71423 ,-7.00802 
432 ,78.1020 ,1.47502 ,-0.70396 ,-6.90729 
433 ,78.2941 ,1.47687 ,-0.73818 ,-7.24307 
434 ,78.4862 ,1.47882 ,-0.72450 ,-7.10876 
435 ,78.6623 ,1.48054 ,-0.73818 ,-7.24307 
436 ,78.8542 ,1.48248 ,-0.76898 ,-7.54527 
437 ,79.0465 ,1.48435 ,-0.75872 ,-7.44454 
438 ,79.2226 ,1.48612 ,-0.76898 ,-7.54527 
439 ,79.3986 ,1.48792 ,-0.78952 ,-7.74674 
440 ,79.5746 ,1.48972 ,-0.80321 ,-7.88106 
441 ,79.7505 ,1.49149 ,-0.82374 ,-8.08253 
442 ,79.9264 ,1.49316 ,-0.81689 ,-8.01537 
443 ,80.1028 ,1.49496 ,-0.83058 ,-8.14968 
444 ,80.2790 ,1.49668 ,-0.84085 ,-8.25042 
445 ,80.4549 ,1.49850 ,-0.85796 ,-8.41831 
446 ,80.6309 ,1.50022 ,-0.86138 ,-8.45189 
447 ,80.8232 ,1.50219 ,-0.85454 ,-8.38473 
448 ,80.9828 ,1.50388 ,-0.86823 ,-8.51904 
449 ,81.1595 ,1.50554 ,-0.88534 ,-8.68694 
450 ,81.3515 ,1.50740 ,-0.89560 ,-8.78767 
451 ,81.5436 ,1.50939 ,-0.90245 ,-8.85483 
452 ,81.7512 ,1.51135 ,-0.92640 ,-9.08988 
453 ,81.9277 ,1.51316 ,-0.93667 ,-9.19061 
454 ,82.1197 ,1.51514 ,-0.93667 ,-9.19061 
455 ,82.3118 ,1.51704 ,-0.96063 ,-9.42566 
456 ,82.5035 ,1.51892 ,-0.94351 ,-9.25777 
457 ,82.6959 ,1.52083 ,-0.97431 ,-9.55997 
458 ,82.8720 ,1.52264 ,-0.97089 ,-9.52639 
459 ,83.0640 ,1.52455 ,-0.97089 ,-9.52639 
460 ,83.2562 ,1.52648 ,-0.98800 ,-9.69429 
461 ,83.4488 ,1.52841 ,-0.97431 ,-9.55997 
462 ,83.6242 ,1.53022 ,-0.98800 ,-9.69429 
463 ,83.8003 ,1.53195 ,-0.99827 ,-9.79502 
