Data stamp = , 29-03-2022 02:15:41 400

Calibration Values: 
Slope = , 26.54 , g/V 
Offset Voltage at no contact = , -0.501760 , V 

No , Time , Stage Position ,   Mass , Force 
   ,  (s) ,      (mm)      ,   (g)  , (mN)  

1 ,0.0000 ,0.69951 ,5.30878 ,52.08979 
2 ,0.2169 ,0.69960 ,5.30878 ,52.08979 
3 ,0.5212 ,0.70036 ,5.29167 ,51.92190 
4 ,0.7134 ,0.70177 ,5.30878 ,52.08979 
5 ,0.9053 ,0.70339 ,5.30536 ,52.05621 
6 ,1.0974 ,0.70521 ,5.28825 ,51.88832 
7 ,1.2735 ,0.70693 ,5.31905 ,52.19052 
8 ,1.4656 ,0.70884 ,5.29852 ,51.98905 
9 ,1.6576 ,0.71078 ,5.28483 ,51.85474 
10 ,1.8338 ,0.71260 ,5.26430 ,51.65327 
11 ,2.0098 ,0.71441 ,5.25061 ,51.51896 
12 ,2.2019 ,0.71630 ,5.23007 ,51.31749 
13 ,2.3938 ,0.71820 ,5.21296 ,51.14960 
14 ,2.5699 ,0.71995 ,5.18559 ,50.88097 
15 ,2.7780 ,0.72196 ,5.17190 ,50.74666 
16 ,2.9542 ,0.72375 ,5.17532 ,50.78023 
17 ,3.1302 ,0.72554 ,5.14110 ,50.44445 
18 ,3.3061 ,0.72742 ,5.13425 ,50.37729 
19 ,3.4663 ,0.72901 ,5.11030 ,50.14225 
20 ,3.6424 ,0.73066 ,5.09319 ,49.97436 
21 ,3.8186 ,0.73245 ,5.07608 ,49.80646 
22 ,4.0104 ,0.73432 ,5.08292 ,49.87362 
23 ,4.1863 ,0.73609 ,5.05897 ,49.63857 
24 ,4.3626 ,0.73793 ,5.03843 ,49.43710 
25 ,4.5704 ,0.73984 ,5.01448 ,49.20205 
26 ,4.7470 ,0.74166 ,5.01106 ,49.16848 
27 ,4.9229 ,0.74347 ,5.00079 ,49.06774 
28 ,5.1151 ,0.74541 ,4.96315 ,48.69838 
29 ,5.3071 ,0.74732 ,4.95972 ,48.66480 
30 ,5.4832 ,0.74902 ,4.93577 ,48.42975 
31 ,5.6589 ,0.75090 ,4.91866 ,48.26186 
32 ,5.8352 ,0.75258 ,4.90497 ,48.12755 
33 ,6.0113 ,0.75439 ,4.89470 ,48.02681 
34 ,6.1875 ,0.75617 ,4.88786 ,47.95966 
35 ,6.3795 ,0.75806 ,4.85706 ,47.65745 
36 ,6.5556 ,0.75977 ,4.85021 ,47.59030 
37 ,6.7477 ,0.76166 ,4.83652 ,47.45598 
38 ,6.9398 ,0.76361 ,4.80915 ,47.18736 
39 ,7.1315 ,0.76558 ,4.79888 ,47.08662 
40 ,7.3079 ,0.76729 ,4.79888 ,47.08662 
41 ,7.5002 ,0.76924 ,4.75782 ,46.68368 
42 ,7.6920 ,0.77118 ,4.75439 ,46.65010 
43 ,7.8842 ,0.77309 ,4.73386 ,46.44863 
44 ,8.0763 ,0.77503 ,4.70648 ,46.18001 
45 ,8.2682 ,0.77685 ,4.71333 ,46.24716 
46 ,8.4601 ,0.77883 ,4.67911 ,45.91138 
47 ,8.6523 ,0.78074 ,4.67226 ,45.84422 
48 ,8.8285 ,0.78250 ,4.66199 ,45.74349 
49 ,9.0205 ,0.78444 ,4.63462 ,45.47486 
50 ,9.2127 ,0.78631 ,4.63119 ,45.44128 
51 ,9.3889 ,0.78810 ,4.61408 ,45.27339 
52 ,9.5648 ,0.78982 ,4.59697 ,45.10550 
53 ,9.7570 ,0.79183 ,4.56617 ,44.80330 
54 ,9.9491 ,0.79373 ,4.55933 ,44.73614 
55 ,10.1249 ,0.79550 ,4.53537 ,44.50109 
56 ,10.3173 ,0.79725 ,4.51142 ,44.26604 
57 ,10.5093 ,0.79931 ,4.51142 ,44.26604 
58 ,10.6852 ,0.80106 ,4.49431 ,44.09815 
59 ,10.8611 ,0.80281 ,4.46693 ,43.82953 
60 ,11.0374 ,0.80461 ,4.43613 ,43.52732 
61 ,11.2134 ,0.80641 ,4.42244 ,43.39301 
62 ,11.3899 ,0.80816 ,4.42586 ,43.42659 
63 ,11.5657 ,0.80986 ,4.40191 ,43.19154 
64 ,11.7418 ,0.81164 ,4.38138 ,42.99007 
65 ,11.9178 ,0.81352 ,4.36427 ,42.82218 
66 ,12.0945 ,0.81515 ,4.34373 ,42.62071 
67 ,12.2860 ,0.81700 ,4.33347 ,42.51997 
68 ,12.4780 ,0.81900 ,4.31293 ,42.31850 
69 ,12.6541 ,0.82074 ,4.29582 ,42.15061 
70 ,12.8303 ,0.82253 ,4.28213 ,42.01630 
71 ,12.9900 ,0.82422 ,4.25818 ,41.78125 
72 ,13.1661 ,0.82587 ,4.25476 ,41.74767 
73 ,13.3582 ,0.82773 ,4.22396 ,41.44547 
74 ,13.5505 ,0.82963 ,4.20000 ,41.21042 
75 ,13.7424 ,0.83161 ,4.19658 ,41.17684 
76 ,13.9185 ,0.83336 ,4.15551 ,40.77390 
77 ,14.0948 ,0.83515 ,4.12814 ,40.50527 
78 ,14.2869 ,0.83712 ,4.14525 ,40.67317 
79 ,14.4626 ,0.83887 ,4.11787 ,40.40454 
80 ,14.6386 ,0.84059 ,4.09391 ,40.16949 
81 ,14.8150 ,0.84235 ,4.07338 ,39.96802 
82 ,14.9907 ,0.84411 ,4.07680 ,40.00160 
83 ,15.1673 ,0.84588 ,4.04943 ,39.73297 
84 ,15.3592 ,0.84780 ,4.02547 ,39.49793 
85 ,15.5354 ,0.84954 ,3.99467 ,39.19572 
86 ,15.7115 ,0.85134 ,3.97756 ,39.02783 
87 ,15.8871 ,0.85309 ,3.98783 ,39.12856 
88 ,16.0631 ,0.85484 ,3.95703 ,38.82636 
89 ,16.2397 ,0.85658 ,3.94676 ,38.72562 
90 ,16.4316 ,0.85854 ,3.92281 ,38.49058 
91 ,16.6076 ,0.86026 ,3.91254 ,38.38984 
92 ,16.7838 ,0.86203 ,3.89543 ,38.22195 
93 ,16.9600 ,0.86379 ,3.87490 ,38.02048 
94 ,17.1516 ,0.86570 ,3.84752 ,37.75185 
95 ,17.3281 ,0.86745 ,3.85779 ,37.85259 
96 ,17.5202 ,0.86940 ,3.81330 ,37.41607 
97 ,17.7124 ,0.87131 ,3.79961 ,37.28176 
98 ,17.8883 ,0.87312 ,3.78592 ,37.14744 
99 ,18.0643 ,0.87480 ,3.76881 ,36.97955 
100 ,18.2404 ,0.87660 ,3.74828 ,36.77808 
101 ,18.4322 ,0.87851 ,3.74143 ,36.71093 
102 ,18.6083 ,0.88029 ,3.72432 ,36.54303 
103 ,18.7845 ,0.88203 ,3.71405 ,36.44230 
104 ,18.9607 ,0.88380 ,3.67641 ,36.07294 
105 ,19.1367 ,0.88554 ,3.65930 ,35.90505 
106 ,19.3450 ,0.88753 ,3.63877 ,35.70358 
107 ,19.5208 ,0.88939 ,3.62166 ,35.53569 
108 ,19.6972 ,0.89119 ,3.60797 ,35.40137 
109 ,19.8731 ,0.89293 ,3.59086 ,35.23348 
110 ,20.0491 ,0.89465 ,3.57717 ,35.09917 
111 ,20.2413 ,0.89647 ,3.57032 ,35.03201 
112 ,20.4334 ,0.89852 ,3.54295 ,34.76338 
113 ,20.6253 ,0.90051 ,3.51899 ,34.52834 
114 ,20.8172 ,0.90224 ,3.50530 ,34.39402 
115 ,20.9938 ,0.90409 ,3.48819 ,34.22613 
116 ,21.1696 ,0.90587 ,3.48477 ,34.19255 
117 ,21.3293 ,0.90756 ,3.46766 ,34.02466 
118 ,21.5058 ,0.90919 ,3.45397 ,33.89035 
119 ,21.6978 ,0.91113 ,3.42317 ,33.58814 
120 ,21.8739 ,0.91290 ,3.40948 ,33.45383 
121 ,22.0501 ,0.91467 ,3.39237 ,33.28594 
122 ,22.2259 ,0.91648 ,3.37868 ,33.15163 
123 ,22.4023 ,0.91817 ,3.35815 ,32.95016 
124 ,22.5619 ,0.91986 ,3.34446 ,32.81584 
125 ,22.7384 ,0.92160 ,3.32051 ,32.58080 
126 ,22.9144 ,0.92330 ,3.30339 ,32.41290 
127 ,23.1065 ,0.92524 ,3.29997 ,32.37933 
128 ,23.2985 ,0.92715 ,3.26233 ,32.00996 
129 ,23.4746 ,0.92886 ,3.26233 ,32.00996 
130 ,23.6507 ,0.93075 ,3.24864 ,31.87565 
131 ,23.8267 ,0.93243 ,3.23837 ,31.77492 
132 ,24.0029 ,0.93426 ,3.22126 ,31.60702 
133 ,24.1786 ,0.93593 ,3.19388 ,31.33840 
134 ,24.3550 ,0.93770 ,3.18362 ,31.23766 
135 ,24.5468 ,0.93956 ,3.17677 ,31.17051 
136 ,24.7232 ,0.94138 ,3.15624 ,30.96904 
137 ,24.8995 ,0.94314 ,3.13229 ,30.73399 
138 ,25.0915 ,0.94511 ,3.12544 ,30.66683 
139 ,25.2672 ,0.94684 ,3.10491 ,30.46536 
140 ,25.4435 ,0.94859 ,3.09122 ,30.33105 
141 ,25.6356 ,0.95050 ,3.06726 ,30.09600 
142 ,25.8275 ,0.95241 ,3.08095 ,30.23031 
143 ,26.0037 ,0.95419 ,3.03647 ,29.79380 
144 ,26.1797 ,0.95594 ,3.01251 ,29.55875 
145 ,26.3559 ,0.95773 ,3.01251 ,29.55875 
146 ,26.5475 ,0.95955 ,3.00567 ,29.49159 
147 ,26.7241 ,0.96142 ,2.97487 ,29.18939 
148 ,26.9004 ,0.96321 ,2.96460 ,29.08865 
149 ,27.0762 ,0.96495 ,2.93038 ,28.75287 
150 ,27.2679 ,0.96686 ,2.94064 ,28.85360 
151 ,27.4442 ,0.96855 ,2.90642 ,28.51782 
152 ,27.6203 ,0.97040 ,2.90300 ,28.48424 
153 ,27.7966 ,0.97210 ,2.86536 ,28.11488 
154 ,27.9724 ,0.97388 ,2.86878 ,28.14846 
155 ,28.1486 ,0.97563 ,2.85509 ,28.01415 
156 ,28.3247 ,0.97739 ,2.84140 ,27.87983 
157 ,28.5004 ,0.97914 ,2.80718 ,27.54405 
158 ,28.6767 ,0.98088 ,2.79691 ,27.44332 
159 ,28.8529 ,0.98271 ,2.78665 ,27.34258 
160 ,29.0449 ,0.98461 ,2.78322 ,27.30900 
161 ,29.2211 ,0.98637 ,2.75585 ,27.04038 
162 ,29.3974 ,0.98816 ,2.73189 ,26.80533 
163 ,29.5730 ,0.98987 ,2.71820 ,26.67101 
164 ,29.7493 ,0.99165 ,2.72163 ,26.70459 
165 ,29.9412 ,0.99356 ,2.69425 ,26.43597 
166 ,30.1013 ,0.99522 ,2.67029 ,26.20092 
167 ,30.2775 ,0.99697 ,2.64634 ,25.96587 
168 ,30.4696 ,0.99882 ,2.66345 ,26.13376 
169 ,30.6456 ,1.00066 ,2.64976 ,25.99945 
170 ,30.8216 ,1.00235 ,2.62238 ,25.73082 
171 ,31.0138 ,1.00429 ,2.59158 ,25.42862 
172 ,31.2057 ,1.00612 ,2.59501 ,25.46220 
173 ,31.3818 ,1.00796 ,2.56763 ,25.19357 
174 ,31.5419 ,1.00968 ,2.54367 ,24.95852 
175 ,31.7176 ,1.01131 ,2.52314 ,24.75705 
176 ,31.9100 ,1.01315 ,2.51972 ,24.72347 
177 ,32.1023 ,1.01517 ,2.50945 ,24.62274 
178 ,32.2781 ,1.01691 ,2.48550 ,24.38769 
179 ,32.4704 ,1.01876 ,2.47865 ,24.32053 
180 ,32.6463 ,1.02067 ,2.45470 ,24.08549 
181 ,32.8224 ,1.02234 ,2.44101 ,23.95117 
182 ,32.9985 ,1.02409 ,2.42732 ,23.81686 
183 ,33.1746 ,1.02592 ,2.41705 ,23.71612 
184 ,33.3503 ,1.02762 ,2.41363 ,23.68255 
185 ,33.5264 ,1.02937 ,2.39310 ,23.48108 
186 ,33.7027 ,1.03116 ,2.36914 ,23.24603 
187 ,33.8786 ,1.03287 ,2.34861 ,23.04456 
188 ,34.0550 ,1.03468 ,2.34861 ,23.04456 
189 ,34.2310 ,1.03648 ,2.32465 ,22.80951 
190 ,34.4071 ,1.03820 ,2.31097 ,22.67520 
191 ,34.5989 ,1.04005 ,2.29043 ,22.47373 
192 ,34.7912 ,1.04202 ,2.28701 ,22.44015 
193 ,34.9672 ,1.04380 ,2.26648 ,22.23868 
194 ,35.1433 ,1.04559 ,2.24937 ,22.07079 
195 ,35.3194 ,1.04733 ,2.22883 ,21.86932 
196 ,35.5150 ,1.04922 ,2.21515 ,21.73500 
197 ,35.6877 ,1.05104 ,2.19461 ,21.53353 
198 ,35.8793 ,1.05289 ,2.17750 ,21.36564 
199 ,36.0558 ,1.05470 ,2.16381 ,21.23133 
200 ,36.2318 ,1.05645 ,2.16723 ,21.26491 
201 ,36.4079 ,1.05821 ,2.16723 ,21.26491 
202 ,36.5839 ,1.05995 ,2.12617 ,20.86197 
203 ,36.7760 ,1.06186 ,2.11248 ,20.72766 
204 ,36.9516 ,1.06365 ,2.09195 ,20.52619 
205 ,37.1282 ,1.06536 ,2.09879 ,20.59334 
206 ,37.3041 ,1.06718 ,2.07141 ,20.32472 
207 ,37.4802 ,1.06894 ,2.04061 ,20.02251 
208 ,37.6562 ,1.07065 ,2.02693 ,19.88820 
209 ,37.8324 ,1.07244 ,2.03377 ,19.95535 
210 ,38.0244 ,1.07435 ,2.01324 ,19.75388 
211 ,38.2008 ,1.07607 ,1.98244 ,19.45168 
212 ,38.3765 ,1.07788 ,1.96875 ,19.31737 
213 ,38.5366 ,1.07960 ,1.96875 ,19.31737 
214 ,38.7128 ,1.08127 ,1.94822 ,19.11590 
215 ,38.9049 ,1.08317 ,1.94137 ,19.04874 
216 ,39.0809 ,1.08493 ,1.91399 ,18.78011 
217 ,39.2570 ,1.08677 ,1.91399 ,18.78011 
218 ,39.4331 ,1.08846 ,1.88662 ,18.51149 
219 ,39.6250 ,1.09037 ,1.87635 ,18.41075 
220 ,39.8013 ,1.09209 ,1.85582 ,18.20928 
221 ,39.9772 ,1.09390 ,1.83871 ,18.04139 
222 ,40.1534 ,1.09562 ,1.83186 ,17.97423 
223 ,40.3293 ,1.09742 ,1.83186 ,17.97423 
224 ,40.5055 ,1.09911 ,1.80449 ,17.70561 
225 ,40.6978 ,1.10105 ,1.77711 ,17.43698 
226 ,40.8736 ,1.10290 ,1.76684 ,17.33625 
227 ,41.0498 ,1.10464 ,1.76342 ,17.30267 
228 ,41.2418 ,1.10652 ,1.73946 ,17.06762 
229 ,41.4338 ,1.10841 ,1.73604 ,17.03404 
230 ,41.6099 ,1.11018 ,1.72578 ,16.93331 
231 ,41.8018 ,1.11204 ,1.69498 ,16.63110 
232 ,41.9778 ,1.11385 ,1.67444 ,16.42963 
233 ,42.1378 ,1.11561 ,1.67102 ,16.39605 
234 ,42.3139 ,1.11723 ,1.65391 ,16.22816 
235 ,42.5064 ,1.11907 ,1.65733 ,16.26174 
236 ,42.7144 ,1.12114 ,1.62995 ,15.99311 
237 ,42.9385 ,1.12335 ,1.59916 ,15.69091 
238 ,43.1146 ,1.12519 ,1.60258 ,15.72449 
239 ,43.3066 ,1.12710 ,1.58547 ,15.55660 
240 ,43.4826 ,1.12895 ,1.56493 ,15.35513 
241 ,43.6749 ,1.13083 ,1.55467 ,15.25439 
242 ,43.8507 ,1.13262 ,1.55467 ,15.25439 
243 ,44.0269 ,1.13440 ,1.53071 ,15.01934 
244 ,44.2028 ,1.13611 ,1.50676 ,14.78430 
245 ,44.3792 ,1.13793 ,1.48622 ,14.58283 
246 ,44.5712 ,1.13978 ,1.48280 ,14.54925 
247 ,44.7471 ,1.14156 ,1.47596 ,14.48209 
248 ,44.9234 ,1.14334 ,1.46911 ,14.41493 
249 ,45.0996 ,1.14507 ,1.44174 ,14.14631 
250 ,45.2751 ,1.14685 ,1.43489 ,14.07915 
251 ,45.4516 ,1.14861 ,1.42120 ,13.94484 
252 ,45.6597 ,1.15059 ,1.40409 ,13.77695 
253 ,45.8358 ,1.15246 ,1.38356 ,13.57548 
254 ,46.0117 ,1.15421 ,1.38014 ,13.54190 
255 ,46.2038 ,1.15599 ,1.37329 ,13.47474 
256 ,46.3798 ,1.15784 ,1.34934 ,13.23969 
257 ,46.5557 ,1.15966 ,1.33565 ,13.10538 
258 ,46.7322 ,1.16135 ,1.33565 ,13.10538 
259 ,46.9240 ,1.16323 ,1.33223 ,13.07180 
260 ,47.1003 ,1.16511 ,1.28432 ,12.60171 
261 ,47.2922 ,1.16692 ,1.28774 ,12.63528 
262 ,47.4682 ,1.16878 ,1.28089 ,12.56813 
263 ,47.6445 ,1.17050 ,1.25694 ,12.33308 
264 ,47.8526 ,1.17247 ,1.24667 ,12.23235 
265 ,48.0285 ,1.17435 ,1.24667 ,12.23235 
266 ,48.2047 ,1.17610 ,1.22272 ,11.99730 
267 ,48.3807 ,1.17785 ,1.20218 ,11.79583 
268 ,48.5729 ,1.17975 ,1.19534 ,11.72867 
269 ,48.7650 ,1.18168 ,1.17138 ,11.49362 
270 ,48.9410 ,1.18352 ,1.16454 ,11.42647 
271 ,49.1171 ,1.18521 ,1.15770 ,11.35931 
272 ,49.2934 ,1.18703 ,1.14058 ,11.19142 
273 ,49.4529 ,1.18874 ,1.13032 ,11.09068 
274 ,49.6292 ,1.19036 ,1.12005 ,10.98995 
275 ,49.8054 ,1.19212 ,1.10294 ,10.82206 
276 ,49.9813 ,1.19391 ,1.09267 ,10.72132 
277 ,50.1574 ,1.19565 ,1.08241 ,10.62059 
278 ,50.3336 ,1.19741 ,1.06187 ,10.41912 
279 ,50.5094 ,1.19913 ,1.05845 ,10.38554 
280 ,50.6858 ,1.20094 ,1.05161 ,10.31838 
281 ,50.8938 ,1.20295 ,1.03108 ,10.11691 
282 ,51.0699 ,1.20477 ,1.02423 ,10.04976 
283 ,51.2620 ,1.20673 ,1.00370 ,9.84829 
284 ,51.4381 ,1.20845 ,0.97974 ,9.61324 
285 ,51.6301 ,1.21035 ,0.98659 ,9.68039 
286 ,51.8061 ,1.21212 ,0.96263 ,9.44535 
287 ,51.9824 ,1.21390 ,0.94894 ,9.31103 
288 ,52.1743 ,1.21579 ,0.93868 ,9.21030 
289 ,52.3502 ,1.21757 ,0.93183 ,9.14314 
290 ,52.5264 ,1.21932 ,0.92841 ,9.10956 
291 ,52.7026 ,1.22108 ,0.91130 ,8.94167 
292 ,52.8950 ,1.22299 ,0.88734 ,8.70662 
293 ,53.0708 ,1.22477 ,0.88734 ,8.70662 
294 ,53.2468 ,1.22655 ,0.85997 ,8.43800 
295 ,53.4229 ,1.22827 ,0.85654 ,8.40442 
296 ,53.5830 ,1.22999 ,0.83259 ,8.16937 
297 ,53.7590 ,1.23165 ,0.82575 ,8.10221 
298 ,53.9513 ,1.23344 ,0.81206 ,7.96790 
299 ,54.1272 ,1.23537 ,0.81548 ,8.00148 
300 ,54.3353 ,1.23723 ,0.79152 ,7.76643 
301 ,54.5114 ,1.23918 ,0.78810 ,7.73285 
302 ,54.7034 ,1.24105 ,0.76072 ,7.46423 
303 ,54.8796 ,1.24287 ,0.74704 ,7.32991 
304 ,55.0717 ,1.24480 ,0.74361 ,7.29633 
305 ,55.2476 ,1.24652 ,0.74019 ,7.26276 
306 ,55.4395 ,1.24834 ,0.71966 ,7.06129 
307 ,55.6159 ,1.25019 ,0.69913 ,6.85982 
308 ,55.7917 ,1.25208 ,0.70255 ,6.89340 
309 ,55.9679 ,1.25370 ,0.68544 ,6.72550 
310 ,56.1440 ,1.25545 ,0.67175 ,6.59119 
311 ,56.3041 ,1.25720 ,0.63753 ,6.25541 
312 ,56.4802 ,1.25880 ,0.63753 ,6.25541 
313 ,56.6562 ,1.26060 ,0.62726 ,6.15467 
314 ,56.8319 ,1.26233 ,0.62384 ,6.12109 
315 ,56.9919 ,1.26405 ,0.63068 ,6.18825 
316 ,57.1520 ,1.26568 ,0.61699 ,6.05394 
317 ,57.3119 ,1.26729 ,0.59304 ,5.81889 
318 ,57.5046 ,1.26893 ,0.58277 ,5.71815 
319 ,57.7126 ,1.27115 ,0.56224 ,5.51668 
320 ,57.8883 ,1.27297 ,0.55882 ,5.48311 
321 ,58.0648 ,1.27468 ,0.53828 ,5.28164 
322 ,58.2409 ,1.27647 ,0.51775 ,5.08017 
323 ,58.4169 ,1.27822 ,0.51433 ,5.04659 
324 ,58.6089 ,1.28007 ,0.50406 ,4.94585 
325 ,58.7851 ,1.28189 ,0.49722 ,4.87870 
326 ,58.9770 ,1.28377 ,0.47326 ,4.64365 
327 ,59.1532 ,1.28556 ,0.47668 ,4.67723 
328 ,59.3292 ,1.28728 ,0.47668 ,4.67723 
329 ,59.5054 ,1.28908 ,0.44931 ,4.40860 
330 ,59.6973 ,1.29100 ,0.42193 ,4.13997 
331 ,59.8736 ,1.29274 ,0.43220 ,4.24071 
332 ,60.0655 ,1.29470 ,0.41509 ,4.07282 
333 ,60.2576 ,1.29661 ,0.39455 ,3.87135 
334 ,60.4337 ,1.29833 ,0.39113 ,3.83777 
335 ,60.6256 ,1.30020 ,0.37744 ,3.70346 
336 ,60.8017 ,1.30214 ,0.36033 ,3.53557 
337 ,60.9777 ,1.30381 ,0.34664 ,3.40125 
338 ,61.1541 ,1.30555 ,0.34322 ,3.36767 
339 ,61.3463 ,1.30747 ,0.33638 ,3.30052 
340 ,61.5224 ,1.30925 ,0.31242 ,3.06547 
341 ,61.7143 ,1.31116 ,0.30558 ,2.99831 
342 ,61.8904 ,1.31295 ,0.30215 ,2.96473 
343 ,62.0662 ,1.31467 ,0.28162 ,2.76326 
344 ,62.2428 ,1.31644 ,0.26451 ,2.59537 
345 ,62.4347 ,1.31837 ,0.25767 ,2.52822 
346 ,62.6107 ,1.32017 ,0.26109 ,2.56179 
347 ,62.8034 ,1.32200 ,0.22344 ,2.19243 
348 ,62.9789 ,1.32384 ,0.20633 ,2.02454 
349 ,63.1548 ,1.32555 ,0.20976 ,2.05812 
350 ,63.3310 ,1.32735 ,0.21318 ,2.09170 
351 ,63.5071 ,1.32909 ,0.18580 ,1.82307 
352 ,63.6995 ,1.33098 ,0.16527 ,1.62160 
353 ,63.8752 ,1.33276 ,0.15500 ,1.52087 
354 ,64.0514 ,1.33448 ,0.16527 ,1.62160 
355 ,64.2594 ,1.33652 ,0.13789 ,1.35298 
356 ,64.4355 ,1.33836 ,0.12420 ,1.21866 
357 ,64.6115 ,1.34011 ,0.12078 ,1.18508 
358 ,64.7878 ,1.34187 ,0.11393 ,1.11793 
359 ,64.9638 ,1.34368 ,0.08998 ,0.88288 
360 ,65.1397 ,1.34544 ,0.07629 ,0.74857 
361 ,65.3160 ,1.34720 ,0.06260 ,0.61425 
362 ,65.5081 ,1.34900 ,0.06602 ,0.64783 
363 ,65.6840 ,1.35089 ,0.04891 ,0.47994 
364 ,65.8599 ,1.35260 ,0.04207 ,0.41278 
365 ,66.0362 ,1.35439 ,0.02496 ,0.24489 
366 ,66.2120 ,1.35614 ,0.03865 ,0.37920 
367 ,66.3884 ,1.35795 ,0.01127 ,0.11058 
368 ,66.5643 ,1.35970 ,-0.01611 ,-0.15805 
369 ,66.7406 ,1.36142 ,-0.03322 ,-0.32594 
370 ,66.9326 ,1.36334 ,-0.02980 ,-0.29236 
371 ,67.1247 ,1.36521 ,-0.04348 ,-0.42667 
372 ,67.3164 ,1.36709 ,-0.04691 ,-0.46025 
373 ,67.4930 ,1.36892 ,-0.06060 ,-0.59457 
374 ,67.6689 ,1.37069 ,-0.07086 ,-0.69530 
375 ,67.8450 ,1.37245 ,-0.08797 ,-0.86319 
376 ,68.0211 ,1.37424 ,-0.10508 ,-1.03108 
377 ,68.1974 ,1.37601 ,-0.12219 ,-1.19898 
378 ,68.3892 ,1.37789 ,-0.11877 ,-1.16540 
379 ,68.5813 ,1.37978 ,-0.14957 ,-1.46760 
380 ,68.7734 ,1.38175 ,-0.13931 ,-1.36687 
381 ,68.9492 ,1.38351 ,-0.14273 ,-1.40045 
382 ,69.1256 ,1.38525 ,-0.17353 ,-1.70265 
383 ,69.3017 ,1.38704 ,-0.18379 ,-1.80338 
384 ,69.4778 ,1.38879 ,-0.20090 ,-1.97128 
385 ,69.6694 ,1.39068 ,-0.19064 ,-1.87054 
386 ,69.8458 ,1.39248 ,-0.21117 ,-2.07201 
387 ,70.0220 ,1.39420 ,-0.23855 ,-2.34064 
388 ,70.1983 ,1.39600 ,-0.24197 ,-2.37422 
389 ,70.3900 ,1.39785 ,-0.23170 ,-2.27348 
390 ,70.5821 ,1.39976 ,-0.27619 ,-2.71000 
391 ,70.7742 ,1.40170 ,-0.25908 ,-2.54211 
392 ,70.9503 ,1.40350 ,-0.28304 ,-2.77716 
393 ,71.1263 ,1.40520 ,-0.28988 ,-2.84431 
394 ,71.3027 ,1.40701 ,-0.32410 ,-3.18010 
395 ,71.4946 ,1.40893 ,-0.31384 ,-3.07936 
396 ,71.6705 ,1.41067 ,-0.32068 ,-3.14652 
397 ,71.8465 ,1.41242 ,-0.33779 ,-3.31441 
398 ,72.0384 ,1.41425 ,-0.34806 ,-3.41514 
399 ,72.2147 ,1.41613 ,-0.35490 ,-3.48230 
400 ,72.3908 ,1.41793 ,-0.36517 ,-3.58303 
401 ,72.5666 ,1.41959 ,-0.38570 ,-3.78450 
402 ,72.7430 ,1.42145 ,-0.38912 ,-3.81808 
403 ,72.9510 ,1.42339 ,-0.40623 ,-3.98597 
404 ,73.1271 ,1.42524 ,-0.41992 ,-4.12029 
405 ,73.3193 ,1.42709 ,-0.44388 ,-4.35534 
406 ,73.4952 ,1.42894 ,-0.45072 ,-4.42249 
407 ,73.6711 ,1.43071 ,-0.45414 ,-4.45607 
408 ,73.8476 ,1.43244 ,-0.46441 ,-4.55681 
409 ,74.0396 ,1.43429 ,-0.48152 ,-4.72470 
410 ,74.2316 ,1.43622 ,-0.48494 ,-4.75828 
411 ,74.4074 ,1.43810 ,-0.51917 ,-5.09406 
412 ,74.5834 ,1.43980 ,-0.52259 ,-5.12764 
413 ,74.7599 ,1.44160 ,-0.54312 ,-5.32911 
414 ,74.9519 ,1.44351 ,-0.52943 ,-5.19479 
415 ,75.1278 ,1.44521 ,-0.56023 ,-5.49700 
416 ,75.3201 ,1.44709 ,-0.56023 ,-5.49700 
417 ,75.5120 ,1.44912 ,-0.55681 ,-5.46342 
418 ,75.6881 ,1.45084 ,-0.57734 ,-5.66489 
419 ,75.8642 ,1.45257 ,-0.60130 ,-5.89994 
420 ,76.0403 ,1.45433 ,-0.60814 ,-5.96709 
421 ,76.2165 ,1.45608 ,-0.61156 ,-6.00067 
422 ,76.3927 ,1.45791 ,-0.61156 ,-6.00067 
423 ,76.5843 ,1.45980 ,-0.64579 ,-6.33646 
424 ,76.7606 ,1.46156 ,-0.65605 ,-6.43719 
425 ,76.9366 ,1.46331 ,-0.66974 ,-6.57150 
426 ,77.1128 ,1.46509 ,-0.65947 ,-6.47077 
427 ,77.2889 ,1.46687 ,-0.68001 ,-6.67224 
428 ,77.4649 ,1.46871 ,-0.70396 ,-6.90729 
429 ,77.6410 ,1.47037 ,-0.72107 ,-7.07518 
430 ,77.8328 ,1.47225 ,-0.70396 ,-6.90729 
431 ,78.0092 ,1.47410 ,-0.71423 ,-7.00802 
432 ,78.1853 ,1.47579 ,-0.73476 ,-7.20949 
433 ,78.3613 ,1.47760 ,-0.74845 ,-7.34380 
434 ,78.5210 ,1.47927 ,-0.75530 ,-7.41096 
435 ,78.6811 ,1.48089 ,-0.76214 ,-7.47812 
436 ,78.8573 ,1.48254 ,-0.77583 ,-7.61243 
437 ,79.0337 ,1.48427 ,-0.77241 ,-7.57885 
438 ,79.2256 ,1.48611 ,-0.76898 ,-7.54527 
439 ,79.4022 ,1.48799 ,-0.81005 ,-7.94821 
440 ,79.5939 ,1.48993 ,-0.80321 ,-7.88106 
441 ,79.7697 ,1.49163 ,-0.81005 ,-7.94821 
442 ,79.9781 ,1.49366 ,-0.80663 ,-7.91464 
443 ,80.1700 ,1.49564 ,-0.82374 ,-8.08253 
444 ,80.3462 ,1.49742 ,-0.84085 ,-8.25042 
445 ,80.5221 ,1.49921 ,-0.84769 ,-8.31758 
446 ,80.7139 ,1.50108 ,-0.85454 ,-8.38473 
447 ,80.9061 ,1.50290 ,-0.85112 ,-8.35115 
448 ,81.0985 ,1.50484 ,-0.88534 ,-8.68694 
449 ,81.2904 ,1.50688 ,-0.87165 ,-8.55262 
450 ,81.4666 ,1.50863 ,-0.89560 ,-8.78767 
451 ,81.6426 ,1.51035 ,-0.89903 ,-8.82125 
452 ,81.8346 ,1.51227 ,-0.90929 ,-8.92198 
453 ,82.0109 ,1.51405 ,-0.91614 ,-8.98914 
454 ,82.2029 ,1.51595 ,-0.94694 ,-9.29135 
455 ,82.3790 ,1.51771 ,-0.95378 ,-9.35850 
456 ,82.5711 ,1.51957 ,-0.95720 ,-9.39208 
457 ,82.7631 ,1.52157 ,-0.98800 ,-9.69429 
458 ,82.9392 ,1.52329 ,-0.97774 ,-9.59355 
459 ,83.1152 ,1.52507 ,-0.97774 ,-9.59355 
460 ,83.2914 ,1.52688 ,-0.99143 ,-9.72786 
461 ,83.4673 ,1.52858 ,-1.00854 ,-9.89576 
462 ,83.6434 ,1.53038 ,-1.02222 ,-10.03007 
463 ,83.8195 ,1.53211 ,-1.03249 ,-10.13080 
