Data stamp = , 29-03-2022 02:35:10 215

Calibration Values: 
Slope = , 26.54 , g/V 
Offset Voltage at no contact = , -0.501760 , V 

No , Time , Stage Position ,   Mass , Force 
   ,  (s) ,      (mm)      ,   (g)  , (mN)  

1 ,0.0000 ,0.69954 ,5.27456 ,51.75401 
2 ,0.2178 ,0.69958 ,5.26087 ,51.61969 
3 ,0.5219 ,0.70040 ,5.27798 ,51.78758 
4 ,0.7139 ,0.70175 ,5.28141 ,51.82116 
5 ,0.8900 ,0.70326 ,5.28825 ,51.88832 
6 ,1.0821 ,0.70509 ,5.26772 ,51.68685 
7 ,1.2422 ,0.70675 ,5.27114 ,51.72043 
8 ,1.4183 ,0.70836 ,5.27456 ,51.75401 
9 ,1.5943 ,0.71022 ,5.25745 ,51.58611 
10 ,1.7706 ,0.71203 ,5.25403 ,51.55254 
11 ,1.9627 ,0.71393 ,5.21981 ,51.21675 
12 ,2.1542 ,0.71588 ,5.20954 ,51.11602 
13 ,2.3467 ,0.71766 ,5.18901 ,50.91455 
14 ,2.5390 ,0.71970 ,5.15821 ,50.61234 
15 ,2.7147 ,0.72143 ,5.15136 ,50.54519 
16 ,2.9070 ,0.72341 ,5.14110 ,50.44445 
17 ,3.0989 ,0.72519 ,5.12056 ,50.24298 
18 ,3.2908 ,0.72728 ,5.11030 ,50.14225 
19 ,3.4829 ,0.72905 ,5.07950 ,49.84004 
20 ,3.6592 ,0.73088 ,5.06239 ,49.67215 
21 ,3.8354 ,0.73260 ,5.05554 ,49.60499 
22 ,4.0274 ,0.73456 ,5.04185 ,49.47068 
23 ,4.2033 ,0.73627 ,5.02132 ,49.26921 
24 ,4.3792 ,0.73808 ,4.99394 ,49.00058 
25 ,4.5556 ,0.73981 ,4.98368 ,48.89985 
26 ,4.7478 ,0.74175 ,4.98026 ,48.86627 
27 ,4.9402 ,0.74369 ,4.95288 ,48.59764 
28 ,5.1320 ,0.74557 ,4.94261 ,48.49691 
29 ,5.3080 ,0.74736 ,4.92550 ,48.32902 
30 ,5.4839 ,0.74913 ,4.91523 ,48.22828 
31 ,5.6602 ,0.75087 ,4.89812 ,48.06039 
32 ,5.8361 ,0.75267 ,4.86732 ,47.75819 
33 ,6.0125 ,0.75439 ,4.87075 ,47.79177 
34 ,6.1881 ,0.75627 ,4.85021 ,47.59030 
35 ,6.3644 ,0.75790 ,4.84337 ,47.52314 
36 ,6.5406 ,0.75971 ,4.82284 ,47.32167 
37 ,6.7324 ,0.76162 ,4.80230 ,47.12020 
38 ,6.9245 ,0.76347 ,4.79204 ,47.01946 
39 ,7.1007 ,0.76528 ,4.76808 ,46.78442 
40 ,7.2925 ,0.76723 ,4.75439 ,46.65010 
41 ,7.4689 ,0.76898 ,4.74755 ,46.58295 
42 ,7.6449 ,0.77076 ,4.73386 ,46.44863 
43 ,7.8210 ,0.77249 ,4.71675 ,46.28074 
44 ,8.0131 ,0.77440 ,4.68937 ,46.01212 
45 ,8.1891 ,0.77618 ,4.68595 ,45.97854 
46 ,8.3651 ,0.77791 ,4.67568 ,45.87780 
47 ,8.5409 ,0.77968 ,4.65515 ,45.67633 
48 ,8.7173 ,0.78148 ,4.62435 ,45.37413 
49 ,8.8933 ,0.78333 ,4.62777 ,45.40771 
50 ,9.1016 ,0.78514 ,4.61408 ,45.27339 
51 ,9.2936 ,0.78718 ,4.57986 ,44.93761 
52 ,9.4697 ,0.78898 ,4.58328 ,44.97119 
53 ,9.6775 ,0.79094 ,4.56617 ,44.80330 
54 ,9.8698 ,0.79297 ,4.53880 ,44.53467 
55 ,10.0460 ,0.79472 ,4.54564 ,44.60183 
56 ,10.2219 ,0.79647 ,4.51826 ,44.33320 
57 ,10.3979 ,0.79820 ,4.48062 ,43.96384 
58 ,10.5741 ,0.79999 ,4.47035 ,43.86310 
59 ,10.7501 ,0.80177 ,4.45324 ,43.69521 
60 ,10.9423 ,0.80365 ,4.44298 ,43.59448 
61 ,11.1181 ,0.80543 ,4.42586 ,43.42659 
62 ,11.3103 ,0.80737 ,4.40533 ,43.22512 
63 ,11.5024 ,0.80926 ,4.40875 ,43.25870 
64 ,11.7101 ,0.81126 ,4.35742 ,42.75502 
65 ,11.8866 ,0.81313 ,4.35400 ,42.72144 
66 ,12.0783 ,0.81505 ,4.33004 ,42.48639 
67 ,12.2547 ,0.81680 ,4.30609 ,42.25135 
68 ,12.4308 ,0.81858 ,4.29582 ,42.15061 
69 ,12.6068 ,0.82033 ,4.28898 ,42.08345 
70 ,12.7666 ,0.82202 ,4.26845 ,41.88198 
71 ,12.9431 ,0.82372 ,4.27187 ,41.91556 
72 ,13.1186 ,0.82550 ,4.23422 ,41.54620 
73 ,13.2946 ,0.82722 ,4.22738 ,41.47905 
74 ,13.4707 ,0.82893 ,4.19658 ,41.17684 
75 ,13.6469 ,0.83070 ,4.20000 ,41.21042 
76 ,13.8229 ,0.83251 ,4.16578 ,40.87464 
77 ,14.0153 ,0.83429 ,4.14867 ,40.70674 
78 ,14.2075 ,0.83633 ,4.14183 ,40.63959 
79 ,14.3836 ,0.83805 ,4.12814 ,40.50527 
80 ,14.5597 ,0.83981 ,4.10760 ,40.30380 
81 ,14.7194 ,0.84158 ,4.08365 ,40.06876 
82 ,14.8954 ,0.84320 ,4.05969 ,39.83371 
83 ,15.0716 ,0.84495 ,4.03574 ,39.59866 
84 ,15.2476 ,0.84671 ,4.04258 ,39.66582 
85 ,15.4237 ,0.84847 ,4.02547 ,39.49793 
86 ,15.5838 ,0.85021 ,4.01178 ,39.36361 
87 ,15.7438 ,0.85178 ,3.98441 ,39.09499 
88 ,15.9038 ,0.85337 ,3.98098 ,39.06141 
89 ,16.0799 ,0.85506 ,3.96045 ,38.85994 
90 ,16.2560 ,0.85675 ,3.93307 ,38.59131 
91 ,16.4321 ,0.85859 ,3.91254 ,38.38984 
92 ,16.5920 ,0.86028 ,3.91596 ,38.42342 
93 ,16.7682 ,0.86187 ,3.88858 ,38.15479 
94 ,16.9442 ,0.86367 ,3.87832 ,38.05406 
95 ,17.1042 ,0.86541 ,3.87147 ,37.98690 
96 ,17.2643 ,0.86698 ,3.84410 ,37.71828 
97 ,17.4244 ,0.86859 ,3.83725 ,37.65112 
98 ,17.5845 ,0.87020 ,3.80987 ,37.38249 
99 ,17.7446 ,0.87178 ,3.79961 ,37.28176 
100 ,17.9046 ,0.87341 ,3.78934 ,37.18102 
101 ,18.0808 ,0.87497 ,3.77565 ,37.04671 
102 ,18.2568 ,0.87679 ,3.75170 ,36.81166 
103 ,18.4168 ,0.87850 ,3.72432 ,36.54303 
104 ,18.5768 ,0.88012 ,3.70721 ,36.37514 
105 ,18.7529 ,0.88173 ,3.69694 ,36.27441 
106 ,18.9290 ,0.88347 ,3.67983 ,36.10652 
107 ,19.0894 ,0.88520 ,3.67299 ,36.03936 
108 ,19.2492 ,0.88685 ,3.65930 ,35.90505 
109 ,19.4254 ,0.88850 ,3.62508 ,35.56926 
110 ,19.6017 ,0.89026 ,3.62166 ,35.53569 
111 ,19.7777 ,0.89202 ,3.60797 ,35.40137 
112 ,19.9533 ,0.89376 ,3.59770 ,35.30064 
113 ,20.1294 ,0.89552 ,3.57717 ,35.09917 
114 ,20.3055 ,0.89730 ,3.54637 ,34.79696 
115 ,20.4818 ,0.89906 ,3.53952 ,34.72981 
116 ,20.6737 ,0.90096 ,3.51899 ,34.52834 
117 ,20.8500 ,0.90271 ,3.51215 ,34.46118 
118 ,21.0425 ,0.90465 ,3.49846 ,34.32687 
119 ,21.2340 ,0.90656 ,3.46766 ,34.02466 
120 ,21.4105 ,0.90833 ,3.44713 ,33.82319 
121 ,21.6024 ,0.91026 ,3.43686 ,33.72246 
122 ,21.7786 ,0.91205 ,3.42317 ,33.58814 
123 ,21.9705 ,0.91395 ,3.39237 ,33.28594 
124 ,22.1624 ,0.91586 ,3.39579 ,33.31952 
125 ,22.3388 ,0.91765 ,3.37526 ,33.11805 
126 ,22.5148 ,0.91937 ,3.36499 ,33.01731 
127 ,22.6909 ,0.92112 ,3.33419 ,32.71511 
128 ,22.8670 ,0.92290 ,3.32051 ,32.58080 
129 ,23.0432 ,0.92464 ,3.32051 ,32.58080 
130 ,23.2347 ,0.92658 ,3.28971 ,32.27859 
131 ,23.3951 ,0.92826 ,3.27602 ,32.14428 
132 ,23.5712 ,0.92989 ,3.25548 ,31.94281 
133 ,23.7474 ,0.93167 ,3.24522 ,31.84207 
134 ,23.9232 ,0.93351 ,3.23153 ,31.70776 
135 ,24.0995 ,0.93520 ,3.22126 ,31.60702 
136 ,24.2591 ,0.93690 ,3.21442 ,31.53987 
137 ,24.4358 ,0.93859 ,3.19731 ,31.37198 
138 ,24.6277 ,0.94052 ,3.15966 ,31.00262 
139 ,24.8037 ,0.94230 ,3.16309 ,31.03619 
140 ,24.9799 ,0.94404 ,3.15966 ,31.00262 
141 ,25.1720 ,0.94595 ,3.12886 ,30.70041 
142 ,25.3479 ,0.94770 ,3.09806 ,30.39821 
143 ,25.5239 ,0.94942 ,3.08780 ,30.29747 
144 ,25.7002 ,0.95122 ,3.08780 ,30.29747 
145 ,25.9083 ,0.95317 ,3.05358 ,29.96169 
146 ,26.0840 ,0.95503 ,3.04331 ,29.86095 
147 ,26.2600 ,0.95680 ,3.03989 ,29.82737 
148 ,26.4205 ,0.95852 ,3.01935 ,29.62590 
149 ,26.5965 ,0.96016 ,3.00909 ,29.52517 
150 ,26.7886 ,0.96202 ,2.98171 ,29.25654 
151 ,26.9807 ,0.96403 ,2.97487 ,29.18939 
152 ,27.1567 ,0.96573 ,2.95776 ,29.02150 
153 ,27.3328 ,0.96758 ,2.92696 ,28.71929 
154 ,27.5248 ,0.96944 ,2.90642 ,28.51782 
155 ,27.7168 ,0.97134 ,2.90300 ,28.48424 
156 ,27.8930 ,0.97315 ,2.87905 ,28.24919 
157 ,28.0691 ,0.97484 ,2.85851 ,28.04772 
158 ,28.2450 ,0.97665 ,2.84825 ,27.94699 
159 ,28.4209 ,0.97836 ,2.83798 ,27.84625 
160 ,28.5971 ,0.98013 ,2.82429 ,27.71194 
161 ,28.7735 ,0.98185 ,2.80376 ,27.51047 
162 ,28.9655 ,0.98385 ,2.79007 ,27.37616 
163 ,29.1417 ,0.98558 ,2.77296 ,27.20827 
164 ,29.3174 ,0.98751 ,2.75243 ,27.00680 
165 ,29.4934 ,0.98913 ,2.74216 ,26.90606 
166 ,29.6698 ,0.99092 ,2.71478 ,26.63744 
167 ,29.8461 ,0.99268 ,2.70794 ,26.57028 
168 ,30.0219 ,0.99437 ,2.68056 ,26.30165 
169 ,30.1979 ,0.99617 ,2.69083 ,26.40239 
170 ,30.3899 ,0.99805 ,2.66687 ,26.16734 
171 ,30.5662 ,0.99993 ,2.66003 ,26.10018 
172 ,30.7424 ,1.00157 ,2.63607 ,25.86514 
173 ,30.9344 ,1.00347 ,2.61554 ,25.66367 
174 ,31.1102 ,1.00526 ,2.58474 ,25.36146 
175 ,31.2865 ,1.00703 ,2.57789 ,25.29430 
176 ,31.4945 ,1.00902 ,2.57789 ,25.29430 
177 ,31.6708 ,1.01089 ,2.55736 ,25.09283 
178 ,31.8626 ,1.01280 ,2.52998 ,24.82421 
179 ,32.0387 ,1.01460 ,2.51630 ,24.68989 
180 ,32.2310 ,1.01648 ,2.51287 ,24.65632 
181 ,32.4229 ,1.01831 ,2.48550 ,24.38769 
182 ,32.5986 ,1.02017 ,2.46496 ,24.18622 
183 ,32.7750 ,1.02195 ,2.48550 ,24.38769 
184 ,32.9511 ,1.02376 ,2.42390 ,23.78328 
185 ,33.1273 ,1.02539 ,2.41021 ,23.64897 
186 ,33.3033 ,1.02723 ,2.41705 ,23.71612 
187 ,33.4794 ,1.02901 ,2.39994 ,23.54823 
188 ,33.6715 ,1.03087 ,2.38968 ,23.44750 
189 ,33.8475 ,1.03261 ,2.35545 ,23.11171 
190 ,34.0397 ,1.03447 ,2.34861 ,23.04456 
191 ,34.2156 ,1.03631 ,2.34519 ,23.01098 
192 ,34.3913 ,1.03816 ,2.31097 ,22.67520 
193 ,34.5514 ,1.03978 ,2.29043 ,22.47373 
194 ,34.7114 ,1.04137 ,2.27332 ,22.30584 
195 ,34.8716 ,1.04295 ,2.26648 ,22.23868 
196 ,35.0477 ,1.04457 ,2.25621 ,22.13794 
197 ,35.2236 ,1.04645 ,2.24937 ,22.07079 
198 ,35.3997 ,1.04819 ,2.23226 ,21.90290 
199 ,35.5760 ,1.04994 ,2.21857 ,21.76858 
200 ,35.7519 ,1.05163 ,2.20146 ,21.60069 
201 ,35.9279 ,1.05343 ,2.18435 ,21.43280 
202 ,36.1042 ,1.05517 ,2.16039 ,21.19775 
203 ,36.3126 ,1.05724 ,2.15697 ,21.16417 
204 ,36.5042 ,1.05919 ,2.12959 ,20.89555 
205 ,36.6967 ,1.06101 ,2.12275 ,20.82839 
206 ,36.8727 ,1.06286 ,2.10906 ,20.69408 
207 ,37.0488 ,1.06469 ,2.08510 ,20.45903 
208 ,37.2250 ,1.06642 ,2.06457 ,20.25756 
209 ,37.4008 ,1.06820 ,2.05430 ,20.15682 
210 ,37.5926 ,1.07004 ,2.05430 ,20.15682 
211 ,37.7686 ,1.07184 ,2.03377 ,19.95535 
212 ,37.9451 ,1.07359 ,2.02350 ,19.85462 
213 ,38.1692 ,1.07587 ,2.00639 ,19.68673 
214 ,38.3614 ,1.07778 ,1.97559 ,19.38452 
215 ,38.5532 ,1.07960 ,1.96533 ,19.28379 
216 ,38.7454 ,1.08156 ,1.94822 ,19.11590 
217 ,38.9215 ,1.08340 ,1.94479 ,19.08232 
218 ,39.0976 ,1.08508 ,1.92426 ,18.88085 
219 ,39.2736 ,1.08683 ,1.92084 ,18.84727 
220 ,39.4496 ,1.08869 ,1.89688 ,18.61222 
221 ,39.6259 ,1.09038 ,1.88319 ,18.47791 
222 ,39.8179 ,1.09222 ,1.85582 ,18.20928 
223 ,40.0100 ,1.09419 ,1.86951 ,18.34360 
224 ,40.1861 ,1.09602 ,1.83186 ,17.97423 
225 ,40.3623 ,1.09777 ,1.82502 ,17.90708 
226 ,40.5542 ,1.09961 ,1.80106 ,17.67203 
227 ,40.7304 ,1.10143 ,1.80106 ,17.67203 
228 ,40.9224 ,1.10328 ,1.78737 ,17.53772 
229 ,41.0985 ,1.10512 ,1.74973 ,17.16836 
230 ,41.2745 ,1.10691 ,1.75657 ,17.23551 
231 ,41.4666 ,1.10878 ,1.74289 ,17.10120 
232 ,41.6427 ,1.11061 ,1.70866 ,16.76542 
233 ,41.8188 ,1.11232 ,1.71893 ,16.86615 
234 ,42.0108 ,1.11421 ,1.70866 ,16.76542 
235 ,42.1870 ,1.11604 ,1.68813 ,16.56395 
236 ,42.3791 ,1.11792 ,1.66418 ,16.32890 
237 ,42.5552 ,1.11972 ,1.65391 ,16.22816 
238 ,42.7473 ,1.12162 ,1.64022 ,16.09385 
239 ,42.9232 ,1.12334 ,1.63680 ,16.06027 
240 ,43.0830 ,1.12504 ,1.60600 ,15.75807 
241 ,43.2592 ,1.12672 ,1.59573 ,15.65733 
242 ,43.4356 ,1.12853 ,1.58889 ,15.59018 
243 ,43.6113 ,1.13026 ,1.58204 ,15.52302 
244 ,43.7875 ,1.13198 ,1.56493 ,15.35513 
245 ,43.9636 ,1.13380 ,1.54098 ,15.12008 
246 ,44.1553 ,1.13570 ,1.53071 ,15.01934 
247 ,44.3318 ,1.13745 ,1.51360 ,14.85145 
248 ,44.5080 ,1.13915 ,1.51360 ,14.85145 
249 ,44.6840 ,1.14097 ,1.48280 ,14.54925 
250 ,44.8601 ,1.14274 ,1.46227 ,14.34778 
251 ,45.0362 ,1.14453 ,1.45200 ,14.24704 
252 ,45.2118 ,1.14622 ,1.46569 ,14.38136 
253 ,45.3883 ,1.14803 ,1.44858 ,14.21346 
254 ,45.5803 ,1.14994 ,1.40751 ,13.81053 
255 ,45.7565 ,1.15169 ,1.39725 ,13.70979 
256 ,45.9484 ,1.15358 ,1.40409 ,13.77695 
257 ,46.1245 ,1.15535 ,1.36645 ,13.40759 
258 ,46.2845 ,1.15705 ,1.36303 ,13.37401 
259 ,46.4606 ,1.15867 ,1.35276 ,13.27327 
260 ,46.6527 ,1.16062 ,1.34249 ,13.17254 
261 ,46.8289 ,1.16242 ,1.34249 ,13.17254 
262 ,47.0209 ,1.16438 ,1.31512 ,12.90391 
263 ,47.2130 ,1.16618 ,1.31854 ,12.93749 
264 ,47.3889 ,1.16809 ,1.28089 ,12.56813 
265 ,47.5808 ,1.16988 ,1.26378 ,12.40024 
266 ,47.7573 ,1.17167 ,1.26036 ,12.36666 
267 ,47.9494 ,1.17361 ,1.25352 ,12.29950 
268 ,48.1254 ,1.17539 ,1.23983 ,12.16519 
269 ,48.3172 ,1.17727 ,1.21245 ,11.89656 
270 ,48.4936 ,1.17905 ,1.19876 ,11.76225 
271 ,48.6856 ,1.18098 ,1.19192 ,11.69509 
272 ,48.8616 ,1.18270 ,1.17138 ,11.49362 
273 ,49.0377 ,1.18448 ,1.15427 ,11.32573 
274 ,49.2137 ,1.18620 ,1.16796 ,11.46004 
275 ,49.4055 ,1.18817 ,1.15085 ,11.29215 
276 ,49.5816 ,1.18990 ,1.13374 ,11.12426 
277 ,49.7577 ,1.19168 ,1.10979 ,10.88921 
278 ,49.9340 ,1.19339 ,1.09610 ,10.75490 
279 ,50.1262 ,1.19541 ,1.09952 ,10.78848 
280 ,50.3023 ,1.19711 ,1.07899 ,10.58701 
281 ,50.4942 ,1.19903 ,1.05503 ,10.35196 
282 ,50.6705 ,1.20085 ,1.04819 ,10.28480 
283 ,50.8466 ,1.20260 ,1.04819 ,10.28480 
284 ,51.0226 ,1.20435 ,1.02765 ,10.08333 
285 ,51.2148 ,1.20624 ,1.00370 ,9.84829 
286 ,51.4064 ,1.20815 ,1.01054 ,9.91544 
287 ,51.5828 ,1.20995 ,0.99343 ,9.74755 
288 ,51.7749 ,1.21184 ,0.96263 ,9.44535 
289 ,51.9510 ,1.21363 ,0.95237 ,9.34461 
290 ,52.1433 ,1.21553 ,0.95237 ,9.34461 
291 ,52.3188 ,1.21729 ,0.93525 ,9.17672 
292 ,52.4949 ,1.21903 ,0.90788 ,8.90809 
293 ,52.6713 ,1.22082 ,0.90788 ,8.90809 
294 ,52.8474 ,1.22257 ,0.90446 ,8.87451 
295 ,53.0234 ,1.22432 ,0.89761 ,8.80736 
296 ,53.1995 ,1.22611 ,0.85654 ,8.40442 
297 ,53.3756 ,1.22786 ,0.84286 ,8.27011 
298 ,53.5677 ,1.22977 ,0.85312 ,8.37084 
299 ,53.7439 ,1.23158 ,0.84970 ,8.33726 
300 ,53.9356 ,1.23346 ,0.81548 ,8.00148 
301 ,54.1118 ,1.23519 ,0.80179 ,7.86717 
302 ,54.2878 ,1.23698 ,0.80521 ,7.90074 
303 ,54.4639 ,1.23878 ,0.79152 ,7.76643 
304 ,54.6561 ,1.24055 ,0.77441 ,7.59854 
305 ,54.8483 ,1.24248 ,0.76757 ,7.53138 
306 ,55.0241 ,1.24430 ,0.75730 ,7.43065 
307 ,55.2163 ,1.24620 ,0.72992 ,7.16202 
308 ,55.4083 ,1.24808 ,0.72308 ,7.09486 
309 ,55.6000 ,1.25001 ,0.69570 ,6.82624 
310 ,55.7764 ,1.25187 ,0.69228 ,6.79266 
311 ,55.9685 ,1.25375 ,0.68544 ,6.72550 
312 ,56.1606 ,1.25561 ,0.69228 ,6.79266 
313 ,56.3365 ,1.25745 ,0.64779 ,6.35614 
314 ,56.5127 ,1.25921 ,0.64095 ,6.28899 
315 ,56.6888 ,1.26095 ,0.63410 ,6.22183 
316 ,56.8810 ,1.26291 ,0.62726 ,6.15467 
317 ,57.0730 ,1.26481 ,0.59988 ,5.88605 
318 ,57.2490 ,1.26654 ,0.60330 ,5.91962 
319 ,57.4252 ,1.26835 ,0.59988 ,5.88605 
320 ,57.6333 ,1.27030 ,0.56908 ,5.58384 
321 ,57.8094 ,1.27217 ,0.56224 ,5.51668 
322 ,58.0012 ,1.27401 ,0.55539 ,5.44953 
323 ,58.1775 ,1.27583 ,0.53828 ,5.28164 
324 ,58.3372 ,1.27755 ,0.52459 ,5.14732 
325 ,58.5291 ,1.27928 ,0.50748 ,4.97943 
326 ,58.7052 ,1.28121 ,0.50064 ,4.91228 
327 ,58.8817 ,1.28293 ,0.50064 ,4.91228 
328 ,59.0739 ,1.28479 ,0.46300 ,4.54291 
329 ,59.2499 ,1.28656 ,0.46300 ,4.54291 
330 ,59.4420 ,1.28845 ,0.45273 ,4.44218 
331 ,59.6180 ,1.29027 ,0.44588 ,4.37502 
332 ,59.7938 ,1.29198 ,0.41851 ,4.10640 
333 ,59.9703 ,1.29378 ,0.41166 ,4.03924 
334 ,60.1622 ,1.29569 ,0.40824 ,4.00566 
335 ,60.3223 ,1.29744 ,0.39797 ,3.90493 
336 ,60.4823 ,1.29902 ,0.38086 ,3.73703 
337 ,60.6583 ,1.30062 ,0.38086 ,3.73703 
338 ,60.8502 ,1.30252 ,0.37060 ,3.63630 
339 ,61.0266 ,1.30438 ,0.35349 ,3.46841 
340 ,61.2186 ,1.30620 ,0.33980 ,3.33410 
341 ,61.4107 ,1.30805 ,0.31926 ,3.13263 
342 ,61.5866 ,1.30991 ,0.30900 ,3.03189 
343 ,61.7628 ,1.31171 ,0.31584 ,3.09905 
344 ,61.9230 ,1.31337 ,0.29873 ,2.93116 
345 ,62.0991 ,1.31508 ,0.26793 ,2.62895 
346 ,62.2908 ,1.31689 ,0.25424 ,2.49464 
347 ,62.4671 ,1.31874 ,0.25424 ,2.49464 
348 ,62.6591 ,1.32059 ,0.23371 ,2.29317 
349 ,62.8354 ,1.32241 ,0.23371 ,2.29317 
350 ,63.0274 ,1.32431 ,0.21318 ,2.09170 
351 ,63.2035 ,1.32611 ,0.20976 ,2.05812 
352 ,63.3794 ,1.32788 ,0.20633 ,2.02454 
353 ,63.5557 ,1.32963 ,0.18922 ,1.85665 
354 ,63.7316 ,1.33139 ,0.16527 ,1.62160 
355 ,63.9079 ,1.33314 ,0.16869 ,1.65518 
356 ,64.0839 ,1.33490 ,0.15158 ,1.48729 
357 ,64.2917 ,1.33699 ,0.13105 ,1.28582 
358 ,64.4679 ,1.33877 ,0.12078 ,1.18508 
359 ,64.6443 ,1.34046 ,0.13105 ,1.28582 
360 ,64.8201 ,1.34226 ,0.10367 ,1.01719 
361 ,64.9963 ,1.34406 ,0.08656 ,0.84930 
362 ,65.1883 ,1.34589 ,0.07287 ,0.71499 
363 ,65.3644 ,1.34771 ,0.07629 ,0.74857 
364 ,65.5406 ,1.34955 ,0.04891 ,0.47994 
365 ,65.7004 ,1.35118 ,0.04891 ,0.47994 
366 ,65.8765 ,1.35279 ,0.03180 ,0.31205 
367 ,66.0525 ,1.35457 ,0.01127 ,0.11058 
368 ,66.2608 ,1.35652 ,0.00443 ,0.04342 
369 ,66.4526 ,1.35853 ,-0.00926 ,-0.09089 
370 ,66.6289 ,1.36037 ,-0.01953 ,-0.19163 
371 ,66.8048 ,1.36212 ,-0.01611 ,-0.15805 
372 ,67.0130 ,1.36402 ,-0.04691 ,-0.46025 
373 ,67.2212 ,1.36612 ,-0.04006 ,-0.39310 
374 ,67.3972 ,1.36800 ,-0.05717 ,-0.56099 
375 ,67.5893 ,1.36983 ,-0.08455 ,-0.82961 
376 ,67.7652 ,1.37168 ,-0.09824 ,-0.96393 
377 ,67.9417 ,1.37344 ,-0.09140 ,-0.89677 
378 ,68.1174 ,1.37522 ,-0.10508 ,-1.03108 
379 ,68.2935 ,1.37692 ,-0.12904 ,-1.26613 
380 ,68.4852 ,1.37885 ,-0.13931 ,-1.36687 
381 ,68.6616 ,1.38063 ,-0.13588 ,-1.33329 
382 ,68.8537 ,1.38251 ,-0.17011 ,-1.66907 
383 ,69.0459 ,1.38442 ,-0.16668 ,-1.63549 
384 ,69.2216 ,1.38625 ,-0.17353 ,-1.70265 
385 ,69.4139 ,1.38809 ,-0.18037 ,-1.76981 
386 ,69.6061 ,1.39009 ,-0.20433 ,-2.00485 
387 ,69.7981 ,1.39202 ,-0.21117 ,-2.07201 
388 ,69.9742 ,1.39374 ,-0.23170 ,-2.27348 
389 ,70.1503 ,1.39555 ,-0.24539 ,-2.40779 
390 ,70.3099 ,1.39723 ,-0.25908 ,-2.54211 
391 ,70.4865 ,1.39892 ,-0.27277 ,-2.67642 
392 ,70.6785 ,1.40083 ,-0.26935 ,-2.64284 
393 ,70.8546 ,1.40253 ,-0.28646 ,-2.81073 
394 ,71.0467 ,1.40449 ,-0.30699 ,-3.01220 
395 ,71.2226 ,1.40624 ,-0.29330 ,-2.87789 
396 ,71.3985 ,1.40803 ,-0.31384 ,-3.07936 
397 ,71.5588 ,1.40973 ,-0.34121 ,-3.34799 
398 ,71.7508 ,1.41148 ,-0.35490 ,-3.48230 
399 ,71.9270 ,1.41332 ,-0.36175 ,-3.54946 
400 ,72.1192 ,1.41507 ,-0.36859 ,-3.61661 
401 ,72.2951 ,1.41696 ,-0.37201 ,-3.65019 
402 ,72.4713 ,1.41871 ,-0.39597 ,-3.88524 
403 ,72.6633 ,1.42058 ,-0.40281 ,-3.95240 
404 ,72.8714 ,1.42257 ,-0.41650 ,-4.08671 
405 ,73.0473 ,1.42447 ,-0.42677 ,-4.18744 
406 ,73.2071 ,1.42619 ,-0.43703 ,-4.28818 
407 ,73.3832 ,1.42781 ,-0.44388 ,-4.35534 
408 ,73.5592 ,1.42964 ,-0.45072 ,-4.42249 
409 ,73.7353 ,1.43139 ,-0.46099 ,-4.52323 
410 ,73.9279 ,1.43321 ,-0.47810 ,-4.69112 
411 ,74.1199 ,1.43530 ,-0.48837 ,-4.79185 
412 ,74.2961 ,1.43699 ,-0.49521 ,-4.85901 
413 ,74.4878 ,1.43887 ,-0.51574 ,-5.06048 
414 ,74.6642 ,1.44065 ,-0.53285 ,-5.22837 
415 ,74.8561 ,1.44253 ,-0.52259 ,-5.12764 
416 ,75.0323 ,1.44435 ,-0.54312 ,-5.32911 
417 ,75.2085 ,1.44606 ,-0.56708 ,-5.56415 
418 ,75.3844 ,1.44798 ,-0.56708 ,-5.56415 
419 ,75.5604 ,1.44963 ,-0.56708 ,-5.56415 
420 ,75.7527 ,1.45155 ,-0.58761 ,-5.76562 
421 ,75.9766 ,1.45372 ,-0.59788 ,-5.86636 
422 ,76.1689 ,1.45563 ,-0.61841 ,-6.06783 
423 ,76.3608 ,1.45754 ,-0.61156 ,-6.00067 
424 ,76.5369 ,1.45935 ,-0.62525 ,-6.13499 
425 ,76.7290 ,1.46132 ,-0.64579 ,-6.33646 
426 ,76.9050 ,1.46304 ,-0.65947 ,-6.47077 
427 ,77.0811 ,1.46481 ,-0.65605 ,-6.43719 
428 ,77.2573 ,1.46659 ,-0.64921 ,-6.37003 
429 ,77.4495 ,1.46849 ,-0.67316 ,-6.60508 
430 ,77.6252 ,1.47027 ,-0.69027 ,-6.77297 
431 ,77.8015 ,1.47204 ,-0.68685 ,-6.73940 
432 ,77.9935 ,1.47394 ,-0.69027 ,-6.77297 
433 ,78.1696 ,1.47567 ,-0.71081 ,-6.97444 
434 ,78.3454 ,1.47745 ,-0.72792 ,-7.14233 
435 ,78.5218 ,1.47922 ,-0.73134 ,-7.17591 
436 ,78.6978 ,1.48099 ,-0.72450 ,-7.10876 
437 ,78.8897 ,1.48284 ,-0.75872 ,-7.44454 
438 ,79.0659 ,1.48465 ,-0.75872 ,-7.44454 
439 ,79.2422 ,1.48639 ,-0.75872 ,-7.44454 
440 ,79.4182 ,1.48819 ,-0.76898 ,-7.54527 
441 ,79.6102 ,1.49010 ,-0.79294 ,-7.78032 
442 ,79.8019 ,1.49201 ,-0.80321 ,-7.88106 
443 ,79.9784 ,1.49381 ,-0.79978 ,-7.84748 
444 ,80.1544 ,1.49555 ,-0.81689 ,-8.01537 
445 ,80.3463 ,1.49742 ,-0.82716 ,-8.11611 
446 ,80.5226 ,1.49920 ,-0.83401 ,-8.18326 
447 ,80.6986 ,1.50099 ,-0.84085 ,-8.25042 
448 ,80.8747 ,1.50284 ,-0.86138 ,-8.45189 
449 ,81.0504 ,1.50446 ,-0.87165 ,-8.55262 
450 ,81.2429 ,1.50628 ,-0.88534 ,-8.68694 
451 ,81.4187 ,1.50816 ,-0.88876 ,-8.72051 
452 ,81.5948 ,1.51004 ,-0.90587 ,-8.88841 
453 ,81.7870 ,1.51184 ,-0.91956 ,-9.02272 
454 ,81.9631 ,1.51363 ,-0.93667 ,-9.19061 
455 ,82.1392 ,1.51539 ,-0.92640 ,-9.08988 
456 ,82.3151 ,1.51716 ,-0.93667 ,-9.19061 
457 ,82.4913 ,1.51896 ,-0.93325 ,-9.15703 
458 ,82.6674 ,1.52065 ,-0.97431 ,-9.55997 
459 ,82.8437 ,1.52245 ,-0.97431 ,-9.55997 
460 ,83.0196 ,1.52417 ,-0.98116 ,-9.62713 
461 ,83.2115 ,1.52610 ,-0.99143 ,-9.72786 
462 ,83.3877 ,1.52785 ,-1.01196 ,-9.92933 
463 ,83.5636 ,1.52963 ,-1.01880 ,-9.99649 
