Data stamp = , 28-03-2022 23:14:01 044

Calibration Values: 
Slope = , 26.54 , g/V 
Offset Voltage at no contact = , -0.501760 , V 

No , Time , Stage Position ,   Mass , Force 
   ,  (s) ,      (mm)      ,   (g)  , (mN)  

1 ,0.0000 ,0.69948 ,5.27456 ,51.75401 
2 ,0.2044 ,0.69954 ,5.25745 ,51.58611 
3 ,0.4443 ,0.70015 ,5.27114 ,51.72043 
4 ,0.6364 ,0.70123 ,5.26772 ,51.68685 
5 ,0.8285 ,0.70260 ,5.26772 ,51.68685 
6 ,1.0047 ,0.70442 ,5.27798 ,51.78758 
7 ,1.1967 ,0.70611 ,5.27798 ,51.78758 
8 ,1.3728 ,0.70791 ,5.27456 ,51.75401 
9 ,1.5487 ,0.70968 ,5.25745 ,51.58611 
10 ,1.7409 ,0.71158 ,5.26087 ,51.61969 
11 ,1.9328 ,0.71363 ,5.23007 ,51.31749 
12 ,2.1091 ,0.71534 ,5.21296 ,51.14960 
13 ,2.2853 ,0.71713 ,5.20954 ,51.11602 
14 ,2.4612 ,0.71890 ,5.21981 ,51.21675 
15 ,2.6374 ,0.72063 ,5.20270 ,51.04886 
16 ,2.8295 ,0.72254 ,5.16163 ,50.64592 
17 ,3.0056 ,0.72432 ,5.15479 ,50.57876 
18 ,3.1978 ,0.72621 ,5.14110 ,50.44445 
19 ,3.3898 ,0.72815 ,5.10688 ,50.10867 
20 ,3.5815 ,0.72999 ,5.08977 ,49.94078 
21 ,3.7579 ,0.73184 ,5.08977 ,49.94078 
22 ,3.9367 ,0.73363 ,5.07265 ,49.77289 
23 ,4.1100 ,0.73538 ,5.05897 ,49.63857 
24 ,4.3020 ,0.73720 ,5.05554 ,49.60499 
25 ,4.4782 ,0.73904 ,5.03843 ,49.43710 
26 ,4.6701 ,0.74093 ,5.00763 ,49.13490 
27 ,4.8462 ,0.74268 ,5.00079 ,49.06774 
28 ,5.0224 ,0.74445 ,4.99394 ,49.00058 
29 ,5.2144 ,0.74639 ,4.97341 ,48.79911 
30 ,5.4063 ,0.74828 ,4.95630 ,48.63122 
31 ,5.5823 ,0.75003 ,4.94946 ,48.56407 
32 ,5.7745 ,0.75200 ,4.94261 ,48.49691 
33 ,5.9668 ,0.75386 ,4.91866 ,48.26186 
34 ,6.1588 ,0.75579 ,4.91181 ,48.19471 
35 ,6.3509 ,0.75773 ,4.87075 ,47.79177 
36 ,6.5269 ,0.75950 ,4.86390 ,47.72461 
37 ,6.7027 ,0.76124 ,4.86732 ,47.75819 
38 ,6.8792 ,0.76305 ,4.85364 ,47.62387 
39 ,7.0711 ,0.76500 ,4.82968 ,47.38883 
40 ,7.2473 ,0.76672 ,4.80230 ,47.12020 
41 ,7.4393 ,0.76861 ,4.79204 ,47.01946 
42 ,7.6154 ,0.77038 ,4.77493 ,46.85157 
43 ,7.7910 ,0.77210 ,4.75782 ,46.68368 
44 ,7.9672 ,0.77392 ,4.73044 ,46.41506 
45 ,8.1434 ,0.77568 ,4.72017 ,46.31432 
46 ,8.3356 ,0.77758 ,4.71333 ,46.24716 
47 ,8.5113 ,0.77927 ,4.69279 ,46.04569 
48 ,8.6874 ,0.78109 ,4.67911 ,45.91138 
49 ,8.8634 ,0.78287 ,4.65173 ,45.64275 
50 ,9.0560 ,0.78463 ,4.65857 ,45.70991 
51 ,9.2640 ,0.78685 ,4.62093 ,45.34055 
52 ,9.4561 ,0.78879 ,4.61408 ,45.27339 
53 ,9.6320 ,0.79058 ,4.59697 ,45.10550 
54 ,9.8083 ,0.79230 ,4.56960 ,44.83688 
55 ,9.9683 ,0.79397 ,4.55591 ,44.70256 
56 ,10.1284 ,0.79559 ,4.53880 ,44.53467 
57 ,10.3045 ,0.79728 ,4.51826 ,44.33320 
58 ,10.4966 ,0.79918 ,4.50800 ,44.23247 
59 ,10.6883 ,0.80106 ,4.48062 ,43.96384 
60 ,10.8642 ,0.80285 ,4.48404 ,43.99742 
61 ,11.0402 ,0.80464 ,4.46009 ,43.76237 
62 ,11.2164 ,0.80635 ,4.46009 ,43.76237 
63 ,11.3926 ,0.80816 ,4.44640 ,43.62806 
64 ,11.5849 ,0.80993 ,4.39849 ,43.15796 
65 ,11.7770 ,0.81190 ,4.40875 ,43.25870 
66 ,11.9527 ,0.81375 ,4.37111 ,42.88933 
67 ,12.1292 ,0.81547 ,4.36084 ,42.78860 
68 ,12.3212 ,0.81743 ,4.33347 ,42.51997 
69 ,12.4972 ,0.81912 ,4.34031 ,42.58713 
70 ,12.6734 ,0.82094 ,4.31636 ,42.35208 
71 ,12.8495 ,0.82275 ,4.28556 ,42.04988 
72 ,13.0412 ,0.82460 ,4.27529 ,41.94914 
73 ,13.2013 ,0.82635 ,4.26845 ,41.88198 
74 ,13.3938 ,0.82810 ,4.23422 ,41.54620 
75 ,13.5696 ,0.82993 ,4.21369 ,41.34473 
76 ,13.7618 ,0.83180 ,4.19316 ,41.14326 
77 ,13.9377 ,0.83359 ,4.19658 ,41.17684 
78 ,14.1137 ,0.83530 ,4.17262 ,40.94179 
79 ,14.2901 ,0.83710 ,4.14867 ,40.70674 
80 ,14.4821 ,0.83904 ,4.12471 ,40.47170 
81 ,14.6580 ,0.84081 ,4.11787 ,40.40454 
82 ,14.8343 ,0.84260 ,4.10076 ,40.23665 
83 ,15.0103 ,0.84429 ,4.07680 ,40.00160 
84 ,15.1861 ,0.84605 ,4.06312 ,39.86729 
85 ,15.3625 ,0.84782 ,4.05627 ,39.80013 
86 ,15.5386 ,0.84955 ,4.03232 ,39.56508 
87 ,15.7307 ,0.85152 ,4.01863 ,39.43077 
88 ,15.9063 ,0.85325 ,3.99467 ,39.19572 
89 ,16.0828 ,0.85502 ,3.99467 ,39.19572 
90 ,16.2427 ,0.85675 ,3.96387 ,38.89352 
91 ,16.4189 ,0.85834 ,3.95703 ,38.82636 
92 ,16.5949 ,0.86015 ,3.93650 ,38.62489 
93 ,16.7711 ,0.86188 ,3.91596 ,38.42342 
94 ,16.9469 ,0.86369 ,3.89543 ,38.22195 
95 ,17.1233 ,0.86538 ,3.87490 ,38.02048 
96 ,17.3313 ,0.86746 ,3.85779 ,37.85259 
97 ,17.5234 ,0.86945 ,3.83725 ,37.65112 
98 ,17.6995 ,0.87117 ,3.82699 ,37.55038 
99 ,17.8915 ,0.87311 ,3.81672 ,37.44965 
100 ,18.0676 ,0.87487 ,3.78250 ,37.11387 
101 ,18.2436 ,0.87662 ,3.76539 ,36.94597 
102 ,18.4357 ,0.87853 ,3.77223 ,37.01313 
103 ,18.6117 ,0.88026 ,3.73459 ,36.64377 
104 ,18.8038 ,0.88219 ,3.71063 ,36.40872 
105 ,18.9797 ,0.88396 ,3.72090 ,36.50946 
106 ,19.1560 ,0.88568 ,3.71063 ,36.40872 
107 ,19.3321 ,0.88746 ,3.69694 ,36.27441 
108 ,19.5243 ,0.88939 ,3.67299 ,36.03936 
109 ,19.7163 ,0.89132 ,3.66272 ,35.93863 
110 ,19.9085 ,0.89318 ,3.64903 ,35.80431 
111 ,20.0845 ,0.89501 ,3.62166 ,35.53569 
112 ,20.2764 ,0.89692 ,3.61823 ,35.50211 
113 ,20.4527 ,0.89869 ,3.58059 ,35.13275 
114 ,20.6287 ,0.90042 ,3.57717 ,35.09917 
115 ,20.8049 ,0.90221 ,3.55663 ,34.89770 
116 ,20.9805 ,0.90399 ,3.54979 ,34.83054 
117 ,21.1730 ,0.90575 ,3.53952 ,34.72981 
118 ,21.3489 ,0.90772 ,3.51215 ,34.46118 
119 ,21.5411 ,0.90959 ,3.49504 ,34.29329 
120 ,21.7172 ,0.91134 ,3.48135 ,34.15898 
121 ,21.8932 ,0.91310 ,3.48135 ,34.15898 
122 ,22.0690 ,0.91489 ,3.43686 ,33.72246 
123 ,22.2613 ,0.91682 ,3.42659 ,33.62172 
124 ,22.4530 ,0.91867 ,3.41633 ,33.52099 
125 ,22.6293 ,0.92043 ,3.38553 ,33.21878 
126 ,22.8215 ,0.92231 ,3.36842 ,33.05089 
127 ,22.9974 ,0.92413 ,3.36157 ,32.98374 
128 ,23.1736 ,0.92588 ,3.34788 ,32.84942 
129 ,23.3495 ,0.92768 ,3.32735 ,32.64795 
130 ,23.5258 ,0.92943 ,3.32051 ,32.58080 
131 ,23.7018 ,0.93115 ,3.29997 ,32.37933 
132 ,23.8941 ,0.93300 ,3.29655 ,32.34575 
133 ,24.0862 ,0.93502 ,3.24522 ,31.84207 
134 ,24.2621 ,0.93676 ,3.23153 ,31.70776 
135 ,24.4382 ,0.93855 ,3.22811 ,31.67418 
136 ,24.5983 ,0.94024 ,3.21442 ,31.53987 
137 ,24.7901 ,0.94205 ,3.20073 ,31.40555 
138 ,24.9504 ,0.94378 ,3.18020 ,31.20409 
139 ,25.1425 ,0.94553 ,3.16309 ,31.03619 
140 ,25.3186 ,0.94737 ,3.15966 ,31.00262 
141 ,25.5106 ,0.94922 ,3.12544 ,30.66683 
142 ,25.7029 ,0.95119 ,3.12544 ,30.66683 
143 ,25.8788 ,0.95296 ,3.11175 ,30.53252 
144 ,26.0709 ,0.95483 ,3.08780 ,30.29747 
145 ,26.2469 ,0.95659 ,3.05358 ,29.96169 
146 ,26.4230 ,0.95837 ,3.04673 ,29.89453 
147 ,26.5989 ,0.96015 ,3.03647 ,29.79380 
148 ,26.7751 ,0.96190 ,3.02620 ,29.69306 
149 ,26.9510 ,0.96366 ,3.00567 ,29.49159 
150 ,27.1271 ,0.96541 ,2.98513 ,29.29012 
151 ,27.3193 ,0.96725 ,2.97829 ,29.22297 
152 ,27.4958 ,0.96909 ,2.97144 ,29.15581 
153 ,27.6715 ,0.97083 ,2.94064 ,28.85360 
154 ,27.8476 ,0.97263 ,2.90985 ,28.55140 
155 ,28.0232 ,0.97443 ,2.91327 ,28.58498 
156 ,28.1997 ,0.97614 ,2.89958 ,28.45066 
157 ,28.3758 ,0.97787 ,2.88931 ,28.34993 
158 ,28.5678 ,0.97989 ,2.84825 ,27.94699 
159 ,28.7435 ,0.98166 ,2.86193 ,28.08130 
160 ,28.9199 ,0.98331 ,2.83798 ,27.84625 
161 ,29.1279 ,0.98537 ,2.81402 ,27.61121 
162 ,29.3042 ,0.98720 ,2.79007 ,27.37616 
163 ,29.4802 ,0.98888 ,2.79349 ,27.40974 
164 ,29.6563 ,0.99069 ,2.77638 ,27.24185 
165 ,29.8482 ,0.99262 ,2.74558 ,26.93964 
166 ,30.0242 ,0.99442 ,2.72163 ,26.70459 
167 ,30.2165 ,0.99631 ,2.72505 ,26.73817 
168 ,30.3925 ,0.99806 ,2.70109 ,26.50312 
169 ,30.5848 ,0.99985 ,2.67372 ,26.23450 
170 ,30.7606 ,1.00173 ,2.67029 ,26.20092 
171 ,30.9366 ,1.00350 ,2.65660 ,26.06661 
172 ,31.1288 ,1.00542 ,2.63607 ,25.86514 
173 ,31.3048 ,1.00711 ,2.61896 ,25.69724 
174 ,31.4970 ,1.00914 ,2.60869 ,25.59651 
175 ,31.6730 ,1.01086 ,2.59501 ,25.46220 
176 ,31.8492 ,1.01258 ,2.57447 ,25.26073 
177 ,32.0408 ,1.01452 ,2.56763 ,25.19357 
178 ,32.2170 ,1.01632 ,2.56078 ,25.12641 
179 ,32.4093 ,1.01818 ,2.51972 ,24.72347 
180 ,32.5854 ,1.01995 ,2.50261 ,24.55558 
181 ,32.7614 ,1.02176 ,2.51630 ,24.68989 
182 ,32.9215 ,1.02344 ,2.50261 ,24.55558 
183 ,33.0977 ,1.02508 ,2.48892 ,24.42127 
184 ,33.2898 ,1.02701 ,2.44443 ,23.98475 
185 ,33.4977 ,1.02901 ,2.43416 ,23.88402 
186 ,33.6740 ,1.03084 ,2.41705 ,23.71612 
187 ,33.8658 ,1.03277 ,2.39652 ,23.51465 
188 ,34.0582 ,1.03465 ,2.39652 ,23.51465 
189 ,34.2501 ,1.03664 ,2.35888 ,23.14529 
190 ,34.4581 ,1.03854 ,2.36230 ,23.17887 
191 ,34.6343 ,1.04045 ,2.34177 ,22.97740 
192 ,34.8264 ,1.04239 ,2.31781 ,22.74235 
193 ,35.0026 ,1.04416 ,2.31097 ,22.67520 
194 ,35.1941 ,1.04606 ,2.29043 ,22.47373 
195 ,35.3705 ,1.04778 ,2.26648 ,22.23868 
196 ,35.5626 ,1.04962 ,2.25279 ,22.10437 
197 ,35.7387 ,1.05152 ,2.24937 ,22.07079 
198 ,35.9147 ,1.05324 ,2.23226 ,21.90290 
199 ,36.0908 ,1.05501 ,2.20830 ,21.66785 
200 ,36.2669 ,1.05689 ,2.20488 ,21.63427 
201 ,36.4430 ,1.05852 ,2.18777 ,21.46638 
202 ,36.6191 ,1.06027 ,2.16723 ,21.26491 
203 ,36.8112 ,1.06215 ,2.16381 ,21.23133 
204 ,36.9872 ,1.06397 ,2.13301 ,20.92912 
205 ,37.1633 ,1.06578 ,2.11248 ,20.72766 
206 ,37.3394 ,1.06751 ,2.11248 ,20.72766 
207 ,37.5153 ,1.06929 ,2.08852 ,20.49261 
208 ,37.7075 ,1.07116 ,2.07484 ,20.35829 
209 ,37.8835 ,1.07291 ,2.07826 ,20.39187 
210 ,38.0752 ,1.07486 ,2.05430 ,20.15682 
211 ,38.2517 ,1.07658 ,2.03719 ,19.98893 
212 ,38.4435 ,1.07847 ,2.00982 ,19.72031 
213 ,38.6199 ,1.08028 ,2.02350 ,19.85462 
214 ,38.8120 ,1.08221 ,1.97902 ,19.41810 
215 ,39.0042 ,1.08414 ,1.96533 ,19.28379 
216 ,39.1801 ,1.08597 ,1.95164 ,19.14948 
217 ,39.3562 ,1.08770 ,1.95848 ,19.21663 
218 ,39.5483 ,1.08951 ,1.93795 ,19.01516 
219 ,39.7243 ,1.09135 ,1.91399 ,18.78011 
220 ,39.9165 ,1.09327 ,1.91057 ,18.74654 
221 ,40.0922 ,1.09505 ,1.89346 ,18.57864 
222 ,40.2686 ,1.09687 ,1.86266 ,18.27644 
223 ,40.4447 ,1.09855 ,1.85240 ,18.17570 
224 ,40.6209 ,1.10032 ,1.84897 ,18.14213 
225 ,40.8126 ,1.10219 ,1.82844 ,17.94066 
226 ,41.0049 ,1.10405 ,1.80791 ,17.73919 
227 ,41.2124 ,1.10612 ,1.80791 ,17.73919 
228 ,41.3891 ,1.10796 ,1.78395 ,17.50414 
229 ,41.5810 ,1.10993 ,1.76684 ,17.33625 
230 ,41.7568 ,1.11166 ,1.76684 ,17.33625 
231 ,41.9332 ,1.11340 ,1.75315 ,17.20193 
232 ,42.1251 ,1.11532 ,1.73262 ,17.00046 
233 ,42.3173 ,1.11722 ,1.72235 ,16.89973 
234 ,42.4936 ,1.11907 ,1.70182 ,16.69826 
235 ,42.6855 ,1.12086 ,1.68471 ,16.53037 
236 ,42.8615 ,1.12271 ,1.67102 ,16.39605 
237 ,43.0377 ,1.12446 ,1.66418 ,16.32890 
238 ,43.2296 ,1.12631 ,1.65391 ,16.22816 
239 ,43.4218 ,1.12837 ,1.62311 ,15.92596 
240 ,43.5980 ,1.13006 ,1.62995 ,15.99311 
241 ,43.7739 ,1.13187 ,1.59916 ,15.69091 
242 ,43.9500 ,1.13357 ,1.57862 ,15.48944 
243 ,44.1261 ,1.13538 ,1.57520 ,15.45586 
244 ,44.3181 ,1.13724 ,1.57178 ,15.42228 
245 ,44.4944 ,1.13905 ,1.54098 ,15.12008 
246 ,44.6863 ,1.14097 ,1.51360 ,14.85145 
247 ,44.8624 ,1.14267 ,1.51360 ,14.85145 
248 ,45.0385 ,1.14447 ,1.51702 ,14.88503 
249 ,45.2144 ,1.14628 ,1.49649 ,14.68356 
250 ,45.3905 ,1.14797 ,1.47596 ,14.48209 
251 ,45.5825 ,1.14991 ,1.46569 ,14.38136 
252 ,45.7746 ,1.15182 ,1.45200 ,14.24704 
253 ,45.9507 ,1.15354 ,1.43489 ,14.07915 
254 ,46.1269 ,1.15532 ,1.40751 ,13.81053 
255 ,46.3027 ,1.15711 ,1.40409 ,13.77695 
256 ,46.4787 ,1.15883 ,1.40751 ,13.81053 
257 ,46.6551 ,1.16059 ,1.37671 ,13.50832 
258 ,46.8472 ,1.16259 ,1.35276 ,13.27327 
259 ,47.0232 ,1.16427 ,1.35618 ,13.30685 
260 ,47.2154 ,1.16616 ,1.33907 ,13.13896 
261 ,47.4075 ,1.16806 ,1.33907 ,13.13896 
262 ,47.5994 ,1.17004 ,1.28774 ,12.63528 
263 ,47.7915 ,1.17195 ,1.29458 ,12.70244 
264 ,47.9677 ,1.17377 ,1.27405 ,12.50097 
265 ,48.1437 ,1.17548 ,1.27747 ,12.53455 
266 ,48.3195 ,1.17725 ,1.25694 ,12.33308 
267 ,48.4959 ,1.17900 ,1.25352 ,12.29950 
268 ,48.6877 ,1.18084 ,1.23298 ,12.09803 
269 ,48.8800 ,1.18284 ,1.23641 ,12.13161 
270 ,49.0558 ,1.18466 ,1.21245 ,11.89656 
271 ,49.2482 ,1.18651 ,1.18507 ,11.62794 
272 ,49.4240 ,1.18829 ,1.17481 ,11.52720 
273 ,49.6000 ,1.19005 ,1.17138 ,11.49362 
274 ,49.7761 ,1.19181 ,1.16454 ,11.42647 
275 ,49.9684 ,1.19367 ,1.12347 ,11.02353 
276 ,50.1605 ,1.19557 ,1.12005 ,10.98995 
277 ,50.3525 ,1.19759 ,1.10636 ,10.85563 
278 ,50.5286 ,1.19929 ,1.08241 ,10.62059 
279 ,50.7046 ,1.20107 ,1.06872 ,10.48627 
280 ,50.8970 ,1.20299 ,1.08925 ,10.68774 
281 ,51.0727 ,1.20480 ,1.05845 ,10.38554 
282 ,51.2489 ,1.20654 ,1.04476 ,10.25123 
283 ,51.4250 ,1.20831 ,1.02765 ,10.08333 
284 ,51.6013 ,1.21000 ,1.03108 ,10.11691 
285 ,51.7930 ,1.21199 ,1.01054 ,9.91544 
286 ,51.9692 ,1.21379 ,0.98659 ,9.68039 
287 ,52.1453 ,1.21550 ,0.96948 ,9.51250 
288 ,52.3212 ,1.21725 ,0.97974 ,9.61324 
289 ,52.4976 ,1.21906 ,0.96263 ,9.44535 
290 ,52.6735 ,1.22082 ,0.95921 ,9.41177 
291 ,52.8656 ,1.22273 ,0.93183 ,9.14314 
292 ,53.0256 ,1.22438 ,0.92157 ,9.04241 
293 ,53.2178 ,1.22620 ,0.91472 ,8.97525 
294 ,53.4258 ,1.22822 ,0.89077 ,8.74020 
295 ,53.6019 ,1.23009 ,0.87366 ,8.57231 
296 ,53.7775 ,1.23181 ,0.88050 ,8.63947 
297 ,53.9541 ,1.23354 ,0.85312 ,8.37084 
298 ,54.1461 ,1.23545 ,0.85997 ,8.43800 
299 ,54.3218 ,1.23723 ,0.84286 ,8.27011 
300 ,54.4984 ,1.23902 ,0.83601 ,8.20295 
301 ,54.7064 ,1.24101 ,0.80521 ,7.90074 
302 ,54.8821 ,1.24284 ,0.79152 ,7.76643 
303 ,55.0584 ,1.24461 ,0.79495 ,7.80001 
304 ,55.2503 ,1.24643 ,0.78468 ,7.69927 
305 ,55.4267 ,1.24834 ,0.74361 ,7.29633 
306 ,55.6027 ,1.25010 ,0.74704 ,7.32991 
307 ,55.7788 ,1.25182 ,0.74019 ,7.26276 
308 ,55.9547 ,1.25357 ,0.72992 ,7.16202 
309 ,56.1469 ,1.25547 ,0.69228 ,6.79266 
310 ,56.3230 ,1.25729 ,0.69913 ,6.85982 
311 ,56.4991 ,1.25905 ,0.68886 ,6.75908 
312 ,56.6751 ,1.26079 ,0.64779 ,6.35614 
313 ,56.8512 ,1.26256 ,0.65464 ,6.42330 
314 ,57.0274 ,1.26431 ,0.64779 ,6.35614 
315 ,57.2354 ,1.26630 ,0.64437 ,6.32256 
316 ,57.4115 ,1.26815 ,0.62042 ,6.08752 
317 ,57.5875 ,1.26992 ,0.59646 ,5.85247 
318 ,57.7794 ,1.27179 ,0.59988 ,5.88605 
319 ,57.9553 ,1.27357 ,0.59304 ,5.81889 
320 ,58.1158 ,1.27529 ,0.57251 ,5.61742 
321 ,58.2918 ,1.27691 ,0.56224 ,5.51668 
322 ,58.4679 ,1.27870 ,0.54513 ,5.34879 
323 ,58.6599 ,1.28059 ,0.54513 ,5.34879 
324 ,58.8357 ,1.28243 ,0.53144 ,5.21448 
325 ,58.9958 ,1.28408 ,0.49722 ,4.87870 
326 ,59.1558 ,1.28570 ,0.49722 ,4.87870 
327 ,59.3320 ,1.28733 ,0.47668 ,4.67723 
328 ,59.5242 ,1.28922 ,0.49722 ,4.87870 
329 ,59.7005 ,1.29100 ,0.47326 ,4.64365 
330 ,59.8922 ,1.29288 ,0.46642 ,4.57649 
331 ,60.0685 ,1.29467 ,0.44588 ,4.37502 
332 ,60.2447 ,1.29647 ,0.44246 ,4.34144 
333 ,60.4526 ,1.29848 ,0.40824 ,4.00566 
334 ,60.6447 ,1.30046 ,0.40824 ,4.00566 
335 ,60.8209 ,1.30224 ,0.40824 ,4.00566 
336 ,61.0130 ,1.30418 ,0.37744 ,3.70346 
337 ,61.2052 ,1.30594 ,0.36033 ,3.53557 
338 ,61.3971 ,1.30800 ,0.37060 ,3.63630 
339 ,61.5733 ,1.30976 ,0.34664 ,3.40125 
340 ,61.7491 ,1.31151 ,0.32269 ,3.16620 
341 ,61.9254 ,1.31327 ,0.33638 ,3.30052 
342 ,62.1012 ,1.31499 ,0.32611 ,3.19978 
343 ,62.2776 ,1.31676 ,0.30215 ,2.96473 
344 ,62.4695 ,1.31861 ,0.29189 ,2.86400 
345 ,62.6458 ,1.32047 ,0.27820 ,2.72969 
346 ,62.8218 ,1.32225 ,0.29531 ,2.89758 
347 ,63.0137 ,1.32406 ,0.24398 ,2.39390 
348 ,63.1896 ,1.32592 ,0.25424 ,2.49464 
349 ,63.3657 ,1.32763 ,0.24055 ,2.36032 
350 ,63.5420 ,1.32939 ,0.24398 ,2.39390 
351 ,63.7500 ,1.33146 ,0.21318 ,2.09170 
352 ,63.9582 ,1.33349 ,0.20291 ,1.99096 
353 ,64.1500 ,1.33547 ,0.18238 ,1.78949 
354 ,64.3420 ,1.33742 ,0.18580 ,1.82307 
355 ,64.5182 ,1.33917 ,0.16527 ,1.62160 
356 ,64.6944 ,1.34092 ,0.14816 ,1.45371 
357 ,64.8864 ,1.34279 ,0.14816 ,1.45371 
358 ,65.0627 ,1.34464 ,0.14816 ,1.45371 
359 ,65.2542 ,1.34650 ,0.11736 ,1.15151 
360 ,65.4307 ,1.34830 ,0.10709 ,1.05077 
361 ,65.6068 ,1.35006 ,0.10025 ,0.98361 
362 ,65.7989 ,1.35196 ,0.09340 ,0.91646 
363 ,65.9750 ,1.35373 ,0.06945 ,0.68141 
364 ,66.1510 ,1.35551 ,0.06260 ,0.61425 
365 ,66.3430 ,1.35735 ,0.06602 ,0.64783 
366 ,66.5192 ,1.35914 ,0.04549 ,0.44636 
367 ,66.7113 ,1.36114 ,0.01811 ,0.17773 
368 ,66.9033 ,1.36300 ,0.02496 ,0.24489 
369 ,67.0794 ,1.36475 ,0.00785 ,0.07700 
370 ,67.2874 ,1.36674 ,-0.00242 ,-0.02373 
371 ,67.4636 ,1.36863 ,-0.01269 ,-0.12447 
372 ,67.6396 ,1.37042 ,-0.02980 ,-0.29236 
373 ,67.8317 ,1.37229 ,-0.06060 ,-0.59457 
374 ,68.0077 ,1.37405 ,-0.05717 ,-0.56099 
375 ,68.1839 ,1.37585 ,-0.06402 ,-0.62814 
376 ,68.4078 ,1.37796 ,-0.08797 ,-0.86319 
377 ,68.5840 ,1.37981 ,-0.09140 ,-0.89677 
378 ,68.7600 ,1.38159 ,-0.08797 ,-0.86319 
379 ,68.9518 ,1.38347 ,-0.12219 ,-1.19898 
380 ,69.1280 ,1.38526 ,-0.12904 ,-1.26613 
381 ,69.2878 ,1.38698 ,-0.14957 ,-1.46760 
382 ,69.4640 ,1.38863 ,-0.14957 ,-1.46760 
383 ,69.6565 ,1.39057 ,-0.17695 ,-1.73623 
384 ,69.8322 ,1.39230 ,-0.19748 ,-1.93770 
385 ,70.0086 ,1.39406 ,-0.17695 ,-1.73623 
386 ,70.1846 ,1.39584 ,-0.20433 ,-2.00485 
387 ,70.3767 ,1.39768 ,-0.21459 ,-2.10559 
388 ,70.5527 ,1.39944 ,-0.22486 ,-2.20632 
389 ,70.7288 ,1.40127 ,-0.22486 ,-2.20632 
390 ,70.9049 ,1.40303 ,-0.24197 ,-2.37422 
391 ,71.0807 ,1.40476 ,-0.24539 ,-2.40779 
392 ,71.2567 ,1.40653 ,-0.27277 ,-2.67642 
393 ,71.4170 ,1.40825 ,-0.30015 ,-2.94505 
394 ,71.5771 ,1.40984 ,-0.30699 ,-3.01220 
395 ,71.7531 ,1.41148 ,-0.32752 ,-3.21367 
396 ,71.9294 ,1.41328 ,-0.31041 ,-3.04578 
397 ,72.1052 ,1.41508 ,-0.31041 ,-3.04578 
398 ,72.2813 ,1.41679 ,-0.32410 ,-3.18010 
399 ,72.4574 ,1.41867 ,-0.35148 ,-3.44872 
400 ,72.6173 ,1.42027 ,-0.36859 ,-3.61661 
401 ,72.7938 ,1.42192 ,-0.37886 ,-3.71735 
402 ,72.9696 ,1.42367 ,-0.39255 ,-3.85166 
403 ,73.1457 ,1.42542 ,-0.38570 ,-3.78450 
404 ,73.3217 ,1.42715 ,-0.39939 ,-3.91882 
405 ,73.4979 ,1.42894 ,-0.40966 ,-4.01955 
406 ,73.6579 ,1.43065 ,-0.43703 ,-4.28818 
407 ,73.8499 ,1.43241 ,-0.43703 ,-4.28818 
408 ,74.0261 ,1.43422 ,-0.43361 ,-4.25460 
409 ,74.2181 ,1.43616 ,-0.47468 ,-4.65754 
410 ,74.3943 ,1.43792 ,-0.48494 ,-4.75828 
411 ,74.5703 ,1.43967 ,-0.48494 ,-4.75828 
412 ,74.7945 ,1.44179 ,-0.49179 ,-4.82543 
413 ,74.9864 ,1.44384 ,-0.50206 ,-4.92617 
414 ,75.1465 ,1.44552 ,-0.50890 ,-4.99332 
415 ,75.3225 ,1.44716 ,-0.52601 ,-5.16121 
416 ,75.5147 ,1.44910 ,-0.54654 ,-5.36268 
417 ,75.6903 ,1.45085 ,-0.55339 ,-5.42984 
418 ,75.8669 ,1.45260 ,-0.56023 ,-5.49700 
419 ,76.0429 ,1.45442 ,-0.55681 ,-5.46342 
420 ,76.2190 ,1.45610 ,-0.59788 ,-5.86636 
421 ,76.3950 ,1.45792 ,-0.59445 ,-5.83278 
422 ,76.5711 ,1.45964 ,-0.59788 ,-5.86636 
423 ,76.7467 ,1.46140 ,-0.61841 ,-6.06783 
424 ,76.9233 ,1.46314 ,-0.62868 ,-6.16856 
425 ,77.1154 ,1.46512 ,-0.64579 ,-6.33646 
426 ,77.3075 ,1.46697 ,-0.64236 ,-6.30288 
427 ,77.4997 ,1.46895 ,-0.66632 ,-6.53793 
428 ,77.6917 ,1.47091 ,-0.66974 ,-6.57150 
429 ,77.8677 ,1.47264 ,-0.68343 ,-6.70582 
430 ,78.0758 ,1.47464 ,-0.69712 ,-6.84013 
431 ,78.2519 ,1.47649 ,-0.71081 ,-6.97444 
432 ,78.4439 ,1.47831 ,-0.71423 ,-7.00802 
433 ,78.6359 ,1.48028 ,-0.73134 ,-7.17591 
434 ,78.8116 ,1.48207 ,-0.74503 ,-7.31023 
435 ,78.9881 ,1.48385 ,-0.74845 ,-7.34380 
436 ,79.1799 ,1.48573 ,-0.77583 ,-7.61243 
437 ,79.3723 ,1.48763 ,-0.77241 ,-7.57885 
438 ,79.5483 ,1.48945 ,-0.77925 ,-7.64601 
439 ,79.7244 ,1.49120 ,-0.79294 ,-7.78032 
440 ,79.9005 ,1.49296 ,-0.80663 ,-7.91464 
441 ,80.0766 ,1.49471 ,-0.82374 ,-8.08253 
442 ,80.2526 ,1.49647 ,-0.80663 ,-7.91464 
443 ,80.4288 ,1.49824 ,-0.81689 ,-8.01537 
444 ,80.6048 ,1.49999 ,-0.81689 ,-8.01537 
445 ,80.7969 ,1.50184 ,-0.85112 ,-8.35115 
446 ,80.9729 ,1.50366 ,-0.86138 ,-8.45189 
447 ,81.1650 ,1.50555 ,-0.84769 ,-8.31758 
448 ,81.3412 ,1.50735 ,-0.86823 ,-8.51904 
449 ,81.5173 ,1.50911 ,-0.87849 ,-8.61978 
450 ,81.6933 ,1.51087 ,-0.88876 ,-8.72051 
451 ,81.8850 ,1.51278 ,-0.88876 ,-8.72051 
452 ,82.0615 ,1.51453 ,-0.91614 ,-8.98914 
453 ,82.2854 ,1.51666 ,-0.91614 ,-8.98914 
454 ,82.4936 ,1.51882 ,-0.94009 ,-9.22419 
455 ,82.6858 ,1.52076 ,-0.92983 ,-9.12345 
456 ,82.8617 ,1.52258 ,-0.94694 ,-9.29135 
457 ,83.0534 ,1.52443 ,-0.96063 ,-9.42566 
458 ,83.2298 ,1.52618 ,-0.95720 ,-9.39208 
459 ,83.4061 ,1.52797 ,-0.96063 ,-9.42566 
460 ,83.5821 ,1.52978 ,-0.97431 ,-9.55997 
461 ,83.7580 ,1.53151 ,-1.00511 ,-9.86218 
462 ,83.9498 ,1.53338 ,-0.99827 ,-9.79502 
463 ,84.1099 ,1.53511 ,-1.00511 ,-9.86218 
