Data stamp = , 28-03-2022 20:31:43 678

Calibration Values: 
Slope = , 26.54 , g/V 
Offset Voltage at no contact = , -0.501760 , V 

No , Time , Stage Position ,   Mass , Force 
   ,  (s) ,      (mm)      ,   (g)  , (mN)  

1 ,0.0000 ,0.69948 ,5.20612 ,51.08244 
2 ,0.2190 ,0.69954 ,5.21639 ,51.18317 
3 ,0.4592 ,0.70018 ,5.19927 ,51.01528 
4 ,0.6351 ,0.70119 ,5.20612 ,51.08244 
5 ,0.8273 ,0.70263 ,5.20270 ,51.04886 
6 ,1.0032 ,0.70420 ,5.20954 ,51.11602 
7 ,1.1955 ,0.70600 ,5.22323 ,51.25033 
8 ,1.3875 ,0.70801 ,5.21296 ,51.14960 
9 ,1.5634 ,0.70989 ,5.18901 ,50.91455 
10 ,1.7555 ,0.71174 ,5.19927 ,51.01528 
11 ,1.9479 ,0.71362 ,5.17532 ,50.78023 
12 ,2.1239 ,0.71549 ,5.15479 ,50.57876 
13 ,2.2999 ,0.71728 ,5.16163 ,50.64592 
14 ,2.4759 ,0.71898 ,5.16163 ,50.64592 
15 ,2.6681 ,0.72086 ,5.13083 ,50.34372 
16 ,2.8443 ,0.72264 ,5.12741 ,50.31014 
17 ,3.0203 ,0.72441 ,5.12056 ,50.24298 
18 ,3.2122 ,0.72630 ,5.10345 ,50.07509 
19 ,3.3882 ,0.72805 ,5.07608 ,49.80646 
20 ,3.5803 ,0.73005 ,5.09319 ,49.97436 
21 ,3.7567 ,0.73172 ,5.06581 ,49.70573 
22 ,3.9329 ,0.73357 ,5.05554 ,49.60499 
23 ,4.0924 ,0.73526 ,5.03159 ,49.36995 
24 ,4.2685 ,0.73685 ,5.03159 ,49.36995 
25 ,4.4448 ,0.73865 ,5.01790 ,49.23563 
26 ,4.6208 ,0.74038 ,5.02474 ,49.30279 
27 ,4.7970 ,0.74217 ,5.01790 ,49.23563 
28 ,4.9888 ,0.74405 ,4.98710 ,48.93343 
29 ,5.1811 ,0.74602 ,4.98026 ,48.86627 
30 ,5.3573 ,0.74780 ,4.97683 ,48.83269 
31 ,5.5334 ,0.74958 ,4.97341 ,48.79911 
32 ,5.7254 ,0.75150 ,4.92892 ,48.36260 
33 ,5.9174 ,0.75341 ,4.93235 ,48.39618 
34 ,6.1095 ,0.75528 ,4.89812 ,48.06039 
35 ,6.2855 ,0.75701 ,4.87759 ,47.85892 
36 ,6.4617 ,0.75882 ,4.88786 ,47.95966 
37 ,6.6534 ,0.76074 ,4.86390 ,47.72461 
38 ,6.8297 ,0.76253 ,4.83995 ,47.48956 
39 ,7.0061 ,0.76423 ,4.82626 ,47.35525 
40 ,7.1815 ,0.76600 ,4.81941 ,47.28809 
41 ,7.3416 ,0.76772 ,4.80915 ,47.18736 
42 ,7.5017 ,0.76933 ,4.80230 ,47.12020 
43 ,7.6940 ,0.77113 ,4.77835 ,46.88515 
44 ,7.8862 ,0.77301 ,4.74755 ,46.58295 
45 ,8.0623 ,0.77478 ,4.74755 ,46.58295 
46 ,8.2384 ,0.77659 ,4.74413 ,46.54937 
47 ,8.4300 ,0.77845 ,4.73044 ,46.41506 
48 ,8.6066 ,0.78026 ,4.69279 ,46.04569 
49 ,8.7823 ,0.78207 ,4.68253 ,45.94496 
50 ,8.9587 ,0.78379 ,4.68937 ,46.01212 
51 ,9.1504 ,0.78567 ,4.64488 ,45.57560 
52 ,9.3269 ,0.78746 ,4.64146 ,45.54202 
53 ,9.4868 ,0.78916 ,4.63462 ,45.47486 
54 ,9.6630 ,0.79086 ,4.60382 ,45.17266 
55 ,9.8387 ,0.79260 ,4.60040 ,45.13908 
56 ,10.0152 ,0.79434 ,4.58671 ,45.00477 
57 ,10.2072 ,0.79625 ,4.56275 ,44.76972 
58 ,10.3833 ,0.79804 ,4.54222 ,44.56825 
59 ,10.5594 ,0.79976 ,4.55249 ,44.66898 
60 ,10.7356 ,0.80155 ,4.53537 ,44.50109 
61 ,10.9114 ,0.80326 ,4.50800 ,44.23247 
62 ,11.0873 ,0.80508 ,4.49431 ,44.09815 
63 ,11.2797 ,0.80693 ,4.49089 ,44.06457 
64 ,11.4396 ,0.80870 ,4.46693 ,43.82953 
65 ,11.6159 ,0.81034 ,4.45666 ,43.72879 
66 ,11.7919 ,0.81212 ,4.43613 ,43.52732 
67 ,11.9839 ,0.81403 ,4.41218 ,43.29227 
68 ,12.1760 ,0.81591 ,4.40533 ,43.22512 
69 ,12.3524 ,0.81770 ,4.37111 ,42.88933 
70 ,12.5442 ,0.81960 ,4.35400 ,42.72144 
71 ,12.7204 ,0.82135 ,4.33347 ,42.51997 
72 ,12.8962 ,0.82315 ,4.33004 ,42.48639 
73 ,13.0882 ,0.82498 ,4.29240 ,42.11703 
74 ,13.2805 ,0.82697 ,4.27871 ,41.98272 
75 ,13.4727 ,0.82888 ,4.27529 ,41.94914 
76 ,13.6488 ,0.83070 ,4.26502 ,41.84841 
77 ,13.8568 ,0.83264 ,4.24449 ,41.64694 
78 ,14.0489 ,0.83463 ,4.21369 ,41.34473 
79 ,14.2410 ,0.83648 ,4.18289 ,41.04253 
80 ,14.4331 ,0.83850 ,4.18631 ,41.07611 
81 ,14.6092 ,0.84024 ,4.13840 ,40.60601 
82 ,14.8012 ,0.84219 ,4.13840 ,40.60601 
83 ,15.0089 ,0.84419 ,4.11445 ,40.37096 
84 ,15.1854 ,0.84601 ,4.09734 ,40.20307 
85 ,15.3771 ,0.84793 ,4.09391 ,40.16949 
86 ,15.5535 ,0.84970 ,4.07338 ,39.96802 
87 ,15.7455 ,0.85164 ,4.03916 ,39.63224 
88 ,15.9217 ,0.85340 ,4.04258 ,39.66582 
89 ,16.0977 ,0.85521 ,4.01863 ,39.43077 
90 ,16.2735 ,0.85688 ,4.02205 ,39.46435 
91 ,16.4498 ,0.85863 ,3.97414 ,38.99425 
92 ,16.6580 ,0.86058 ,3.97414 ,38.99425 
93 ,16.8499 ,0.86267 ,3.94676 ,38.72562 
94 ,17.0261 ,0.86442 ,3.92623 ,38.52415 
95 ,17.2021 ,0.86618 ,3.90912 ,38.35626 
96 ,17.3941 ,0.86805 ,3.91596 ,38.42342 
97 ,17.5704 ,0.86985 ,3.89201 ,38.18837 
98 ,17.7464 ,0.87162 ,3.85779 ,37.85259 
99 ,17.9226 ,0.87340 ,3.84752 ,37.75185 
100 ,18.0985 ,0.87516 ,3.85094 ,37.78543 
101 ,18.2908 ,0.87700 ,3.82014 ,37.48323 
102 ,18.4828 ,0.87898 ,3.79276 ,37.21460 
103 ,18.6589 ,0.88074 ,3.80303 ,37.31534 
104 ,18.8348 ,0.88251 ,3.79276 ,37.21460 
105 ,19.0269 ,0.88431 ,3.76539 ,36.94597 
106 ,19.2031 ,0.88615 ,3.74143 ,36.71093 
107 ,19.3791 ,0.88794 ,3.72774 ,36.57661 
108 ,19.5552 ,0.88966 ,3.72090 ,36.50946 
109 ,19.7312 ,0.89150 ,3.70379 ,36.34157 
110 ,19.9073 ,0.89318 ,3.66957 ,36.00578 
111 ,20.0995 ,0.89516 ,3.68668 ,36.17367 
112 ,20.2915 ,0.89707 ,3.65588 ,35.87147 
113 ,20.4836 ,0.89904 ,3.63192 ,35.63642 
114 ,20.6596 ,0.90073 ,3.62508 ,35.56926 
115 ,20.8358 ,0.90249 ,3.61823 ,35.50211 
116 ,21.0596 ,0.90460 ,3.59428 ,35.26706 
117 ,21.2357 ,0.90647 ,3.57717 ,35.09917 
118 ,21.4120 ,0.90828 ,3.55321 ,34.86412 
119 ,21.6039 ,0.91017 ,3.52584 ,34.59549 
120 ,21.7802 ,0.91196 ,3.52926 ,34.62907 
121 ,21.9722 ,0.91381 ,3.49504 ,34.29329 
122 ,22.1323 ,0.91553 ,3.48477 ,34.19255 
123 ,22.3083 ,0.91720 ,3.47108 ,34.05824 
124 ,22.4840 ,0.91895 ,3.44370 ,33.78961 
125 ,22.6604 ,0.92075 ,3.43344 ,33.68888 
126 ,22.8366 ,0.92249 ,3.44028 ,33.75604 
127 ,23.0123 ,0.92431 ,3.42659 ,33.62172 
128 ,23.2046 ,0.92612 ,3.38210 ,33.18520 
129 ,23.3806 ,0.92794 ,3.37526 ,33.11805 
130 ,23.5409 ,0.92960 ,3.36157 ,32.98374 
131 ,23.7170 ,0.93131 ,3.35130 ,32.88300 
132 ,23.8926 ,0.93307 ,3.34446 ,32.81584 
133 ,24.0691 ,0.93483 ,3.31024 ,32.48006 
134 ,24.2611 ,0.93667 ,3.28971 ,32.27859 
135 ,24.4374 ,0.93852 ,3.28971 ,32.27859 
136 ,24.6454 ,0.94049 ,3.27259 ,32.11070 
137 ,24.8214 ,0.94234 ,3.24522 ,31.84207 
138 ,25.0133 ,0.94423 ,3.23837 ,31.77492 
139 ,25.1896 ,0.94601 ,3.22126 ,31.60702 
140 ,25.3816 ,0.94792 ,3.19731 ,31.37198 
141 ,25.5577 ,0.94973 ,3.18020 ,31.20409 
142 ,25.7497 ,0.95161 ,3.16309 ,31.03619 
143 ,25.9259 ,0.95339 ,3.13913 ,30.80115 
144 ,26.1176 ,0.95533 ,3.13229 ,30.73399 
145 ,26.2940 ,0.95703 ,3.11860 ,30.59968 
146 ,26.4696 ,0.95881 ,3.10833 ,30.49894 
147 ,26.6463 ,0.96062 ,3.07411 ,30.16316 
148 ,26.8220 ,0.96234 ,3.04673 ,29.89453 
149 ,27.0142 ,0.96425 ,3.05700 ,29.99527 
150 ,27.1902 ,0.96600 ,3.03304 ,29.76022 
151 ,27.3664 ,0.96773 ,3.00909 ,29.52517 
152 ,27.5423 ,0.96960 ,2.99882 ,29.42444 
153 ,27.7182 ,0.97127 ,2.99198 ,29.35728 
154 ,27.8946 ,0.97304 ,2.98513 ,29.29012 
155 ,28.0708 ,0.97483 ,2.95091 ,28.95434 
156 ,28.2627 ,0.97674 ,2.93038 ,28.75287 
157 ,28.4386 ,0.97850 ,2.92353 ,28.68571 
158 ,28.6147 ,0.98022 ,2.89958 ,28.45066 
159 ,28.7908 ,0.98201 ,2.89273 ,28.38351 
160 ,28.9669 ,0.98382 ,2.87562 ,28.21562 
161 ,29.1429 ,0.98556 ,2.86193 ,28.08130 
162 ,29.3192 ,0.98732 ,2.83798 ,27.84625 
163 ,29.5112 ,0.98923 ,2.83114 ,27.77910 
164 ,29.6712 ,0.99095 ,2.80376 ,27.51047 
165 ,29.8474 ,0.99257 ,2.78665 ,27.34258 
166 ,30.0235 ,0.99436 ,2.76611 ,27.14111 
167 ,30.2154 ,0.99627 ,2.78665 ,27.34258 
168 ,30.3917 ,0.99805 ,2.76269 ,27.10753 
169 ,30.5836 ,0.99994 ,2.72847 ,26.77175 
170 ,30.7598 ,1.00173 ,2.70794 ,26.57028 
171 ,30.9678 ,1.00370 ,2.69425 ,26.43597 
172 ,31.1439 ,1.00555 ,2.68398 ,26.33523 
173 ,31.3200 ,1.00733 ,2.65660 ,26.06661 
174 ,31.4959 ,1.00915 ,2.64976 ,25.99945 
175 ,31.6719 ,1.01084 ,2.64976 ,25.99945 
176 ,31.8481 ,1.01267 ,2.59843 ,25.49577 
177 ,32.0242 ,1.01433 ,2.59843 ,25.49577 
178 ,32.2003 ,1.01605 ,2.60185 ,25.52935 
179 ,32.3923 ,1.01797 ,2.57105 ,25.22715 
180 ,32.5682 ,1.01972 ,2.55736 ,25.09283 
181 ,32.7443 ,1.02151 ,2.54025 ,24.92494 
182 ,32.9207 ,1.02328 ,2.52314 ,24.75705 
183 ,33.1287 ,1.02529 ,2.50945 ,24.62274 
184 ,33.3048 ,1.02714 ,2.48892 ,24.42127 
185 ,33.4808 ,1.02892 ,2.47865 ,24.32053 
186 ,33.6570 ,1.03067 ,2.45812 ,24.11906 
187 ,33.8331 ,1.03247 ,2.46154 ,24.15264 
188 ,34.0250 ,1.03435 ,2.43416 ,23.88402 
189 ,34.2008 ,1.03612 ,2.42732 ,23.81686 
190 ,34.3932 ,1.03798 ,2.41363 ,23.68255 
191 ,34.5692 ,1.03979 ,2.39994 ,23.54823 
192 ,34.7456 ,1.04155 ,2.35888 ,23.14529 
193 ,34.9213 ,1.04329 ,2.35545 ,23.11171 
194 ,35.0975 ,1.04508 ,2.34519 ,23.01098 
195 ,35.2736 ,1.04680 ,2.33834 ,22.94382 
196 ,35.4656 ,1.04870 ,2.31439 ,22.70877 
197 ,35.6577 ,1.05052 ,2.29728 ,22.54088 
198 ,35.8495 ,1.05253 ,2.29043 ,22.47373 
199 ,36.0259 ,1.05432 ,2.25279 ,22.10437 
200 ,36.2019 ,1.05607 ,2.23910 ,21.97005 
201 ,36.3781 ,1.05788 ,2.24937 ,22.07079 
202 ,36.5538 ,1.05964 ,2.22199 ,21.80216 
203 ,36.7303 ,1.06138 ,2.21857 ,21.76858 
204 ,36.9062 ,1.06316 ,2.19803 ,21.56711 
205 ,37.0984 ,1.06509 ,2.18777 ,21.46638 
206 ,37.2903 ,1.06695 ,2.15355 ,21.13059 
207 ,37.4825 ,1.06887 ,2.13986 ,20.99628 
208 ,37.6426 ,1.07060 ,2.13986 ,20.99628 
209 ,37.8506 ,1.07243 ,2.13644 ,20.96270 
210 ,38.0265 ,1.07432 ,2.11590 ,20.76123 
211 ,38.2027 ,1.07624 ,2.09537 ,20.55976 
212 ,38.3949 ,1.07801 ,2.06799 ,20.29114 
213 ,38.5710 ,1.07974 ,2.06115 ,20.22398 
214 ,38.7469 ,1.08155 ,2.04061 ,20.02251 
215 ,38.9232 ,1.08333 ,2.01666 ,19.78746 
216 ,39.1310 ,1.08525 ,2.01666 ,19.78746 
217 ,39.3234 ,1.08722 ,1.99955 ,19.61957 
218 ,39.4993 ,1.08904 ,1.97217 ,19.35094 
219 ,39.6754 ,1.09082 ,1.95848 ,19.21663 
220 ,39.8674 ,1.09272 ,1.94479 ,19.08232 
221 ,40.0275 ,1.09442 ,1.93795 ,19.01516 
222 ,40.2034 ,1.09610 ,1.91399 ,18.78011 
223 ,40.3792 ,1.09785 ,1.89346 ,18.57864 
224 ,40.5558 ,1.09962 ,1.90031 ,18.64580 
225 ,40.7318 ,1.10139 ,1.89004 ,18.54507 
226 ,40.9240 ,1.10328 ,1.85582 ,18.20928 
227 ,41.0999 ,1.10505 ,1.84555 ,18.10855 
228 ,41.2920 ,1.10690 ,1.83871 ,18.04139 
229 ,41.4841 ,1.10888 ,1.81475 ,17.80634 
230 ,41.6602 ,1.11069 ,1.80106 ,17.67203 
231 ,41.8362 ,1.11244 ,1.79080 ,17.57129 
232 ,42.0125 ,1.11417 ,1.77369 ,17.40340 
233 ,42.2043 ,1.11608 ,1.74973 ,17.16836 
234 ,42.3805 ,1.11787 ,1.73604 ,17.03404 
235 ,42.5566 ,1.11965 ,1.73604 ,17.03404 
236 ,42.7487 ,1.12146 ,1.70866 ,16.76542 
237 ,42.9247 ,1.12337 ,1.70182 ,16.69826 
238 ,43.1163 ,1.12520 ,1.68813 ,16.56395 
239 ,43.3089 ,1.12708 ,1.67102 ,16.39605 
240 ,43.4847 ,1.12892 ,1.64364 ,16.12743 
241 ,43.6610 ,1.13064 ,1.63338 ,16.02669 
242 ,43.8527 ,1.13258 ,1.63680 ,16.06027 
243 ,44.0292 ,1.13433 ,1.61284 ,15.82522 
244 ,44.2211 ,1.13627 ,1.58889 ,15.59018 
245 ,44.3972 ,1.13799 ,1.60258 ,15.72449 
246 ,44.5891 ,1.13991 ,1.58547 ,15.55660 
247 ,44.7655 ,1.14167 ,1.54440 ,15.15366 
248 ,44.9419 ,1.14350 ,1.53413 ,15.05292 
249 ,45.1175 ,1.14523 ,1.52045 ,14.91861 
250 ,45.3097 ,1.14714 ,1.50333 ,14.75072 
251 ,45.4858 ,1.14890 ,1.49649 ,14.68356 
252 ,45.6940 ,1.15089 ,1.48622 ,14.58283 
253 ,45.9020 ,1.15293 ,1.47596 ,14.48209 
254 ,46.0780 ,1.15482 ,1.45542 ,14.28062 
255 ,46.2377 ,1.15651 ,1.44516 ,14.17989 
256 ,46.4142 ,1.15816 ,1.43147 ,14.04557 
257 ,46.5901 ,1.15994 ,1.42120 ,13.94484 
258 ,46.7824 ,1.16185 ,1.38356 ,13.57548 
259 ,46.9586 ,1.16365 ,1.38014 ,13.54190 
260 ,47.1344 ,1.16542 ,1.36987 ,13.44116 
261 ,47.3104 ,1.16711 ,1.36303 ,13.37401 
262 ,47.4867 ,1.16890 ,1.33907 ,13.13896 
263 ,47.6625 ,1.17067 ,1.32196 ,12.97107 
264 ,47.8707 ,1.17272 ,1.32880 ,13.03822 
265 ,48.0470 ,1.17456 ,1.30485 ,12.80318 
266 ,48.2229 ,1.17625 ,1.28774 ,12.63528 
267 ,48.3992 ,1.17806 ,1.27747 ,12.53455 
268 ,48.5910 ,1.17991 ,1.26720 ,12.43381 
269 ,48.7671 ,1.18167 ,1.24667 ,12.23235 
270 ,48.9434 ,1.18342 ,1.23298 ,12.09803 
271 ,49.1194 ,1.18523 ,1.22272 ,11.99730 
272 ,49.2954 ,1.18708 ,1.21245 ,11.89656 
273 ,49.4715 ,1.18875 ,1.20903 ,11.86298 
274 ,49.6472 ,1.19046 ,1.17481 ,11.52720 
275 ,49.8236 ,1.19225 ,1.16112 ,11.39289 
276 ,49.9997 ,1.19403 ,1.15085 ,11.29215 
277 ,50.1754 ,1.19584 ,1.14401 ,11.22500 
278 ,50.3519 ,1.19759 ,1.14401 ,11.22500 
279 ,50.5440 ,1.19941 ,1.10979 ,10.88921 
280 ,50.7200 ,1.20122 ,1.11663 ,10.95637 
281 ,50.8961 ,1.20298 ,1.09952 ,10.78848 
282 ,51.0722 ,1.20470 ,1.08925 ,10.68774 
283 ,51.2642 ,1.20668 ,1.04476 ,10.25123 
284 ,51.4399 ,1.20840 ,1.05845 ,10.38554 
285 ,51.6164 ,1.21017 ,1.04819 ,10.28480 
286 ,51.7925 ,1.21193 ,1.04819 ,10.28480 
287 ,51.9845 ,1.21384 ,1.01396 ,9.94902 
288 ,52.1602 ,1.21560 ,1.00712 ,9.88186 
289 ,52.3367 ,1.21739 ,1.00028 ,9.81471 
290 ,52.4967 ,1.21910 ,0.99685 ,9.78113 
291 ,52.6728 ,1.22070 ,0.96948 ,9.51250 
292 ,52.8649 ,1.22264 ,0.93525 ,9.17672 
293 ,53.0409 ,1.22454 ,0.95921 ,9.41177 
294 ,53.2010 ,1.22611 ,0.93183 ,9.14314 
295 ,53.3771 ,1.22779 ,0.92841 ,9.10956 
296 ,53.5532 ,1.22957 ,0.91130 ,8.94167 
297 ,53.7451 ,1.23146 ,0.88734 ,8.70662 
298 ,53.9214 ,1.23319 ,0.87366 ,8.57231 
299 ,54.1134 ,1.23521 ,0.88734 ,8.70662 
300 ,54.2891 ,1.23690 ,0.85997 ,8.43800 
301 ,54.4653 ,1.23865 ,0.82917 ,8.13579 
302 ,54.6576 ,1.24063 ,0.83943 ,8.23653 
303 ,54.8497 ,1.24251 ,0.82232 ,8.06864 
304 ,55.0257 ,1.24429 ,0.80179 ,7.86717 
305 ,55.2019 ,1.24598 ,0.79837 ,7.83359 
306 ,55.3779 ,1.24780 ,0.78810 ,7.73285 
307 ,55.5538 ,1.24955 ,0.77099 ,7.56496 
308 ,55.7300 ,1.25133 ,0.75730 ,7.43065 
309 ,55.9221 ,1.25322 ,0.72308 ,7.09486 
310 ,56.0982 ,1.25498 ,0.72992 ,7.16202 
311 ,56.2741 ,1.25678 ,0.72650 ,7.12844 
312 ,56.4503 ,1.25850 ,0.70939 ,6.96055 
313 ,56.6421 ,1.26038 ,0.68886 ,6.75908 
314 ,56.8183 ,1.26219 ,0.67517 ,6.62477 
315 ,57.0106 ,1.26408 ,0.67175 ,6.59119 
316 ,57.2023 ,1.26599 ,0.65464 ,6.42330 
317 ,57.3787 ,1.26777 ,0.65464 ,6.42330 
318 ,57.5707 ,1.26965 ,0.63410 ,6.22183 
319 ,57.7469 ,1.27148 ,0.61357 ,6.02036 
320 ,57.9391 ,1.27336 ,0.62384 ,6.12109 
321 ,58.1308 ,1.27529 ,0.58962 ,5.78531 
322 ,58.3070 ,1.27711 ,0.59304 ,5.81889 
323 ,58.4990 ,1.27901 ,0.56224 ,5.51668 
324 ,58.6912 ,1.28087 ,0.56908 ,5.58384 
325 ,58.8672 ,1.28268 ,0.54171 ,5.31522 
326 ,59.0594 ,1.28456 ,0.54513 ,5.34879 
327 ,59.2194 ,1.28629 ,0.52802 ,5.18090 
328 ,59.3795 ,1.28790 ,0.52117 ,5.11375 
329 ,59.5713 ,1.28966 ,0.50748 ,4.97943 
330 ,59.7477 ,1.29144 ,0.48011 ,4.71081 
331 ,59.9400 ,1.29338 ,0.48011 ,4.71081 
332 ,60.1319 ,1.29530 ,0.46642 ,4.57649 
333 ,60.3079 ,1.29709 ,0.45615 ,4.47576 
334 ,60.4680 ,1.29878 ,0.43220 ,4.24071 
335 ,60.6279 ,1.30037 ,0.41509 ,4.07282 
336 ,60.8040 ,1.30203 ,0.40824 ,4.00566 
337 ,60.9961 ,1.30392 ,0.40824 ,4.00566 
338 ,61.1882 ,1.30585 ,0.39797 ,3.90493 
339 ,61.3641 ,1.30763 ,0.37402 ,3.66988 
340 ,61.5563 ,1.30957 ,0.38086 ,3.73703 
341 ,61.7485 ,1.31144 ,0.35006 ,3.43483 
342 ,61.9245 ,1.31320 ,0.34322 ,3.36767 
343 ,62.1006 ,1.31498 ,0.33295 ,3.26694 
344 ,62.2767 ,1.31670 ,0.32953 ,3.23336 
345 ,62.4528 ,1.31852 ,0.32269 ,3.16620 
346 ,62.6286 ,1.32027 ,0.29531 ,2.89758 
347 ,62.8048 ,1.32202 ,0.27820 ,2.72969 
348 ,62.9968 ,1.32396 ,0.29189 ,2.86400 
349 ,63.1732 ,1.32573 ,0.25082 ,2.46106 
350 ,63.3651 ,1.32756 ,0.24740 ,2.42748 
351 ,63.5412 ,1.32947 ,0.24055 ,2.36032 
352 ,63.7172 ,1.33113 ,0.22344 ,2.19243 
353 ,63.8934 ,1.33301 ,0.19264 ,1.89023 
354 ,64.0855 ,1.33479 ,0.19607 ,1.92381 
355 ,64.2614 ,1.33662 ,0.18922 ,1.85665 
356 ,64.4535 ,1.33850 ,0.18922 ,1.85665 
357 ,64.6454 ,1.34038 ,0.16869 ,1.65518 
358 ,64.8219 ,1.34219 ,0.16185 ,1.58802 
359 ,65.0136 ,1.34413 ,0.15158 ,1.48729 
360 ,65.1898 ,1.34588 ,0.12420 ,1.21866 
361 ,65.3821 ,1.34777 ,0.11393 ,1.11793 
362 ,65.5579 ,1.34951 ,0.10709 ,1.05077 
363 ,65.7341 ,1.35133 ,0.10367 ,1.01719 
364 ,65.9263 ,1.35321 ,0.07971 ,0.78214 
365 ,66.1184 ,1.35510 ,0.07287 ,0.71499 
366 ,66.2944 ,1.35707 ,0.05918 ,0.58067 
367 ,66.4704 ,1.35862 ,0.04891 ,0.47994 
368 ,66.6466 ,1.36040 ,0.02496 ,0.24489 
369 ,66.8388 ,1.36232 ,0.02838 ,0.27847 
370 ,67.0144 ,1.36411 ,0.02838 ,0.27847 
371 ,67.1909 ,1.36588 ,0.00785 ,0.07700 
372 ,67.3829 ,1.36780 ,0.00785 ,0.07700 
373 ,67.5746 ,1.36968 ,-0.01269 ,-0.12447 
374 ,67.7346 ,1.37143 ,-0.04006 ,-0.39310 
375 ,67.8947 ,1.37302 ,-0.03322 ,-0.32594 
376 ,68.0709 ,1.37464 ,-0.03664 ,-0.35952 
377 ,68.2792 ,1.37681 ,-0.04348 ,-0.42667 
378 ,68.4713 ,1.37861 ,-0.06744 ,-0.66172 
379 ,68.6634 ,1.38057 ,-0.07428 ,-0.72888 
380 ,68.8555 ,1.38251 ,-0.07771 ,-0.76246 
381 ,69.0315 ,1.38424 ,-0.09140 ,-0.89677 
382 ,69.1913 ,1.38598 ,-0.11535 ,-1.13182 
383 ,69.3675 ,1.38767 ,-0.11877 ,-1.16540 
384 ,69.5598 ,1.38949 ,-0.12219 ,-1.19898 
385 ,69.7520 ,1.39144 ,-0.13588 ,-1.33329 
386 ,69.9279 ,1.39323 ,-0.15984 ,-1.56834 
387 ,70.1200 ,1.39513 ,-0.15299 ,-1.50118 
388 ,70.2960 ,1.39692 ,-0.17011 ,-1.66907 
389 ,70.4880 ,1.39883 ,-0.19064 ,-1.87054 
390 ,70.6642 ,1.40064 ,-0.19064 ,-1.87054 
391 ,70.8402 ,1.40234 ,-0.20090 ,-1.97128 
392 ,71.0325 ,1.40417 ,-0.20433 ,-2.00485 
393 ,71.2244 ,1.40621 ,-0.23855 ,-2.34064 
394 ,71.4163 ,1.40810 ,-0.23855 ,-2.34064 
395 ,71.6083 ,1.40998 ,-0.26935 ,-2.64284 
396 ,71.8006 ,1.41193 ,-0.26250 ,-2.57569 
397 ,71.9767 ,1.41380 ,-0.29330 ,-2.87789 
398 ,72.1528 ,1.41549 ,-0.31041 ,-3.04578 
399 ,72.3285 ,1.41725 ,-0.31384 ,-3.07936 
400 ,72.4890 ,1.41893 ,-0.30699 ,-3.01220 
401 ,72.6809 ,1.42071 ,-0.32752 ,-3.21367 
402 ,72.8728 ,1.42263 ,-0.34806 ,-3.41514 
403 ,73.0652 ,1.42454 ,-0.35832 ,-3.51588 
404 ,73.2413 ,1.42634 ,-0.35490 ,-3.48230 
405 ,73.4332 ,1.42826 ,-0.37886 ,-3.71735 
406 ,73.6094 ,1.43002 ,-0.39939 ,-3.91882 
407 ,73.7856 ,1.43180 ,-0.38912 ,-3.81808 
408 ,74.0094 ,1.43389 ,-0.41650 ,-4.08671 
409 ,74.1696 ,1.43574 ,-0.44046 ,-4.32176 
410 ,74.3457 ,1.43743 ,-0.43019 ,-4.22102 
411 ,74.5377 ,1.43929 ,-0.42677 ,-4.18744 
412 ,74.7296 ,1.44119 ,-0.47126 ,-4.62396 
413 ,74.9060 ,1.44298 ,-0.48152 ,-4.72470 
414 ,75.0977 ,1.44480 ,-0.48494 ,-4.75828 
415 ,75.2741 ,1.44667 ,-0.48152 ,-4.72470 
416 ,75.4498 ,1.44843 ,-0.50890 ,-4.99332 
417 ,75.6260 ,1.45017 ,-0.52601 ,-5.16121 
418 ,75.8023 ,1.45190 ,-0.52259 ,-5.12764 
419 ,75.9782 ,1.45374 ,-0.53285 ,-5.22837 
420 ,76.1542 ,1.45546 ,-0.54312 ,-5.32911 
421 ,76.3303 ,1.45722 ,-0.57050 ,-5.59773 
422 ,76.5062 ,1.45896 ,-0.57392 ,-5.63131 
423 ,76.6826 ,1.46078 ,-0.58077 ,-5.69847 
424 ,76.8748 ,1.46264 ,-0.59103 ,-5.79920 
425 ,77.0669 ,1.46455 ,-0.61156 ,-6.00067 
426 ,77.2430 ,1.46635 ,-0.60472 ,-5.93352 
427 ,77.4351 ,1.46814 ,-0.61156 ,-6.00067 
428 ,77.6271 ,1.47022 ,-0.62525 ,-6.13499 
429 ,77.8030 ,1.47199 ,-0.63894 ,-6.26930 
430 ,77.9953 ,1.47388 ,-0.65947 ,-6.47077 
431 ,78.1712 ,1.47566 ,-0.66632 ,-6.53793 
432 ,78.3633 ,1.47754 ,-0.68685 ,-6.73940 
433 ,78.5552 ,1.47945 ,-0.69370 ,-6.80655 
434 ,78.7314 ,1.48121 ,-0.70054 ,-6.87371 
435 ,78.9237 ,1.48309 ,-0.71423 ,-7.00802 
436 ,79.0998 ,1.48490 ,-0.71765 ,-7.04160 
437 ,79.2759 ,1.48663 ,-0.73476 ,-7.20949 
438 ,79.4519 ,1.48843 ,-0.75187 ,-7.37738 
439 ,79.6438 ,1.49031 ,-0.75872 ,-7.44454 
440 ,79.8201 ,1.49211 ,-0.75530 ,-7.41096 
441 ,80.0121 ,1.49402 ,-0.78952 ,-7.74674 
442 ,80.1880 ,1.49582 ,-0.79978 ,-7.84748 
443 ,80.3802 ,1.49770 ,-0.78952 ,-7.74674 
444 ,80.5560 ,1.49948 ,-0.80321 ,-7.88106 
445 ,80.7324 ,1.50122 ,-0.81347 ,-7.98179 
446 ,80.9082 ,1.50302 ,-0.83743 ,-8.21684 
447 ,81.1004 ,1.50478 ,-0.84085 ,-8.25042 
448 ,81.2925 ,1.50679 ,-0.85796 ,-8.41831 
449 ,81.4848 ,1.50877 ,-0.86138 ,-8.45189 
450 ,81.6606 ,1.51052 ,-0.86138 ,-8.45189 
451 ,81.8368 ,1.51227 ,-0.85454 ,-8.38473 
452 ,82.0288 ,1.51414 ,-0.88534 ,-8.68694 
453 ,82.2049 ,1.51590 ,-0.89218 ,-8.75409 
454 ,82.3809 ,1.51772 ,-0.89903 ,-8.82125 
455 ,82.5571 ,1.51957 ,-0.91614 ,-8.98914 
456 ,82.7329 ,1.52125 ,-0.92983 ,-9.12345 
457 ,82.9090 ,1.52296 ,-0.93325 ,-9.15703 
458 ,83.0853 ,1.52482 ,-0.92298 ,-9.05630 
459 ,83.2614 ,1.52650 ,-0.93325 ,-9.15703 
460 ,83.4374 ,1.52826 ,-0.95378 ,-9.35850 
461 ,83.6296 ,1.53019 ,-0.97774 ,-9.59355 
462 ,83.8057 ,1.53195 ,-0.99143 ,-9.72786 
463 ,83.9816 ,1.53367 ,-0.97774 ,-9.59355 
