Data stamp = , 29-03-2022 07:59:40 048

Calibration Values: 
Slope = , 26.54 , g/V 
Offset Voltage at no contact = , -0.501760 , V 

No , Time , Stage Position ,   Mass , Force 
   ,  (s) ,      (mm)      ,   (g)  , (mN)  

1 ,0.0000 ,0.69951 ,5.32247 ,52.22410 
2 ,0.2114 ,0.69958 ,5.31905 ,52.19052 
3 ,0.5957 ,0.70062 ,5.29852 ,51.98905 
4 ,0.7876 ,0.70231 ,5.30536 ,52.05621 
5 ,0.9638 ,0.70387 ,5.30194 ,52.02263 
6 ,1.1395 ,0.70556 ,5.30536 ,52.05621 
7 ,1.3162 ,0.70731 ,5.33958 ,52.39199 
8 ,1.5079 ,0.70932 ,5.30194 ,52.02263 
9 ,1.7002 ,0.71114 ,5.28825 ,51.88832 
10 ,1.8922 ,0.71314 ,5.29852 ,51.98905 
11 ,2.0843 ,0.71508 ,5.25403 ,51.55254 
12 ,2.2602 ,0.71687 ,5.24718 ,51.48538 
13 ,2.4365 ,0.71860 ,5.25745 ,51.58611 
14 ,2.6283 ,0.72050 ,5.21296 ,51.14960 
15 ,2.8204 ,0.72242 ,5.20954 ,51.11602 
16 ,3.0128 ,0.72426 ,5.19585 ,50.98170 
17 ,3.2049 ,0.72630 ,5.15479 ,50.57876 
18 ,3.3808 ,0.72803 ,5.16163 ,50.64592 
19 ,3.5729 ,0.72993 ,5.16163 ,50.64592 
20 ,3.7486 ,0.73168 ,5.12741 ,50.31014 
21 ,3.9251 ,0.73349 ,5.11714 ,50.20940 
22 ,4.1170 ,0.73531 ,5.08977 ,49.94078 
23 ,4.2928 ,0.73714 ,5.08977 ,49.94078 
24 ,4.4692 ,0.73894 ,5.07265 ,49.77289 
25 ,4.6614 ,0.74085 ,5.04185 ,49.47068 
26 ,4.8532 ,0.74280 ,5.04185 ,49.47068 
27 ,5.0295 ,0.74451 ,5.00079 ,49.06774 
28 ,5.2054 ,0.74627 ,4.99737 ,49.03416 
29 ,5.3816 ,0.74808 ,4.98710 ,48.93343 
30 ,5.5414 ,0.74974 ,4.98710 ,48.93343 
31 ,5.7176 ,0.75134 ,4.97341 ,48.79911 
32 ,5.9103 ,0.75331 ,4.93235 ,48.39618 
33 ,6.1020 ,0.75526 ,4.91523 ,48.22828 
34 ,6.2940 ,0.75713 ,4.91866 ,48.26186 
35 ,6.4700 ,0.75895 ,4.89128 ,47.99324 
36 ,6.6621 ,0.76080 ,4.86048 ,47.69103 
37 ,6.8543 ,0.76278 ,4.86048 ,47.69103 
38 ,7.0623 ,0.76477 ,4.83652 ,47.45598 
39 ,7.2382 ,0.76660 ,4.80915 ,47.18736 
40 ,7.4147 ,0.76837 ,4.80915 ,47.18736 
41 ,7.6064 ,0.77023 ,4.77835 ,46.88515 
42 ,7.7983 ,0.77226 ,4.76808 ,46.78442 
43 ,7.9745 ,0.77399 ,4.74413 ,46.54937 
44 ,8.1666 ,0.77587 ,4.72702 ,46.38148 
45 ,8.3427 ,0.77765 ,4.70306 ,46.14643 
46 ,8.5187 ,0.77938 ,4.69964 ,46.11285 
47 ,8.7109 ,0.78137 ,4.68937 ,46.01212 
48 ,8.9031 ,0.78320 ,4.65857 ,45.70991 
49 ,9.1110 ,0.78524 ,4.65173 ,45.64275 
50 ,9.2872 ,0.78707 ,4.62435 ,45.37413 
51 ,9.4632 ,0.78879 ,4.60724 ,45.20624 
52 ,9.6394 ,0.79058 ,4.59013 ,45.03835 
53 ,9.8156 ,0.79240 ,4.59013 ,45.03835 
54 ,9.9915 ,0.79408 ,4.57986 ,44.93761 
55 ,10.1835 ,0.79599 ,4.53195 ,44.46751 
56 ,10.3757 ,0.79788 ,4.52853 ,44.43394 
57 ,10.5835 ,0.79998 ,4.49089 ,44.06457 
58 ,10.7594 ,0.80179 ,4.48062 ,43.96384 
59 ,10.9359 ,0.80358 ,4.47720 ,43.93026 
60 ,11.1118 ,0.80527 ,4.46693 ,43.82953 
61 ,11.2880 ,0.80708 ,4.43955 ,43.56090 
62 ,11.4638 ,0.80884 ,4.42929 ,43.46016 
63 ,11.6561 ,0.81065 ,4.39507 ,43.12438 
64 ,11.8482 ,0.81272 ,4.39164 ,43.09080 
65 ,12.0562 ,0.81472 ,4.36084 ,42.78860 
66 ,12.2322 ,0.81651 ,4.35742 ,42.75502 
67 ,12.4243 ,0.81843 ,4.32320 ,42.41924 
68 ,12.6163 ,0.82024 ,4.30951 ,42.28492 
69 ,12.8085 ,0.82228 ,4.30951 ,42.28492 
70 ,12.9846 ,0.82404 ,4.28213 ,42.01630 
71 ,13.1607 ,0.82584 ,4.25133 ,41.71409 
72 ,13.3526 ,0.82775 ,4.25818 ,41.78125 
73 ,13.5445 ,0.82961 ,4.22053 ,41.41189 
74 ,13.7206 ,0.83136 ,4.21027 ,41.31115 
75 ,13.8971 ,0.83317 ,4.20342 ,41.24400 
76 ,14.0890 ,0.83506 ,4.18631 ,41.07611 
77 ,14.2652 ,0.83686 ,4.15209 ,40.74032 
78 ,14.4573 ,0.83875 ,4.14525 ,40.67317 
79 ,14.6333 ,0.84054 ,4.13840 ,40.60601 
80 ,14.8095 ,0.84229 ,4.12814 ,40.50527 
81 ,14.9854 ,0.84406 ,4.09049 ,40.13591 
82 ,15.1616 ,0.84576 ,4.07338 ,39.96802 
83 ,15.3536 ,0.84777 ,4.08707 ,40.10233 
84 ,15.5296 ,0.84949 ,4.05285 ,39.76655 
85 ,15.7057 ,0.85127 ,4.01863 ,39.43077 
86 ,15.8817 ,0.85303 ,4.01178 ,39.36361 
87 ,16.0738 ,0.85491 ,3.99467 ,39.19572 
88 ,16.2501 ,0.85668 ,3.98441 ,39.09499 
89 ,16.4739 ,0.85878 ,3.96387 ,38.89352 
90 ,16.6500 ,0.86063 ,3.95018 ,38.75920 
91 ,16.8260 ,0.86245 ,3.93992 ,38.65847 
92 ,17.0184 ,0.86427 ,3.90570 ,38.32268 
93 ,17.1945 ,0.86617 ,3.88858 ,38.15479 
94 ,17.3704 ,0.86787 ,3.89543 ,38.22195 
95 ,17.5464 ,0.86967 ,3.87147 ,37.98690 
96 ,17.7226 ,0.87139 ,3.83725 ,37.65112 
97 ,17.9148 ,0.87329 ,3.84410 ,37.71828 
98 ,18.0747 ,0.87503 ,3.82356 ,37.51681 
99 ,18.2508 ,0.87675 ,3.80645 ,37.34891 
100 ,18.4268 ,0.87847 ,3.79276 ,37.21460 
101 ,18.6029 ,0.88020 ,3.75170 ,36.81166 
102 ,18.7789 ,0.88197 ,3.74485 ,36.74450 
103 ,18.9708 ,0.88389 ,3.75170 ,36.81166 
104 ,19.1630 ,0.88568 ,3.71405 ,36.44230 
105 ,19.3713 ,0.88783 ,3.72090 ,36.50946 
106 ,19.5472 ,0.88971 ,3.67983 ,36.10652 
107 ,19.7234 ,0.89141 ,3.66957 ,36.00578 
108 ,19.9152 ,0.89329 ,3.64903 ,35.80431 
109 ,20.0916 ,0.89507 ,3.64219 ,35.73716 
110 ,20.2996 ,0.89705 ,3.62850 ,35.60284 
111 ,20.4918 ,0.89911 ,3.62166 ,35.53569 
112 ,20.6679 ,0.90086 ,3.60454 ,35.36779 
113 ,20.8599 ,0.90274 ,3.56690 ,34.99843 
114 ,21.0516 ,0.90468 ,3.56348 ,34.96485 
115 ,21.2280 ,0.90645 ,3.55663 ,34.89770 
116 ,21.4201 ,0.90835 ,3.52584 ,34.59549 
117 ,21.5958 ,0.91010 ,3.50872 ,34.42760 
118 ,21.7722 ,0.91183 ,3.51557 ,34.49476 
119 ,21.9483 ,0.91361 ,3.48477 ,34.19255 
120 ,22.1242 ,0.91540 ,3.48135 ,34.15898 
121 ,22.3006 ,0.91717 ,3.43001 ,33.65530 
122 ,22.4926 ,0.91909 ,3.44713 ,33.82319 
123 ,22.6686 ,0.92087 ,3.41633 ,33.52099 
124 ,22.8608 ,0.92272 ,3.39579 ,33.31952 
125 ,23.0689 ,0.92475 ,3.37526 ,33.11805 
126 ,23.2449 ,0.92671 ,3.34788 ,32.84942 
127 ,23.4206 ,0.92833 ,3.34104 ,32.78227 
128 ,23.5970 ,0.93008 ,3.32735 ,32.64795 
129 ,23.7889 ,0.93199 ,3.30682 ,32.44648 
130 ,23.9648 ,0.93378 ,3.31708 ,32.54722 
131 ,24.1410 ,0.93556 ,3.27602 ,32.14428 
132 ,24.3172 ,0.93730 ,3.26233 ,32.00996 
133 ,24.4931 ,0.93906 ,3.24864 ,31.87565 
134 ,24.6691 ,0.94079 ,3.24180 ,31.80849 
135 ,24.8452 ,0.94260 ,3.22126 ,31.60702 
136 ,25.0053 ,0.94429 ,3.20073 ,31.40555 
137 ,25.1652 ,0.94592 ,3.19046 ,31.30482 
138 ,25.3254 ,0.94751 ,3.16993 ,31.10335 
139 ,25.4854 ,0.94912 ,3.16309 ,31.03619 
140 ,25.6455 ,0.95072 ,3.14940 ,30.90188 
141 ,25.8055 ,0.95229 ,3.12886 ,30.70041 
142 ,25.9656 ,0.95391 ,3.11860 ,30.59968 
143 ,26.1256 ,0.95553 ,3.10491 ,30.46536 
144 ,26.2857 ,0.95712 ,3.08780 ,30.29747 
145 ,26.4458 ,0.95871 ,3.08780 ,30.29747 
146 ,26.6059 ,0.96030 ,3.07411 ,30.16316 
147 ,26.7659 ,0.96196 ,3.04331 ,29.86095 
148 ,26.9260 ,0.96350 ,3.02620 ,29.69306 
149 ,27.1021 ,0.96511 ,3.01593 ,29.59233 
150 ,27.2781 ,0.96688 ,3.00224 ,29.45801 
151 ,27.4382 ,0.96862 ,2.97487 ,29.18939 
152 ,27.6143 ,0.97024 ,2.97487 ,29.18939 
153 ,27.7904 ,0.97200 ,2.94749 ,28.92076 
154 ,27.9503 ,0.97375 ,2.95433 ,28.98792 
155 ,28.1105 ,0.97532 ,2.93038 ,28.75287 
156 ,28.2704 ,0.97693 ,2.92353 ,28.68571 
157 ,28.4467 ,0.97863 ,2.89616 ,28.41709 
158 ,28.6386 ,0.98047 ,2.87220 ,28.18204 
159 ,28.8148 ,0.98222 ,2.85167 ,27.98057 
160 ,29.0072 ,0.98411 ,2.85167 ,27.98057 
161 ,29.1829 ,0.98598 ,2.84140 ,27.87983 
162 ,29.3432 ,0.98767 ,2.80718 ,27.54405 
163 ,29.5195 ,0.98930 ,2.80376 ,27.51047 
164 ,29.7115 ,0.99125 ,2.77980 ,27.27542 
165 ,29.9034 ,0.99306 ,2.77638 ,27.24185 
166 ,30.0796 ,0.99491 ,2.74900 ,26.97322 
167 ,30.2717 ,0.99688 ,2.72505 ,26.73817 
168 ,30.4473 ,0.99860 ,2.72505 ,26.73817 
169 ,30.6237 ,1.00042 ,2.71478 ,26.63744 
170 ,30.7997 ,1.00206 ,2.67714 ,26.26807 
171 ,30.9759 ,1.00386 ,2.66345 ,26.13376 
172 ,31.1517 ,1.00560 ,2.64634 ,25.96587 
173 ,31.3281 ,1.00740 ,2.65318 ,26.03303 
174 ,31.5038 ,1.00921 ,2.63265 ,25.83156 
175 ,31.6801 ,1.01090 ,2.61896 ,25.69724 
176 ,31.8881 ,1.01287 ,2.60869 ,25.59651 
177 ,32.0644 ,1.01471 ,2.58816 ,25.39504 
178 ,32.2404 ,1.01654 ,2.58132 ,25.32788 
179 ,32.4325 ,1.01838 ,2.56421 ,25.15999 
180 ,32.6086 ,1.02025 ,2.53683 ,24.89136 
181 ,32.7843 ,1.02195 ,2.52656 ,24.79063 
182 ,32.9608 ,1.02376 ,2.51287 ,24.65632 
183 ,33.1528 ,1.02561 ,2.47865 ,24.32053 
184 ,33.3449 ,1.02750 ,2.48550 ,24.38769 
185 ,33.5208 ,1.02931 ,2.45127 ,24.05191 
186 ,33.6810 ,1.03100 ,2.42732 ,23.81686 
187 ,33.8572 ,1.03266 ,2.42390 ,23.78328 
188 ,34.0491 ,1.03460 ,2.41363 ,23.68255 
189 ,34.2252 ,1.03638 ,2.39310 ,23.48108 
190 ,34.4178 ,1.03825 ,2.35545 ,23.11171 
191 ,34.5933 ,1.04004 ,2.35545 ,23.11171 
192 ,34.7853 ,1.04198 ,2.35545 ,23.11171 
193 ,34.9774 ,1.04392 ,2.31439 ,22.70877 
194 ,35.1696 ,1.04574 ,2.31097 ,22.67520 
195 ,35.3457 ,1.04759 ,2.30070 ,22.57446 
196 ,35.5376 ,1.04948 ,2.28359 ,22.40657 
197 ,35.7135 ,1.05122 ,2.25279 ,22.10437 
198 ,35.8899 ,1.05301 ,2.25621 ,22.13794 
199 ,36.0659 ,1.05476 ,2.24252 ,22.00363 
200 ,36.2420 ,1.05655 ,2.22199 ,21.80216 
201 ,36.4182 ,1.05829 ,2.19803 ,21.56711 
202 ,36.6103 ,1.06011 ,2.18435 ,21.43280 
203 ,36.8019 ,1.06216 ,2.17750 ,21.36564 
204 ,36.9783 ,1.06393 ,2.15697 ,21.16417 
205 ,37.1544 ,1.06565 ,2.12617 ,20.86197 
206 ,37.3303 ,1.06741 ,2.13301 ,20.92912 
207 ,37.5066 ,1.06916 ,2.12617 ,20.86197 
208 ,37.6825 ,1.07095 ,2.10221 ,20.62692 
209 ,37.8587 ,1.07270 ,2.07826 ,20.39187 
210 ,38.0505 ,1.07457 ,2.06457 ,20.25756 
211 ,38.2270 ,1.07636 ,2.05430 ,20.15682 
212 ,38.4195 ,1.07817 ,2.03377 ,19.95535 
213 ,38.5951 ,1.08006 ,2.00982 ,19.72031 
214 ,38.7710 ,1.08181 ,1.99270 ,19.55241 
215 ,38.9471 ,1.08358 ,1.99613 ,19.58599 
216 ,39.1392 ,1.08551 ,1.97902 ,19.41810 
217 ,39.3153 ,1.08722 ,1.93795 ,19.01516 
218 ,39.5234 ,1.08919 ,1.94137 ,19.04874 
219 ,39.7155 ,1.09123 ,1.91399 ,18.78011 
220 ,39.8909 ,1.09304 ,1.91057 ,18.74654 
221 ,40.0676 ,1.09471 ,1.91057 ,18.74654 
222 ,40.2436 ,1.09652 ,1.89004 ,18.54507 
223 ,40.4196 ,1.09830 ,1.87635 ,18.41075 
224 ,40.5955 ,1.10002 ,1.84897 ,18.14213 
225 ,40.7717 ,1.10180 ,1.83186 ,17.97423 
226 ,40.9636 ,1.10372 ,1.82844 ,17.94066 
227 ,41.1559 ,1.10560 ,1.78737 ,17.53772 
228 ,41.3481 ,1.10748 ,1.78395 ,17.50414 
229 ,41.5400 ,1.10948 ,1.78737 ,17.53772 
230 ,41.7161 ,1.11124 ,1.75657 ,17.23551 
231 ,41.8922 ,1.11300 ,1.74973 ,17.16836 
232 ,42.0843 ,1.11490 ,1.74973 ,17.16836 
233 ,42.2602 ,1.11663 ,1.72920 ,16.96689 
234 ,42.4365 ,1.11843 ,1.69498 ,16.63110 
235 ,42.6125 ,1.12019 ,1.68129 ,16.49679 
236 ,42.8045 ,1.12208 ,1.68471 ,16.53037 
237 ,42.9805 ,1.12388 ,1.67102 ,16.39605 
238 ,43.1726 ,1.12571 ,1.64022 ,16.09385 
239 ,43.3489 ,1.12759 ,1.62995 ,15.99311 
240 ,43.5249 ,1.12933 ,1.61627 ,15.85880 
241 ,43.7010 ,1.13102 ,1.61284 ,15.82522 
242 ,43.8768 ,1.13281 ,1.59231 ,15.62375 
243 ,44.0528 ,1.13458 ,1.56493 ,15.35513 
244 ,44.2292 ,1.13635 ,1.57520 ,15.45586 
245 ,44.4213 ,1.13829 ,1.56151 ,15.32155 
246 ,44.5972 ,1.14001 ,1.54098 ,15.12008 
247 ,44.7729 ,1.14181 ,1.53756 ,15.08650 
248 ,44.9491 ,1.14357 ,1.49649 ,14.68356 
249 ,45.1253 ,1.14529 ,1.51018 ,14.81787 
250 ,45.3178 ,1.14730 ,1.46569 ,14.38136 
251 ,45.5099 ,1.14920 ,1.46569 ,14.38136 
252 ,45.6855 ,1.15093 ,1.45200 ,14.24704 
253 ,45.8619 ,1.15269 ,1.45542 ,14.28062 
254 ,46.0379 ,1.15444 ,1.42805 ,14.01199 
255 ,46.2142 ,1.15618 ,1.40409 ,13.77695 
256 ,46.4062 ,1.15814 ,1.40751 ,13.81053 
257 ,46.5821 ,1.15985 ,1.40067 ,13.74337 
258 ,46.7743 ,1.16177 ,1.35960 ,13.34043 
259 ,46.9502 ,1.16363 ,1.34934 ,13.23969 
260 ,47.1422 ,1.16548 ,1.35276 ,13.27327 
261 ,47.3342 ,1.16740 ,1.31854 ,12.93749 
262 ,47.5266 ,1.16931 ,1.31512 ,12.90391 
263 ,47.7026 ,1.17110 ,1.30827 ,12.83675 
264 ,47.8788 ,1.17285 ,1.28432 ,12.60171 
265 ,48.0548 ,1.17463 ,1.26720 ,12.43381 
266 ,48.2470 ,1.17654 ,1.25352 ,12.29950 
267 ,48.4390 ,1.17845 ,1.25352 ,12.29950 
268 ,48.6310 ,1.18030 ,1.23641 ,12.13161 
269 ,48.8072 ,1.18215 ,1.21929 ,11.96372 
270 ,49.0153 ,1.18403 ,1.20218 ,11.79583 
271 ,49.1913 ,1.18600 ,1.18507 ,11.62794 
272 ,49.3835 ,1.18779 ,1.17823 ,11.56078 
273 ,49.5593 ,1.18964 ,1.16112 ,11.39289 
274 ,49.7354 ,1.19152 ,1.13374 ,11.12426 
275 ,49.9275 ,1.19327 ,1.12690 ,11.05710 
276 ,50.1036 ,1.19508 ,1.12690 ,11.05710 
277 ,50.2794 ,1.19683 ,1.12005 ,10.98995 
278 ,50.4718 ,1.19865 ,1.09267 ,10.72132 
279 ,50.6639 ,1.20071 ,1.07899 ,10.58701 
280 ,50.8559 ,1.20256 ,1.05161 ,10.31838 
281 ,51.0321 ,1.20442 ,1.03108 ,10.11691 
282 ,51.2081 ,1.20613 ,1.02423 ,10.04976 
283 ,51.3842 ,1.20799 ,1.02765 ,10.08333 
284 ,51.5602 ,1.20967 ,0.99685 ,9.78113 
285 ,51.7363 ,1.21143 ,1.00028 ,9.81471 
286 ,51.8964 ,1.21309 ,0.97290 ,9.54608 
287 ,52.0883 ,1.21487 ,0.97974 ,9.61324 
288 ,52.2645 ,1.21668 ,0.95579 ,9.37819 
289 ,52.4565 ,1.21856 ,0.94210 ,9.24388 
290 ,52.6484 ,1.22053 ,0.93183 ,9.14314 
291 ,52.8243 ,1.22229 ,0.92499 ,9.07598 
292 ,53.0008 ,1.22406 ,0.90788 ,8.90809 
293 ,53.1927 ,1.22598 ,0.89419 ,8.77378 
294 ,53.3689 ,1.22776 ,0.85997 ,8.43800 
295 ,53.5610 ,1.22964 ,0.86681 ,8.50515 
296 ,53.7370 ,1.23137 ,0.84970 ,8.33726 
297 ,53.9129 ,1.23312 ,0.81890 ,8.03506 
298 ,54.0892 ,1.23496 ,0.82232 ,8.06864 
299 ,54.2651 ,1.23672 ,0.80521 ,7.90074 
300 ,54.4410 ,1.23844 ,0.79837 ,7.83359 
301 ,54.6175 ,1.24018 ,0.79495 ,7.80001 
302 ,54.8096 ,1.24213 ,0.77441 ,7.59854 
303 ,55.0176 ,1.24411 ,0.76757 ,7.53138 
304 ,55.2096 ,1.24611 ,0.74019 ,7.26276 
305 ,55.3857 ,1.24790 ,0.74361 ,7.29633 
306 ,55.5616 ,1.24962 ,0.72308 ,7.09486 
307 ,55.7374 ,1.25140 ,0.71281 ,6.99413 
308 ,55.9145 ,1.25319 ,0.69228 ,6.79266 
309 ,56.1059 ,1.25509 ,0.67859 ,6.65835 
310 ,56.2821 ,1.25682 ,0.68201 ,6.69193 
311 ,56.4741 ,1.25879 ,0.65806 ,6.45688 
312 ,56.6503 ,1.26051 ,0.63410 ,6.22183 
313 ,56.8263 ,1.26229 ,0.62726 ,6.15467 
314 ,57.0345 ,1.26433 ,0.61357 ,6.02036 
315 ,57.2265 ,1.26616 ,0.59988 ,5.88605 
316 ,57.4025 ,1.26812 ,0.59646 ,5.85247 
317 ,57.5943 ,1.26992 ,0.58277 ,5.71815 
318 ,57.7705 ,1.27170 ,0.55539 ,5.44953 
319 ,57.9467 ,1.27348 ,0.55882 ,5.48311 
320 ,58.1066 ,1.27520 ,0.54855 ,5.38237 
321 ,58.2825 ,1.27685 ,0.53144 ,5.21448 
322 ,58.4585 ,1.27857 ,0.52117 ,5.11375 
323 ,58.6346 ,1.28035 ,0.50064 ,4.91228 
324 ,58.8108 ,1.28215 ,0.49722 ,4.87870 
325 ,59.0193 ,1.28411 ,0.48011 ,4.71081 
326 ,59.2273 ,1.28631 ,0.45957 ,4.50934 
327 ,59.4034 ,1.28801 ,0.45615 ,4.47576 
328 ,59.5954 ,1.28994 ,0.45615 ,4.47576 
329 ,59.7715 ,1.29169 ,0.42193 ,4.13997 
330 ,59.9476 ,1.29346 ,0.41509 ,4.07282 
331 ,60.1236 ,1.29527 ,0.40482 ,3.97208 
332 ,60.3158 ,1.29706 ,0.40824 ,4.00566 
333 ,60.5079 ,1.29909 ,0.38086 ,3.73703 
334 ,60.6999 ,1.30099 ,0.37744 ,3.70346 
335 ,60.8758 ,1.30279 ,0.36718 ,3.60272 
336 ,61.0517 ,1.30448 ,0.35349 ,3.46841 
337 ,61.2279 ,1.30628 ,0.33295 ,3.26694 
338 ,61.4043 ,1.30804 ,0.33295 ,3.26694 
339 ,61.5804 ,1.30986 ,0.32953 ,3.23336 
340 ,61.7720 ,1.31170 ,0.29189 ,2.86400 
341 ,61.9485 ,1.31345 ,0.29189 ,2.86400 
342 ,62.1565 ,1.31550 ,0.28162 ,2.76326 
343 ,62.3327 ,1.31731 ,0.26109 ,2.56179 
344 ,62.5087 ,1.31910 ,0.24398 ,2.39390 
345 ,62.6848 ,1.32082 ,0.23371 ,2.29317 
346 ,62.8607 ,1.32259 ,0.24398 ,2.39390 
347 ,63.0530 ,1.32457 ,0.22002 ,2.15885 
348 ,63.2611 ,1.32652 ,0.19264 ,1.89023 
349 ,63.4373 ,1.32836 ,0.20633 ,2.02454 
350 ,63.6134 ,1.33015 ,0.18580 ,1.82307 
351 ,63.7892 ,1.33190 ,0.15842 ,1.55445 
352 ,63.9655 ,1.33359 ,0.15842 ,1.55445 
353 ,64.1734 ,1.33560 ,0.16185 ,1.58802 
354 ,64.3494 ,1.33748 ,0.13105 ,1.28582 
355 ,64.5417 ,1.33938 ,0.14473 ,1.42013 
356 ,64.7174 ,1.34117 ,0.13105 ,1.28582 
357 ,64.8934 ,1.34292 ,0.10367 ,1.01719 
358 ,65.0858 ,1.34478 ,0.08314 ,0.81572 
359 ,65.2779 ,1.34678 ,0.08998 ,0.88288 
360 ,65.4698 ,1.34869 ,0.05918 ,0.58067 
361 ,65.6460 ,1.35041 ,0.04549 ,0.44636 
362 ,65.8221 ,1.35223 ,0.03522 ,0.34563 
363 ,66.0141 ,1.35417 ,0.03865 ,0.37920 
364 ,66.1903 ,1.35588 ,0.01127 ,0.11058 
365 ,66.3664 ,1.35768 ,-0.00584 ,-0.05731 
366 ,66.5424 ,1.35940 ,-0.00926 ,-0.09089 
367 ,66.7186 ,1.36114 ,-0.00926 ,-0.09089 
368 ,66.8943 ,1.36293 ,-0.01953 ,-0.19163 
369 ,67.0866 ,1.36475 ,-0.04006 ,-0.39310 
370 ,67.2787 ,1.36672 ,-0.04348 ,-0.42667 
371 ,67.4548 ,1.36853 ,-0.04691 ,-0.46025 
372 ,67.6309 ,1.37031 ,-0.07086 ,-0.69530 
373 ,67.8229 ,1.37219 ,-0.08113 ,-0.79604 
374 ,67.9989 ,1.37392 ,-0.09482 ,-0.93035 
375 ,68.1749 ,1.37571 ,-0.09482 ,-0.93035 
376 ,68.3512 ,1.37751 ,-0.11535 ,-1.13182 
377 ,68.5271 ,1.37927 ,-0.13588 ,-1.33329 
378 ,68.7032 ,1.38103 ,-0.14273 ,-1.40045 
379 ,68.8792 ,1.38278 ,-0.14957 ,-1.46760 
380 ,69.0714 ,1.38466 ,-0.15984 ,-1.56834 
381 ,69.2635 ,1.38653 ,-0.17011 ,-1.66907 
382 ,69.4556 ,1.38848 ,-0.16668 ,-1.63549 
383 ,69.6316 ,1.39028 ,-0.18037 ,-1.76981 
384 ,69.8237 ,1.39221 ,-0.21117 ,-2.07201 
385 ,69.9997 ,1.39406 ,-0.19748 ,-1.93770 
386 ,70.1918 ,1.39581 ,-0.22486 ,-2.20632 
387 ,70.3679 ,1.39761 ,-0.24539 ,-2.40779 
388 ,70.5438 ,1.39937 ,-0.25224 ,-2.47495 
389 ,70.7202 ,1.40119 ,-0.26935 ,-2.64284 
390 ,70.9277 ,1.40315 ,-0.26250 ,-2.57569 
391 ,71.1043 ,1.40498 ,-0.29673 ,-2.91147 
392 ,71.2963 ,1.40685 ,-0.29330 ,-2.87789 
393 ,71.4724 ,1.40871 ,-0.30015 ,-2.94505 
394 ,71.6644 ,1.41059 ,-0.32068 ,-3.14652 
395 ,71.8405 ,1.41237 ,-0.33437 ,-3.28083 
396 ,72.0324 ,1.41428 ,-0.34121 ,-3.34799 
397 ,72.2083 ,1.41607 ,-0.34121 ,-3.34799 
398 ,72.3847 ,1.41781 ,-0.36859 ,-3.61661 
399 ,72.5769 ,1.41970 ,-0.36175 ,-3.54946 
400 ,72.7528 ,1.42153 ,-0.36859 ,-3.61661 
401 ,72.9289 ,1.42326 ,-0.39597 ,-3.88524 
402 ,73.1052 ,1.42499 ,-0.41650 ,-4.08671 
403 ,73.2972 ,1.42686 ,-0.40623 ,-3.98597 
404 ,73.4733 ,1.42865 ,-0.40966 ,-4.01955 
405 ,73.6653 ,1.43059 ,-0.45072 ,-4.42249 
406 ,73.8414 ,1.43234 ,-0.46783 ,-4.59038 
407 ,74.0175 ,1.43428 ,-0.44730 ,-4.38891 
408 ,74.2093 ,1.43600 ,-0.46783 ,-4.59038 
409 ,74.3856 ,1.43779 ,-0.48494 ,-4.75828 
410 ,74.5616 ,1.43956 ,-0.50206 ,-4.92617 
411 ,74.7376 ,1.44135 ,-0.49863 ,-4.89259 
412 ,74.9299 ,1.44329 ,-0.50890 ,-4.99332 
413 ,75.1218 ,1.44512 ,-0.52943 ,-5.19479 
414 ,75.2980 ,1.44696 ,-0.53628 ,-5.26195 
415 ,75.4901 ,1.44881 ,-0.54654 ,-5.36268 
416 ,75.6820 ,1.45076 ,-0.56708 ,-5.56415 
417 ,75.8421 ,1.45247 ,-0.57050 ,-5.59773 
418 ,76.0022 ,1.45410 ,-0.56708 ,-5.56415 
419 ,76.1623 ,1.45566 ,-0.58077 ,-5.69847 
420 ,76.3383 ,1.45728 ,-0.59103 ,-5.79920 
421 ,76.5305 ,1.45914 ,-0.59788 ,-5.86636 
422 ,76.7386 ,1.46133 ,-0.60814 ,-5.96709 
423 ,76.9152 ,1.46309 ,-0.61841 ,-6.06783 
424 ,77.1066 ,1.46500 ,-0.64579 ,-6.33646 
425 ,77.2828 ,1.46678 ,-0.66290 ,-6.50435 
426 ,77.4426 ,1.46850 ,-0.66632 ,-6.53793 
427 ,77.6189 ,1.47009 ,-0.66632 ,-6.53793 
428 ,77.7949 ,1.47185 ,-0.66974 ,-6.57150 
429 ,77.9710 ,1.47360 ,-0.68685 ,-6.73940 
430 ,78.1630 ,1.47543 ,-0.68685 ,-6.73940 
431 ,78.3392 ,1.47731 ,-0.70739 ,-6.94086 
432 ,78.5311 ,1.47923 ,-0.71423 ,-7.00802 
433 ,78.7074 ,1.48105 ,-0.73134 ,-7.17591 
434 ,78.8834 ,1.48277 ,-0.74503 ,-7.31023 
435 ,79.0755 ,1.48461 ,-0.74161 ,-7.27665 
436 ,79.2675 ,1.48662 ,-0.76214 ,-7.47812 
437 ,79.4436 ,1.48838 ,-0.77241 ,-7.57885 
438 ,79.6198 ,1.49010 ,-0.79294 ,-7.78032 
439 ,79.7954 ,1.49188 ,-0.78952 ,-7.74674 
440 ,79.9555 ,1.49359 ,-0.78952 ,-7.74674 
441 ,80.1318 ,1.49523 ,-0.81005 ,-7.94821 
442 ,80.3240 ,1.49719 ,-0.83401 ,-8.18326 
443 ,80.4998 ,1.49894 ,-0.83743 ,-8.21684 
444 ,80.6921 ,1.50079 ,-0.82032 ,-8.04895 
445 ,80.8681 ,1.50261 ,-0.83743 ,-8.21684 
446 ,81.0442 ,1.50437 ,-0.86823 ,-8.51904 
447 ,81.2363 ,1.50621 ,-0.86138 ,-8.45189 
448 ,81.4125 ,1.50799 ,-0.86481 ,-8.48547 
449 ,81.6041 ,1.51000 ,-0.89903 ,-8.82125 
450 ,81.7805 ,1.51172 ,-0.90587 ,-8.88841 
451 ,81.9885 ,1.51370 ,-0.90587 ,-8.88841 
452 ,82.1647 ,1.51557 ,-0.93667 ,-9.19061 
453 ,82.3407 ,1.51730 ,-0.94694 ,-9.29135 
454 ,82.5168 ,1.51906 ,-0.94694 ,-9.29135 
455 ,82.6929 ,1.52080 ,-0.94351 ,-9.25777 
456 ,82.8687 ,1.52262 ,-0.95720 ,-9.39208 
457 ,83.0451 ,1.52440 ,-0.97431 ,-9.55997 
458 ,83.2371 ,1.52629 ,-0.99485 ,-9.76144 
459 ,83.4138 ,1.52807 ,-0.99827 ,-9.79502 
460 ,83.5892 ,1.52981 ,-1.00511 ,-9.86218 
461 ,83.7654 ,1.53154 ,-1.01196 ,-9.92933 
462 ,83.9414 ,1.53331 ,-1.02907 ,-10.09723 
463 ,84.1178 ,1.53505 ,-1.03591 ,-10.16438 
