Data stamp = , 28-03-2022 23:46:27 901

Calibration Values: 
Slope = , 26.54 , g/V 
Offset Voltage at no contact = , -0.501760 , V 

No , Time , Stage Position ,   Mass , Force 
   ,  (s) ,      (mm)      ,   (g)  , (mN)  

1 ,0.0000 ,0.69948 ,5.30536 ,52.05621 
2 ,0.2247 ,0.69955 ,5.28141 ,51.82116 
3 ,0.5287 ,0.70038 ,5.28825 ,51.88832 
4 ,0.7368 ,0.70187 ,5.29852 ,51.98905 
5 ,0.9127 ,0.70334 ,5.29510 ,51.95548 
6 ,1.0890 ,0.70514 ,5.28141 ,51.82116 
7 ,1.2649 ,0.70678 ,5.30878 ,52.08979 
8 ,1.4572 ,0.70868 ,5.30194 ,52.02263 
9 ,1.6652 ,0.71084 ,5.27114 ,51.72043 
10 ,1.8574 ,0.71277 ,5.26772 ,51.68685 
11 ,2.0490 ,0.71467 ,5.24034 ,51.41822 
12 ,2.2255 ,0.71649 ,5.20612 ,51.08244 
13 ,2.4012 ,0.71824 ,5.20270 ,51.04886 
14 ,2.5777 ,0.72000 ,5.18901 ,50.91455 
15 ,2.7536 ,0.72177 ,5.18901 ,50.91455 
16 ,2.9298 ,0.72353 ,5.15821 ,50.61234 
17 ,3.1058 ,0.72528 ,5.13768 ,50.41087 
18 ,3.2815 ,0.72700 ,5.12741 ,50.31014 
19 ,3.4577 ,0.72875 ,5.12399 ,50.27656 
20 ,3.6338 ,0.73054 ,5.12399 ,50.27656 
21 ,3.8102 ,0.73228 ,5.09319 ,49.97436 
22 ,3.9862 ,0.73411 ,5.07950 ,49.84004 
23 ,4.1784 ,0.73598 ,5.06239 ,49.67215 
24 ,4.3701 ,0.73792 ,5.06239 ,49.67215 
25 ,4.5465 ,0.73970 ,5.03501 ,49.40352 
26 ,4.7385 ,0.74155 ,5.02817 ,49.33637 
27 ,4.9144 ,0.74340 ,5.01790 ,49.23563 
28 ,5.0906 ,0.74523 ,4.99052 ,48.96701 
29 ,5.2826 ,0.74694 ,4.96999 ,48.76554 
30 ,5.4588 ,0.74878 ,4.95630 ,48.63122 
31 ,5.6509 ,0.75064 ,4.94946 ,48.56407 
32 ,5.8270 ,0.75246 ,4.93577 ,48.42975 
33 ,6.0352 ,0.75445 ,4.92550 ,48.32902 
34 ,6.2110 ,0.75630 ,4.90155 ,48.09397 
35 ,6.3871 ,0.75806 ,4.90155 ,48.09397 
36 ,6.5634 ,0.75981 ,4.86732 ,47.75819 
37 ,6.7552 ,0.76172 ,4.86048 ,47.69103 
38 ,6.9474 ,0.76370 ,4.84679 ,47.55672 
39 ,7.1233 ,0.76541 ,4.81257 ,47.22093 
40 ,7.3315 ,0.76746 ,4.80573 ,47.15378 
41 ,7.5234 ,0.76936 ,4.77835 ,46.88515 
42 ,7.6998 ,0.77116 ,4.77150 ,46.81800 
43 ,7.8919 ,0.77312 ,4.75782 ,46.68368 
44 ,8.0838 ,0.77501 ,4.73728 ,46.48221 
45 ,8.2597 ,0.77680 ,4.71675 ,46.28074 
46 ,8.4360 ,0.77860 ,4.71333 ,46.24716 
47 ,8.6278 ,0.78040 ,4.68937 ,46.01212 
48 ,8.8042 ,0.78220 ,4.65515 ,45.67633 
49 ,9.0280 ,0.78437 ,4.65515 ,45.67633 
50 ,9.2203 ,0.78635 ,4.63119 ,45.44128 
51 ,9.4123 ,0.78817 ,4.60724 ,45.20624 
52 ,9.6045 ,0.79021 ,4.59697 ,45.10550 
53 ,9.7961 ,0.79212 ,4.57302 ,44.87045 
54 ,9.9886 ,0.79399 ,4.56617 ,44.80330 
55 ,10.1645 ,0.79584 ,4.55249 ,44.66898 
56 ,10.3404 ,0.79759 ,4.51826 ,44.33320 
57 ,10.5165 ,0.79932 ,4.49773 ,44.13173 
58 ,10.6929 ,0.80106 ,4.50457 ,44.19889 
59 ,10.8849 ,0.80307 ,4.47720 ,43.93026 
60 ,11.0770 ,0.80495 ,4.45666 ,43.72879 
61 ,11.2528 ,0.80671 ,4.44298 ,43.59448 
62 ,11.4451 ,0.80862 ,4.42929 ,43.46016 
63 ,11.6374 ,0.81055 ,4.39507 ,43.12438 
64 ,11.8290 ,0.81247 ,4.39507 ,43.12438 
65 ,12.0054 ,0.81425 ,4.38480 ,43.02365 
66 ,12.1974 ,0.81617 ,4.35058 ,42.68786 
67 ,12.3735 ,0.81791 ,4.33004 ,42.48639 
68 ,12.5656 ,0.81979 ,4.31636 ,42.35208 
69 ,12.7735 ,0.82183 ,4.28556 ,42.04988 
70 ,12.9497 ,0.82378 ,4.27871 ,41.98272 
71 ,13.1258 ,0.82544 ,4.26845 ,41.88198 
72 ,13.3178 ,0.82735 ,4.23422 ,41.54620 
73 ,13.4938 ,0.82910 ,4.22396 ,41.44547 
74 ,13.6700 ,0.83089 ,4.21369 ,41.34473 
75 ,13.8460 ,0.83261 ,4.19658 ,41.17684 
76 ,14.0220 ,0.83435 ,4.16920 ,40.90821 
77 ,14.2143 ,0.83630 ,4.15894 ,40.80748 
78 ,14.4062 ,0.83821 ,4.13840 ,40.60601 
79 ,14.5984 ,0.84005 ,4.12129 ,40.43812 
80 ,14.7744 ,0.84190 ,4.09391 ,40.16949 
81 ,14.9504 ,0.84365 ,4.09049 ,40.13591 
82 ,15.1430 ,0.84559 ,4.06996 ,39.93444 
83 ,15.3347 ,0.84742 ,4.05285 ,39.76655 
84 ,15.5268 ,0.84941 ,4.04943 ,39.73297 
85 ,15.7029 ,0.85121 ,4.02547 ,39.49793 
86 ,15.8950 ,0.85312 ,3.99809 ,39.22930 
87 ,16.0709 ,0.85486 ,3.98783 ,39.12856 
88 ,16.2472 ,0.85663 ,3.97414 ,38.99425 
89 ,16.4232 ,0.85843 ,3.96387 ,38.89352 
90 ,16.6152 ,0.86031 ,3.92281 ,38.49058 
91 ,16.7913 ,0.86206 ,3.91596 ,38.42342 
92 ,16.9674 ,0.86385 ,3.90570 ,38.32268 
93 ,17.1432 ,0.86560 ,3.89543 ,38.22195 
94 ,17.3195 ,0.86729 ,3.86121 ,37.88617 
95 ,17.4955 ,0.86908 ,3.83041 ,37.58396 
96 ,17.6716 ,0.87083 ,3.82356 ,37.51681 
97 ,17.8477 ,0.87261 ,3.82014 ,37.48323 
98 ,18.0238 ,0.87436 ,3.80645 ,37.34891 
99 ,18.1998 ,0.87612 ,3.77908 ,37.08029 
100 ,18.3760 ,0.87792 ,3.76196 ,36.91240 
101 ,18.5681 ,0.87982 ,3.76196 ,36.91240 
102 ,18.7442 ,0.88160 ,3.75512 ,36.84524 
103 ,18.9202 ,0.88334 ,3.73117 ,36.61019 
104 ,19.1283 ,0.88530 ,3.70379 ,36.34157 
105 ,19.3201 ,0.88733 ,3.68325 ,36.14010 
106 ,19.4964 ,0.88907 ,3.66272 ,35.93863 
107 ,19.6725 ,0.89086 ,3.64219 ,35.73716 
108 ,19.8648 ,0.89275 ,3.64561 ,35.77073 
109 ,20.0565 ,0.89460 ,3.62850 ,35.60284 
110 ,20.2162 ,0.89640 ,3.60454 ,35.36779 
111 ,20.3927 ,0.89806 ,3.59086 ,35.23348 
112 ,20.5687 ,0.89985 ,3.57375 ,35.06559 
113 ,20.7448 ,0.90157 ,3.57375 ,35.06559 
114 ,20.9209 ,0.90335 ,3.54979 ,34.83054 
115 ,21.0969 ,0.90513 ,3.52584 ,34.59549 
116 ,21.2730 ,0.90680 ,3.52241 ,34.56192 
117 ,21.4491 ,0.90864 ,3.50530 ,34.39402 
118 ,21.6413 ,0.91052 ,3.49504 ,34.29329 
119 ,21.8175 ,0.91230 ,3.47108 ,34.05824 
120 ,21.9934 ,0.91406 ,3.44713 ,33.82319 
121 ,22.1695 ,0.91587 ,3.42659 ,33.62172 
122 ,22.3454 ,0.91760 ,3.42317 ,33.58814 
123 ,22.5214 ,0.91934 ,3.41290 ,33.48741 
124 ,22.7136 ,0.92118 ,3.38210 ,33.18520 
125 ,22.8896 ,0.92298 ,3.36499 ,33.01731 
126 ,23.0818 ,0.92492 ,3.35815 ,32.95016 
127 ,23.2578 ,0.92667 ,3.33077 ,32.68153 
128 ,23.4178 ,0.92840 ,3.31366 ,32.51364 
129 ,23.5940 ,0.93002 ,3.29313 ,32.31217 
130 ,23.7702 ,0.93182 ,3.28286 ,32.21143 
131 ,23.9462 ,0.93364 ,3.26917 ,32.07712 
132 ,24.1222 ,0.93536 ,3.26575 ,32.04354 
133 ,24.2982 ,0.93712 ,3.25206 ,31.90923 
134 ,24.4580 ,0.93883 ,3.21100 ,31.50629 
135 ,24.6345 ,0.94050 ,3.21442 ,31.53987 
136 ,24.8104 ,0.94218 ,3.18362 ,31.23766 
137 ,24.9865 ,0.94400 ,3.17335 ,31.13693 
138 ,25.1625 ,0.94572 ,3.17335 ,31.13693 
139 ,25.3385 ,0.94750 ,3.15282 ,30.93546 
140 ,25.5308 ,0.94944 ,3.12544 ,30.66683 
141 ,25.7225 ,0.95132 ,3.10833 ,30.49894 
142 ,25.8985 ,0.95308 ,3.10833 ,30.49894 
143 ,26.0589 ,0.95479 ,3.08780 ,30.29747 
144 ,26.2351 ,0.95649 ,3.05700 ,29.99527 
145 ,26.4272 ,0.95836 ,3.02962 ,29.72664 
146 ,26.6192 ,0.96031 ,3.04331 ,29.86095 
147 ,26.7951 ,0.96206 ,3.02278 ,29.65948 
148 ,26.9713 ,0.96379 ,2.98171 ,29.25654 
149 ,27.1473 ,0.96553 ,2.97487 ,29.18939 
150 ,27.3237 ,0.96734 ,2.97487 ,29.18939 
151 ,27.5153 ,0.96920 ,2.95433 ,28.98792 
152 ,27.6917 ,0.97104 ,2.93038 ,28.75287 
153 ,27.8838 ,0.97298 ,2.92353 ,28.68571 
154 ,28.0758 ,0.97484 ,2.90300 ,28.48424 
155 ,28.2520 ,0.97656 ,2.87562 ,28.21562 
156 ,28.4441 ,0.97849 ,2.87562 ,28.21562 
157 ,28.6198 ,0.98035 ,2.86193 ,28.08130 
158 ,28.7961 ,0.98203 ,2.84482 ,27.91341 
159 ,28.9723 ,0.98384 ,2.82429 ,27.71194 
160 ,29.1643 ,0.98573 ,2.80718 ,27.54405 
161 ,29.3400 ,0.98745 ,2.79349 ,27.40974 
162 ,29.5325 ,0.98935 ,2.77638 ,27.24185 
163 ,29.7246 ,0.99124 ,2.75243 ,27.00680 
164 ,29.9166 ,0.99325 ,2.74900 ,26.97322 
165 ,30.0926 ,0.99504 ,2.72505 ,26.73817 
166 ,30.2687 ,0.99676 ,2.69425 ,26.43597 
167 ,30.4287 ,0.99850 ,2.68740 ,26.36881 
168 ,30.6205 ,1.00023 ,2.66345 ,26.13376 
169 ,30.7970 ,1.00207 ,2.66003 ,26.10018 
170 ,30.9731 ,1.00385 ,2.63949 ,25.89871 
171 ,31.1651 ,1.00576 ,2.61554 ,25.66367 
172 ,31.3410 ,1.00752 ,2.60527 ,25.56293 
173 ,31.5173 ,1.00928 ,2.59843 ,25.49577 
174 ,31.7089 ,1.01116 ,2.57447 ,25.26073 
175 ,31.8853 ,1.01290 ,2.55736 ,25.09283 
176 ,32.0611 ,1.01466 ,2.54025 ,24.92494 
177 ,32.2373 ,1.01647 ,2.54025 ,24.92494 
178 ,32.4295 ,1.01835 ,2.51972 ,24.72347 
179 ,32.6377 ,1.02036 ,2.50261 ,24.55558 
180 ,32.7976 ,1.02220 ,2.48892 ,24.42127 
181 ,32.9738 ,1.02379 ,2.48207 ,24.35411 
182 ,33.1499 ,1.02558 ,2.45470 ,24.08549 
183 ,33.3258 ,1.02737 ,2.42732 ,23.81686 
184 ,33.5181 ,1.02927 ,2.43759 ,23.91759 
185 ,33.6941 ,1.03108 ,2.41705 ,23.71612 
186 ,33.8702 ,1.03277 ,2.41021 ,23.64897 
187 ,34.0623 ,1.03469 ,2.37256 ,23.27961 
188 ,34.2384 ,1.03645 ,2.36914 ,23.24603 
189 ,34.4141 ,1.03819 ,2.35888 ,23.14529 
190 ,34.5905 ,1.03997 ,2.34177 ,22.97740 
191 ,34.7825 ,1.04189 ,2.31439 ,22.70877 
192 ,34.9747 ,1.04387 ,2.30754 ,22.64162 
193 ,35.1504 ,1.04559 ,2.29043 ,22.47373 
194 ,35.3424 ,1.04749 ,2.26990 ,22.27226 
195 ,35.5189 ,1.04924 ,2.25621 ,22.13794 
196 ,35.6790 ,1.05096 ,2.24252 ,22.00363 
197 ,35.8551 ,1.05265 ,2.24252 ,22.00363 
198 ,36.0469 ,1.05459 ,2.20488 ,21.63427 
199 ,36.2392 ,1.05648 ,2.20146 ,21.60069 
200 ,36.4151 ,1.05820 ,2.19119 ,21.49996 
201 ,36.5912 ,1.05998 ,2.17408 ,21.33206 
202 ,36.7674 ,1.06173 ,2.14670 ,21.06344 
203 ,36.9591 ,1.06364 ,2.14328 ,21.02986 
204 ,37.1515 ,1.06549 ,2.12275 ,20.82839 
205 ,37.3277 ,1.06737 ,2.11248 ,20.72766 
206 ,37.5194 ,1.06923 ,2.07826 ,20.39187 
207 ,37.7118 ,1.07109 ,2.07826 ,20.39187 
208 ,37.8878 ,1.07295 ,2.05773 ,20.19040 
209 ,38.0479 ,1.07463 ,2.04061 ,20.02251 
210 ,38.2241 ,1.07633 ,2.02008 ,19.82104 
211 ,38.3999 ,1.07808 ,2.01666 ,19.78746 
212 ,38.5922 ,1.07990 ,2.00639 ,19.68673 
213 ,38.7683 ,1.08177 ,1.99955 ,19.61957 
214 ,38.9446 ,1.08353 ,1.96190 ,19.25021 
215 ,39.1202 ,1.08524 ,1.96190 ,19.25021 
216 ,39.3125 ,1.08719 ,1.94822 ,19.11590 
217 ,39.4884 ,1.08901 ,1.92084 ,18.84727 
218 ,39.6645 ,1.09076 ,1.91057 ,18.74654 
219 ,39.8409 ,1.09247 ,1.89688 ,18.61222 
220 ,40.0167 ,1.09425 ,1.89346 ,18.57864 
221 ,40.1768 ,1.09594 ,1.89004 ,18.54507 
222 ,40.3689 ,1.09769 ,1.86266 ,18.27644 
223 ,40.5451 ,1.09951 ,1.85240 ,18.17570 
224 ,40.7209 ,1.10129 ,1.82160 ,17.87350 
225 ,40.8970 ,1.10302 ,1.82160 ,17.87350 
226 ,41.0728 ,1.10475 ,1.80791 ,17.73919 
227 ,41.2492 ,1.10655 ,1.80106 ,17.67203 
228 ,41.4414 ,1.10844 ,1.77711 ,17.43698 
229 ,41.6333 ,1.11031 ,1.75315 ,17.20193 
230 ,41.8251 ,1.11235 ,1.74973 ,17.16836 
231 ,42.0012 ,1.11405 ,1.73946 ,17.06762 
232 ,42.1774 ,1.11583 ,1.72235 ,16.89973 
233 ,42.3535 ,1.11752 ,1.70866 ,16.76542 
234 ,42.5296 ,1.11929 ,1.69155 ,16.59752 
235 ,42.7057 ,1.12106 ,1.68129 ,16.49679 
236 ,42.9138 ,1.12312 ,1.66760 ,16.36248 
237 ,43.0899 ,1.12494 ,1.64707 ,16.16101 
238 ,43.2659 ,1.12672 ,1.63680 ,16.06027 
239 ,43.4421 ,1.12845 ,1.61627 ,15.85880 
240 ,43.6341 ,1.13044 ,1.60258 ,15.72449 
241 ,43.8262 ,1.13219 ,1.59916 ,15.69091 
242 ,44.0021 ,1.13407 ,1.56836 ,15.38871 
243 ,44.1942 ,1.13589 ,1.55809 ,15.28797 
244 ,44.3702 ,1.13772 ,1.55809 ,15.28797 
245 ,44.5464 ,1.13947 ,1.54098 ,15.12008 
246 ,44.7226 ,1.14121 ,1.51702 ,14.88503 
247 ,44.9307 ,1.14328 ,1.50333 ,14.75072 
248 ,45.1068 ,1.14513 ,1.49991 ,14.71714 
249 ,45.2825 ,1.14689 ,1.47938 ,14.51567 
250 ,45.4589 ,1.14869 ,1.45885 ,14.31420 
251 ,45.6509 ,1.15052 ,1.46227 ,14.34778 
252 ,45.8428 ,1.15243 ,1.43489 ,14.07915 
253 ,46.0190 ,1.15421 ,1.41094 ,13.84410 
254 ,46.1950 ,1.15600 ,1.41778 ,13.91126 
255 ,46.3712 ,1.15785 ,1.40409 ,13.77695 
256 ,46.5474 ,1.15946 ,1.40409 ,13.77695 
257 ,46.7554 ,1.16148 ,1.36303 ,13.37401 
258 ,46.9315 ,1.16338 ,1.36303 ,13.37401 
259 ,47.1075 ,1.16504 ,1.35960 ,13.34043 
260 ,47.2836 ,1.16682 ,1.32538 ,13.00465 
261 ,47.4752 ,1.16876 ,1.31854 ,12.93749 
262 ,47.6518 ,1.17058 ,1.31169 ,12.87033 
263 ,47.8599 ,1.17253 ,1.28432 ,12.60171 
264 ,48.0357 ,1.17441 ,1.27063 ,12.46739 
265 ,48.2120 ,1.17615 ,1.26378 ,12.40024 
266 ,48.3717 ,1.17784 ,1.26036 ,12.36666 
267 ,48.5482 ,1.17948 ,1.25009 ,12.26592 
268 ,48.7401 ,1.18145 ,1.21587 ,11.93014 
269 ,48.9162 ,1.18316 ,1.21587 ,11.93014 
270 ,49.0923 ,1.18496 ,1.20903 ,11.86298 
271 ,49.2683 ,1.18667 ,1.18850 ,11.66151 
272 ,49.4444 ,1.18843 ,1.17138 ,11.49362 
273 ,49.6363 ,1.19036 ,1.15085 ,11.29215 
274 ,49.8126 ,1.19212 ,1.15427 ,11.32573 
275 ,49.9887 ,1.19387 ,1.14058 ,11.19142 
276 ,50.1648 ,1.19569 ,1.13716 ,11.15784 
277 ,50.3409 ,1.19741 ,1.09952 ,10.78848 
278 ,50.5487 ,1.19944 ,1.10294 ,10.82206 
279 ,50.7250 ,1.20124 ,1.09267 ,10.72132 
280 ,50.9011 ,1.20298 ,1.05503 ,10.35196 
281 ,51.0930 ,1.20495 ,1.05161 ,10.31838 
282 ,51.2693 ,1.20671 ,1.04476 ,10.25123 
283 ,51.4611 ,1.20861 ,1.02081 ,10.01618 
284 ,51.6375 ,1.21040 ,1.01396 ,9.94902 
285 ,51.8131 ,1.21215 ,0.99343 ,9.74755 
286 ,52.0056 ,1.21394 ,0.99685 ,9.78113 
287 ,52.1977 ,1.21600 ,0.96948 ,9.51250 
288 ,52.3897 ,1.21786 ,0.96948 ,9.51250 
289 ,52.5655 ,1.21962 ,0.95579 ,9.37819 
290 ,52.7416 ,1.22149 ,0.93868 ,9.21030 
291 ,52.9181 ,1.22318 ,0.92157 ,9.04241 
292 ,53.0940 ,1.22493 ,0.90446 ,8.87451 
293 ,53.2861 ,1.22685 ,0.90788 ,8.90809 
294 ,53.4781 ,1.22879 ,0.86681 ,8.50515 
295 ,53.6538 ,1.23053 ,0.87023 ,8.53873 
296 ,53.8304 ,1.23229 ,0.87023 ,8.53873 
297 ,54.0064 ,1.23413 ,0.85654 ,8.40442 
298 ,54.1822 ,1.23582 ,0.83601 ,8.20295 
299 ,54.3741 ,1.23770 ,0.83601 ,8.20295 
300 ,54.5504 ,1.23949 ,0.81548 ,8.00148 
301 ,54.7266 ,1.24125 ,0.80179 ,7.86717 
302 ,54.9025 ,1.24297 ,0.78810 ,7.73285 
303 ,55.0787 ,1.24481 ,0.77099 ,7.56496 
304 ,55.2549 ,1.24652 ,0.75046 ,7.36349 
305 ,55.4469 ,1.24845 ,0.75388 ,7.39707 
306 ,55.6231 ,1.25025 ,0.73335 ,7.19560 
307 ,55.7988 ,1.25197 ,0.72650 ,7.12844 
308 ,55.9752 ,1.25378 ,0.69913 ,6.85982 
309 ,56.1673 ,1.25570 ,0.69570 ,6.82624 
310 ,56.3433 ,1.25748 ,0.70255 ,6.89340 
311 ,56.5194 ,1.25917 ,0.67175 ,6.59119 
312 ,56.6955 ,1.26095 ,0.65464 ,6.42330 
313 ,56.8713 ,1.26277 ,0.65121 ,6.38972 
314 ,57.0636 ,1.26468 ,0.65121 ,6.38972 
315 ,57.2556 ,1.26644 ,0.62384 ,6.12109 
316 ,57.4478 ,1.26847 ,0.61699 ,6.05394 
317 ,57.6233 ,1.27020 ,0.61357 ,6.02036 
318 ,57.7994 ,1.27198 ,0.59988 ,5.88605 
319 ,57.9756 ,1.27374 ,0.56908 ,5.58384 
320 ,58.1521 ,1.27552 ,0.54513 ,5.34879 
321 ,58.3439 ,1.27743 ,0.54855 ,5.38237 
322 ,58.5202 ,1.27919 ,0.54855 ,5.38237 
323 ,58.7283 ,1.28113 ,0.51775 ,5.08017 
324 ,58.9043 ,1.28303 ,0.52117 ,5.11375 
325 ,59.0963 ,1.28486 ,0.51091 ,5.01301 
326 ,59.2885 ,1.28677 ,0.47668 ,4.67723 
327 ,59.4646 ,1.28864 ,0.47326 ,4.64365 
328 ,59.6566 ,1.29053 ,0.46300 ,4.54291 
329 ,59.8326 ,1.29237 ,0.45273 ,4.44218 
330 ,60.0088 ,1.29402 ,0.43220 ,4.24071 
331 ,60.2009 ,1.29591 ,0.43220 ,4.24071 
332 ,60.3771 ,1.29779 ,0.41166 ,4.03924 
333 ,60.5533 ,1.29953 ,0.40140 ,3.93850 
334 ,60.7448 ,1.30144 ,0.39455 ,3.87135 
335 ,60.9208 ,1.30314 ,0.38086 ,3.73703 
336 ,61.0972 ,1.30495 ,0.36033 ,3.53557 
337 ,61.2734 ,1.30668 ,0.33980 ,3.33410 
338 ,61.4654 ,1.30864 ,0.35349 ,3.46841 
339 ,61.6417 ,1.31042 ,0.33980 ,3.33410 
340 ,61.8175 ,1.31215 ,0.31926 ,3.13263 
341 ,62.0096 ,1.31406 ,0.29189 ,2.86400 
342 ,62.1858 ,1.31584 ,0.28847 ,2.83042 
343 ,62.3618 ,1.31760 ,0.28504 ,2.79684 
344 ,62.5378 ,1.31945 ,0.26793 ,2.62895 
345 ,62.7139 ,1.32110 ,0.25424 ,2.49464 
346 ,62.9061 ,1.32294 ,0.23713 ,2.32675 
347 ,63.1139 ,1.32503 ,0.24398 ,2.39390 
348 ,63.2901 ,1.32692 ,0.22687 ,2.22601 
349 ,63.4500 ,1.32858 ,0.19949 ,1.95738 
350 ,63.6423 ,1.33040 ,0.20633 ,2.02454 
351 ,63.8182 ,1.33215 ,0.19949 ,1.95738 
352 ,64.0104 ,1.33404 ,0.16869 ,1.65518 
353 ,64.1865 ,1.33584 ,0.15158 ,1.48729 
354 ,64.3625 ,1.33757 ,0.14816 ,1.45371 
355 ,64.5386 ,1.33944 ,0.13789 ,1.35298 
356 ,64.7148 ,1.34107 ,0.12762 ,1.25224 
357 ,64.8909 ,1.34288 ,0.11051 ,1.08435 
358 ,65.0827 ,1.34470 ,0.09340 ,0.91646 
359 ,65.2590 ,1.34656 ,0.09340 ,0.91646 
360 ,65.4509 ,1.34846 ,0.07287 ,0.71499 
361 ,65.6272 ,1.35022 ,0.05234 ,0.51352 
362 ,65.8032 ,1.35197 ,0.05576 ,0.54710 
363 ,65.9793 ,1.35372 ,0.05234 ,0.51352 
364 ,66.1551 ,1.35554 ,0.03522 ,0.34563 
365 ,66.3314 ,1.35725 ,0.02154 ,0.21131 
366 ,66.5074 ,1.35904 ,0.00100 ,0.00984 
367 ,66.6836 ,1.36083 ,-0.00926 ,-0.09089 
368 ,66.8597 ,1.36255 ,-0.00926 ,-0.09089 
369 ,67.0518 ,1.36443 ,-0.04006 ,-0.39310 
370 ,67.2275 ,1.36624 ,-0.04348 ,-0.42667 
371 ,67.4038 ,1.36797 ,-0.03664 ,-0.35952 
372 ,67.5960 ,1.36987 ,-0.05717 ,-0.56099 
373 ,67.7721 ,1.37172 ,-0.07086 ,-0.69530 
374 ,67.9482 ,1.37344 ,-0.09140 ,-0.89677 
375 ,68.1403 ,1.37529 ,-0.11877 ,-1.16540 
376 ,68.3163 ,1.37711 ,-0.08797 ,-0.86319 
377 ,68.4763 ,1.37882 ,-0.12219 ,-1.19898 
378 ,68.6525 ,1.38048 ,-0.12904 ,-1.26613 
379 ,68.8444 ,1.38239 ,-0.14957 ,-1.46760 
380 ,69.0367 ,1.38430 ,-0.14615 ,-1.43402 
381 ,69.2126 ,1.38612 ,-0.15984 ,-1.56834 
382 ,69.3885 ,1.38787 ,-0.17695 ,-1.73623 
383 ,69.5808 ,1.38972 ,-0.17011 ,-1.66907 
384 ,69.7570 ,1.39153 ,-0.19406 ,-1.90412 
385 ,69.9490 ,1.39344 ,-0.21117 ,-2.07201 
386 ,70.1249 ,1.39520 ,-0.22486 ,-2.20632 
387 ,70.3330 ,1.39715 ,-0.23170 ,-2.27348 
388 ,70.5413 ,1.39922 ,-0.23855 ,-2.34064 
389 ,70.7174 ,1.40109 ,-0.24539 ,-2.40779 
390 ,70.9094 ,1.40306 ,-0.26935 ,-2.64284 
391 ,71.1175 ,1.40500 ,-0.27277 ,-2.67642 
392 ,71.2936 ,1.40691 ,-0.28304 ,-2.77716 
393 ,71.4697 ,1.40861 ,-0.30357 ,-2.97863 
394 ,71.6459 ,1.41036 ,-0.31726 ,-3.11294 
395 ,71.8539 ,1.41239 ,-0.31726 ,-3.11294 
396 ,72.0299 ,1.41422 ,-0.34806 ,-3.41514 
397 ,72.2220 ,1.41622 ,-0.35490 ,-3.48230 
398 ,72.3981 ,1.41794 ,-0.35490 ,-3.48230 
399 ,72.5742 ,1.41969 ,-0.36175 ,-3.54946 
400 ,72.7662 ,1.42161 ,-0.38912 ,-3.81808 
401 ,72.9422 ,1.42333 ,-0.38228 ,-3.75093 
402 ,73.1344 ,1.42514 ,-0.39939 ,-3.91882 
403 ,73.3264 ,1.42717 ,-0.41650 ,-4.08671 
404 ,73.4861 ,1.42892 ,-0.41650 ,-4.08671 
405 ,73.6625 ,1.43055 ,-0.44046 ,-4.32176 
406 ,73.8545 ,1.43246 ,-0.43361 ,-4.25460 
407 ,74.0468 ,1.43435 ,-0.45414 ,-4.45607 
408 ,74.2228 ,1.43617 ,-0.45414 ,-4.45607 
409 ,74.4149 ,1.43805 ,-0.45072 ,-4.42249 
410 ,74.5910 ,1.43988 ,-0.46099 ,-4.52323 
411 ,74.7671 ,1.44157 ,-0.49179 ,-4.82543 
412 ,74.9434 ,1.44334 ,-0.50206 ,-4.92617 
413 ,75.1352 ,1.44525 ,-0.49521 ,-4.85901 
414 ,75.3113 ,1.44703 ,-0.50206 ,-4.92617 
415 ,75.4713 ,1.44875 ,-0.53285 ,-5.22837 
416 ,75.6476 ,1.45034 ,-0.53628 ,-5.26195 
417 ,75.8394 ,1.45229 ,-0.56023 ,-5.49700 
418 ,76.0155 ,1.45412 ,-0.56023 ,-5.49700 
419 ,76.1915 ,1.45584 ,-0.56365 ,-5.53058 
420 ,76.3677 ,1.45763 ,-0.58419 ,-5.73205 
421 ,76.5438 ,1.45945 ,-0.59445 ,-5.83278 
422 ,76.7038 ,1.46107 ,-0.60814 ,-5.96709 
423 ,76.8799 ,1.46269 ,-0.62183 ,-6.10141 
424 ,77.0561 ,1.46446 ,-0.61841 ,-6.06783 
425 ,77.2320 ,1.46624 ,-0.62525 ,-6.13499 
426 ,77.4080 ,1.46798 ,-0.65263 ,-6.40361 
427 ,77.6162 ,1.46999 ,-0.65947 ,-6.47077 
428 ,77.7762 ,1.47177 ,-0.66632 ,-6.53793 
429 ,77.9684 ,1.47359 ,-0.67659 ,-6.63866 
430 ,78.1448 ,1.47538 ,-0.69712 ,-6.84013 
431 ,78.3364 ,1.47728 ,-0.70054 ,-6.87371 
432 ,78.4962 ,1.47898 ,-0.69712 ,-6.84013 
433 ,78.6727 ,1.48059 ,-0.70739 ,-6.94086 
434 ,78.8645 ,1.48260 ,-0.73476 ,-7.20949 
435 ,79.0567 ,1.48448 ,-0.73818 ,-7.24307 
436 ,79.2328 ,1.48618 ,-0.75187 ,-7.37738 
437 ,79.4250 ,1.48815 ,-0.75872 ,-7.44454 
438 ,79.6168 ,1.49006 ,-0.76556 ,-7.51170 
439 ,79.8091 ,1.49195 ,-0.78610 ,-7.71317 
440 ,79.9851 ,1.49373 ,-0.79636 ,-7.81390 
441 ,80.1613 ,1.49550 ,-0.81689 ,-8.01537 
442 ,80.3533 ,1.49742 ,-0.82032 ,-8.04895 
443 ,80.5615 ,1.49949 ,-0.83401 ,-8.18326 
444 ,80.7377 ,1.50133 ,-0.84427 ,-8.28400 
445 ,80.9135 ,1.50302 ,-0.84427 ,-8.28400 
446 ,81.0897 ,1.50478 ,-0.84085 ,-8.25042 
447 ,81.2657 ,1.50653 ,-0.86823 ,-8.51904 
448 ,81.4421 ,1.50831 ,-0.87849 ,-8.61978 
449 ,81.6339 ,1.51022 ,-0.87507 ,-8.58620 
450 ,81.8098 ,1.51197 ,-0.88876 ,-8.72051 
451 ,82.0022 ,1.51380 ,-0.89560 ,-8.78767 
452 ,82.1942 ,1.51586 ,-0.92298 ,-9.05630 
453 ,82.3702 ,1.51765 ,-0.92298 ,-9.05630 
454 ,82.5463 ,1.51936 ,-0.93667 ,-9.19061 
455 ,82.7223 ,1.52112 ,-0.96063 ,-9.42566 
456 ,82.9141 ,1.52297 ,-0.95378 ,-9.35850 
457 ,83.0905 ,1.52475 ,-0.96747 ,-9.49282 
458 ,83.2827 ,1.52669 ,-0.98800 ,-9.69429 
459 ,83.4587 ,1.52848 ,-0.99827 ,-9.79502 
460 ,83.6507 ,1.53033 ,-1.00169 ,-9.82860 
461 ,83.8269 ,1.53214 ,-1.01538 ,-9.96291 
462 ,84.0187 ,1.53399 ,-1.03591 ,-10.16438 
463 ,84.2109 ,1.53599 ,-1.05302 ,-10.33227 
