Data stamp = , 29-03-2022 10:54:54 244

Calibration Values: 
Slope = , 26.54 , g/V 
Offset Voltage at no contact = , -0.501760 , V 

No , Time , Stage Position ,   Mass , Force 
   ,  (s) ,      (mm)      ,   (g)  , (mN)  

1 ,0.0000 ,0.69957 ,5.26772 ,51.68685 
2 ,0.2160 ,0.69963 ,5.27798 ,51.78758 
3 ,0.4401 ,0.70020 ,5.27114 ,51.72043 
4 ,0.6163 ,0.70114 ,5.26772 ,51.68685 
5 ,0.7927 ,0.70243 ,5.26772 ,51.68685 
6 ,0.9850 ,0.70417 ,5.24718 ,51.48538 
7 ,1.1605 ,0.70591 ,5.26430 ,51.65327 
8 ,1.3366 ,0.70761 ,5.27456 ,51.75401 
9 ,1.5289 ,0.70960 ,5.24376 ,51.45180 
10 ,1.7049 ,0.71135 ,5.22665 ,51.28391 
11 ,1.8811 ,0.71315 ,5.23007 ,51.31749 
12 ,2.0570 ,0.71493 ,5.20954 ,51.11602 
13 ,2.2332 ,0.71668 ,5.19927 ,51.01528 
14 ,2.4096 ,0.71846 ,5.18216 ,50.84739 
15 ,2.6172 ,0.72041 ,5.16505 ,50.67950 
16 ,2.8096 ,0.72244 ,5.14110 ,50.44445 
17 ,2.9856 ,0.72420 ,5.12399 ,50.27656 
18 ,3.1937 ,0.72617 ,5.11372 ,50.17583 
19 ,3.3696 ,0.72802 ,5.10345 ,50.07509 
20 ,3.5458 ,0.72974 ,5.08292 ,49.87362 
21 ,3.7376 ,0.73168 ,5.08292 ,49.87362 
22 ,3.9141 ,0.73346 ,5.06923 ,49.73931 
23 ,4.1061 ,0.73532 ,5.04528 ,49.50426 
24 ,4.2982 ,0.73729 ,5.02132 ,49.26921 
25 ,4.5059 ,0.73926 ,5.03159 ,49.36995 
26 ,4.6823 ,0.74118 ,4.99394 ,49.00058 
27 ,4.8743 ,0.74300 ,4.98368 ,48.89985 
28 ,5.0665 ,0.74485 ,4.98368 ,48.89985 
29 ,5.2584 ,0.74688 ,4.93919 ,48.46333 
30 ,5.4181 ,0.74860 ,4.93919 ,48.46333 
31 ,5.5945 ,0.75020 ,4.92208 ,48.29544 
32 ,5.7865 ,0.75213 ,4.89812 ,48.06039 
33 ,5.9623 ,0.75391 ,4.87417 ,47.82534 
34 ,6.1389 ,0.75573 ,4.86390 ,47.72461 
35 ,6.3306 ,0.75762 ,4.85021 ,47.59030 
36 ,6.5068 ,0.75940 ,4.83310 ,47.42240 
37 ,6.6830 ,0.76115 ,4.81599 ,47.25451 
38 ,6.8753 ,0.76302 ,4.81257 ,47.22093 
39 ,7.0512 ,0.76485 ,4.79546 ,47.05304 
40 ,7.2433 ,0.76675 ,4.76466 ,46.75084 
41 ,7.4191 ,0.76848 ,4.74070 ,46.51579 
42 ,7.5955 ,0.77025 ,4.74070 ,46.51579 
43 ,7.7877 ,0.77220 ,4.72359 ,46.34790 
44 ,7.9795 ,0.77414 ,4.69964 ,46.11285 
45 ,8.1553 ,0.77589 ,4.68595 ,45.97854 
46 ,8.3318 ,0.77759 ,4.68595 ,45.97854 
47 ,8.5236 ,0.77954 ,4.65173 ,45.64275 
48 ,8.6999 ,0.78131 ,4.63462 ,45.47486 
49 ,8.8920 ,0.78326 ,4.63804 ,45.50844 
50 ,9.0840 ,0.78517 ,4.61066 ,45.23981 
51 ,9.2601 ,0.78688 ,4.56617 ,44.80330 
52 ,9.4518 ,0.78879 ,4.58671 ,45.00477 
53 ,9.6283 ,0.79053 ,4.55591 ,44.70256 
54 ,9.8043 ,0.79234 ,4.54564 ,44.60183 
55 ,9.9965 ,0.79419 ,4.52169 ,44.36678 
56 ,10.1725 ,0.79609 ,4.50115 ,44.16531 
57 ,10.3486 ,0.79781 ,4.47378 ,43.89668 
58 ,10.5088 ,0.79947 ,4.45666 ,43.72879 
59 ,10.6687 ,0.80110 ,4.46351 ,43.79595 
60 ,10.8447 ,0.80272 ,4.44640 ,43.62806 
61 ,11.0210 ,0.80451 ,4.40875 ,43.25870 
62 ,11.1970 ,0.80620 ,4.40533 ,43.22512 
63 ,11.3729 ,0.80804 ,4.38480 ,43.02365 
64 ,11.5491 ,0.80977 ,4.37111 ,42.88933 
65 ,11.7250 ,0.81149 ,4.35742 ,42.75502 
66 ,11.9012 ,0.81332 ,4.31978 ,42.38566 
67 ,12.0772 ,0.81507 ,4.31636 ,42.35208 
68 ,12.3014 ,0.81706 ,4.29924 ,42.18419 
69 ,12.4775 ,0.81904 ,4.28213 ,42.01630 
70 ,12.6852 ,0.82109 ,4.26502 ,41.84841 
71 ,12.8776 ,0.82299 ,4.23765 ,41.57978 
72 ,13.0695 ,0.82502 ,4.23422 ,41.54620 
73 ,13.2617 ,0.82684 ,4.21711 ,41.37831 
74 ,13.4379 ,0.82862 ,4.18289 ,41.04253 
75 ,13.6139 ,0.83040 ,4.18289 ,41.04253 
76 ,13.7896 ,0.83213 ,4.17947 ,41.00895 
77 ,13.9662 ,0.83394 ,4.16236 ,40.84106 
78 ,14.1422 ,0.83573 ,4.13840 ,40.60601 
79 ,14.3346 ,0.83767 ,4.10418 ,40.27023 
80 ,14.5262 ,0.83952 ,4.10418 ,40.27023 
81 ,14.7023 ,0.84126 ,4.08707 ,40.10233 
82 ,14.8784 ,0.84304 ,4.06654 ,39.90087 
83 ,15.0545 ,0.84478 ,4.04600 ,39.69940 
84 ,15.2305 ,0.84658 ,4.03574 ,39.59866 
85 ,15.4068 ,0.84833 ,4.01863 ,39.43077 
86 ,15.5827 ,0.85008 ,4.00494 ,39.29646 
87 ,15.7749 ,0.85196 ,3.97414 ,38.99425 
88 ,15.9510 ,0.85378 ,3.94676 ,38.72562 
89 ,16.1430 ,0.85570 ,3.95018 ,38.75920 
90 ,16.3191 ,0.85749 ,3.93650 ,38.62489 
91 ,16.5108 ,0.85935 ,3.91254 ,38.38984 
92 ,16.6872 ,0.86112 ,3.89201 ,38.18837 
93 ,16.8794 ,0.86311 ,3.88858 ,38.15479 
94 ,17.0554 ,0.86483 ,3.84067 ,37.68470 
95 ,17.2473 ,0.86671 ,3.84752 ,37.75185 
96 ,17.4235 ,0.86847 ,3.83041 ,37.58396 
97 ,17.5835 ,0.87020 ,3.80987 ,37.38249 
98 ,17.7757 ,0.87195 ,3.77908 ,37.08029 
99 ,17.9673 ,0.87383 ,3.75512 ,36.84524 
100 ,18.1438 ,0.87567 ,3.76881 ,36.97955 
101 ,18.3197 ,0.87749 ,3.75512 ,36.84524 
102 ,18.4959 ,0.87920 ,3.71063 ,36.40872 
103 ,18.6880 ,0.88106 ,3.72432 ,36.54303 
104 ,18.8802 ,0.88294 ,3.70037 ,36.30799 
105 ,19.0561 ,0.88482 ,3.67641 ,36.07294 
106 ,19.2323 ,0.88659 ,3.64219 ,35.73716 
107 ,19.4244 ,0.88853 ,3.63534 ,35.67000 
108 ,19.6004 ,0.89026 ,3.63534 ,35.67000 
109 ,19.7926 ,0.89213 ,3.60112 ,35.33422 
110 ,19.9686 ,0.89395 ,3.58059 ,35.13275 
111 ,20.1445 ,0.89567 ,3.58401 ,35.16632 
112 ,20.3207 ,0.89748 ,3.56690 ,34.99843 
113 ,20.4968 ,0.89920 ,3.54637 ,34.79696 
114 ,20.6889 ,0.90112 ,3.53268 ,34.66265 
115 ,20.8809 ,0.90310 ,3.51557 ,34.49476 
116 ,21.0569 ,0.90478 ,3.49846 ,34.32687 
117 ,21.2331 ,0.90661 ,3.47450 ,34.09182 
118 ,21.4250 ,0.90852 ,3.46424 ,33.99108 
119 ,21.6012 ,0.91027 ,3.45397 ,33.89035 
120 ,21.7931 ,0.91214 ,3.43686 ,33.72246 
121 ,21.9854 ,0.91412 ,3.41633 ,33.52099 
122 ,22.1611 ,0.91588 ,3.41633 ,33.52099 
123 ,22.3376 ,0.91763 ,3.37868 ,33.15163 
124 ,22.5296 ,0.91957 ,3.35130 ,32.88300 
125 ,22.7218 ,0.92144 ,3.34788 ,32.84942 
126 ,22.8976 ,0.92326 ,3.34446 ,32.81584 
127 ,23.0739 ,0.92498 ,3.31366 ,32.51364 
128 ,23.2497 ,0.92673 ,3.27944 ,32.17786 
129 ,23.4420 ,0.92862 ,3.29313 ,32.31217 
130 ,23.6178 ,0.93039 ,3.26917 ,32.07712 
131 ,23.7941 ,0.93219 ,3.23837 ,31.77492 
132 ,23.9861 ,0.93402 ,3.24180 ,31.80849 
133 ,24.1624 ,0.93584 ,3.22468 ,31.64060 
134 ,24.3544 ,0.93772 ,3.19388 ,31.33840 
135 ,24.5461 ,0.93972 ,3.17677 ,31.17051 
136 ,24.7225 ,0.94144 ,3.17677 ,31.17051 
137 ,24.8984 ,0.94316 ,3.15282 ,30.93546 
138 ,25.0745 ,0.94501 ,3.13571 ,30.76757 
139 ,25.2507 ,0.94674 ,3.11518 ,30.56610 
140 ,25.4268 ,0.94848 ,3.09464 ,30.36463 
141 ,25.6188 ,0.95031 ,3.09464 ,30.36463 
142 ,25.7950 ,0.95218 ,3.06726 ,30.09600 
143 ,25.9710 ,0.95394 ,3.05700 ,29.99527 
144 ,26.1471 ,0.95566 ,3.03304 ,29.76022 
145 ,26.3390 ,0.95763 ,3.02962 ,29.72664 
146 ,26.5157 ,0.95938 ,3.01251 ,29.55875 
147 ,26.7074 ,0.96135 ,2.98171 ,29.25654 
148 ,26.8835 ,0.96308 ,2.97829 ,29.22297 
149 ,27.0595 ,0.96486 ,2.96802 ,29.12223 
150 ,27.2354 ,0.96659 ,2.95776 ,29.02150 
151 ,27.4112 ,0.96831 ,2.91669 ,28.61856 
152 ,27.5872 ,0.97006 ,2.90985 ,28.55140 
153 ,27.7637 ,0.97184 ,2.89273 ,28.38351 
154 ,27.9398 ,0.97362 ,2.88247 ,28.28277 
155 ,28.1319 ,0.97551 ,2.87220 ,28.18204 
156 ,28.3080 ,0.97725 ,2.84140 ,27.87983 
157 ,28.4840 ,0.97901 ,2.83114 ,27.77910 
158 ,28.6601 ,0.98077 ,2.82771 ,27.74552 
159 ,28.8359 ,0.98257 ,2.83114 ,27.77910 
160 ,29.0123 ,0.98435 ,2.79349 ,27.40974 
161 ,29.1883 ,0.98604 ,2.76269 ,27.10753 
162 ,29.3644 ,0.98783 ,2.76269 ,27.10753 
163 ,29.5241 ,0.98953 ,2.75585 ,27.04038 
164 ,29.7167 ,0.99127 ,2.72847 ,26.77175 
165 ,29.8926 ,0.99316 ,2.72505 ,26.73817 
166 ,30.0686 ,0.99491 ,2.70794 ,26.57028 
167 ,30.2444 ,0.99663 ,2.67029 ,26.20092 
168 ,30.4208 ,0.99844 ,2.68398 ,26.33523 
169 ,30.5806 ,1.00012 ,2.66687 ,26.16734 
170 ,30.7568 ,1.00175 ,2.63949 ,25.89871 
171 ,30.9331 ,1.00353 ,2.63607 ,25.86514 
172 ,31.1251 ,1.00545 ,2.60869 ,25.59651 
173 ,31.3012 ,1.00723 ,2.59158 ,25.42862 
174 ,31.4771 ,1.00899 ,2.57789 ,25.29430 
175 ,31.6533 ,1.01071 ,2.58474 ,25.36146 
176 ,31.8452 ,1.01267 ,2.54367 ,24.95852 
177 ,32.0376 ,1.01459 ,2.54710 ,24.99210 
178 ,32.2294 ,1.01653 ,2.51972 ,24.72347 
179 ,32.4217 ,1.01835 ,2.49234 ,24.45485 
180 ,32.6134 ,1.02026 ,2.48892 ,24.42127 
181 ,32.7898 ,1.02214 ,2.46496 ,24.18622 
182 ,32.9658 ,1.02382 ,2.44101 ,23.95117 
183 ,33.1420 ,1.02558 ,2.43416 ,23.88402 
184 ,33.3340 ,1.02745 ,2.43416 ,23.88402 
185 ,33.5101 ,1.02931 ,2.41363 ,23.68255 
186 ,33.6857 ,1.03103 ,2.39994 ,23.54823 
187 ,33.8622 ,1.03275 ,2.37599 ,23.31318 
188 ,34.0385 ,1.03456 ,2.37256 ,23.27961 
189 ,34.2145 ,1.03635 ,2.35888 ,23.14529 
190 ,34.4064 ,1.03828 ,2.32465 ,22.80951 
191 ,34.5665 ,1.03997 ,2.31097 ,22.67520 
192 ,34.7425 ,1.04163 ,2.30412 ,22.60804 
193 ,34.9346 ,1.04341 ,2.28701 ,22.44015 
194 ,35.1106 ,1.04532 ,2.28359 ,22.40657 
195 ,35.2867 ,1.04705 ,2.24937 ,22.07079 
196 ,35.4789 ,1.04886 ,2.23226 ,21.90290 
197 ,35.6708 ,1.05090 ,2.24937 ,22.07079 
198 ,35.8471 ,1.05269 ,2.20830 ,21.66785 
199 ,36.0230 ,1.05443 ,2.19803 ,21.56711 
200 ,36.2153 ,1.05625 ,2.18435 ,21.43280 
201 ,36.3913 ,1.05811 ,2.18092 ,21.39922 
202 ,36.5674 ,1.05986 ,2.15697 ,21.16417 
203 ,36.7591 ,1.06177 ,2.13301 ,20.92912 
204 ,36.9355 ,1.06358 ,2.12275 ,20.82839 
205 ,37.1275 ,1.06547 ,2.10564 ,20.66050 
206 ,37.3037 ,1.06722 ,2.08510 ,20.45903 
207 ,37.4798 ,1.06900 ,2.07484 ,20.35829 
208 ,37.6718 ,1.07085 ,2.06799 ,20.29114 
209 ,37.8475 ,1.07266 ,2.05773 ,20.19040 
210 ,38.0238 ,1.07444 ,2.03035 ,19.92178 
211 ,38.2001 ,1.07620 ,2.00982 ,19.72031 
212 ,38.3760 ,1.07795 ,2.00982 ,19.72031 
213 ,38.5680 ,1.07982 ,1.98586 ,19.48526 
214 ,38.7602 ,1.08170 ,1.97902 ,19.41810 
215 ,38.9523 ,1.08365 ,1.95506 ,19.18305 
216 ,39.1602 ,1.08570 ,1.93111 ,18.94801 
217 ,39.3365 ,1.08756 ,1.91742 ,18.81369 
218 ,39.5130 ,1.08933 ,1.92426 ,18.88085 
219 ,39.6886 ,1.09105 ,1.90373 ,18.67938 
220 ,39.8805 ,1.09289 ,1.89688 ,18.61222 
221 ,40.0728 ,1.09483 ,1.85924 ,18.24286 
222 ,40.2649 ,1.09672 ,1.86266 ,18.27644 
223 ,40.4568 ,1.09873 ,1.82844 ,17.94066 
224 ,40.6326 ,1.10047 ,1.83186 ,17.97423 
225 ,40.8251 ,1.10232 ,1.82502 ,17.90708 
226 ,41.0172 ,1.10433 ,1.77369 ,17.40340 
227 ,41.2091 ,1.10621 ,1.78737 ,17.53772 
228 ,41.3853 ,1.10803 ,1.76684 ,17.33625 
229 ,41.5613 ,1.10980 ,1.74631 ,17.13478 
230 ,41.7534 ,1.11175 ,1.73604 ,17.03404 
231 ,41.9455 ,1.11360 ,1.71551 ,16.83257 
232 ,42.1376 ,1.11547 ,1.69498 ,16.63110 
233 ,42.3456 ,1.11752 ,1.69155 ,16.59752 
234 ,42.5217 ,1.11936 ,1.66418 ,16.32890 
235 ,42.6978 ,1.12109 ,1.65391 ,16.22816 
236 ,42.8899 ,1.12309 ,1.65049 ,16.19458 
237 ,43.0659 ,1.12483 ,1.64022 ,16.09385 
238 ,43.2580 ,1.12672 ,1.60942 ,15.79164 
239 ,43.4339 ,1.12851 ,1.58889 ,15.59018 
240 ,43.6104 ,1.13029 ,1.59573 ,15.65733 
241 ,43.7862 ,1.13214 ,1.57178 ,15.42228 
242 ,43.9784 ,1.13391 ,1.54782 ,15.18724 
243 ,44.1543 ,1.13571 ,1.53756 ,15.08650 
244 ,44.3465 ,1.13764 ,1.53413 ,15.05292 
245 ,44.5225 ,1.13940 ,1.52045 ,14.91861 
246 ,44.6985 ,1.14118 ,1.51018 ,14.81787 
247 ,44.8746 ,1.14290 ,1.48622 ,14.58283 
248 ,45.0504 ,1.14465 ,1.48280 ,14.54925 
249 ,45.2269 ,1.14644 ,1.47596 ,14.48209 
250 ,45.4190 ,1.14836 ,1.45200 ,14.24704 
251 ,45.5950 ,1.15016 ,1.43489 ,14.07915 
252 ,45.7871 ,1.15199 ,1.42805 ,14.01199 
253 ,45.9791 ,1.15396 ,1.40067 ,13.74337 
254 ,46.1548 ,1.15570 ,1.39040 ,13.64263 
255 ,46.3315 ,1.15745 ,1.39725 ,13.70979 
256 ,46.5078 ,1.15925 ,1.38356 ,13.57548 
257 ,46.6833 ,1.16102 ,1.37329 ,13.47474 
258 ,46.8594 ,1.16275 ,1.34249 ,13.17254 
259 ,47.0356 ,1.16447 ,1.32196 ,12.97107 
260 ,47.2118 ,1.16628 ,1.30827 ,12.83675 
261 ,47.3877 ,1.16803 ,1.31512 ,12.90391 
262 ,47.5638 ,1.16979 ,1.30485 ,12.80318 
263 ,47.7400 ,1.17154 ,1.29116 ,12.66886 
264 ,47.9161 ,1.17335 ,1.26720 ,12.43381 
265 ,48.1079 ,1.17518 ,1.23983 ,12.16519 
266 ,48.2841 ,1.17695 ,1.25694 ,12.33308 
267 ,48.4602 ,1.17874 ,1.21929 ,11.96372 
268 ,48.6360 ,1.18047 ,1.20903 ,11.86298 
269 ,48.8122 ,1.18227 ,1.19192 ,11.69509 
270 ,48.9885 ,1.18397 ,1.18507 ,11.62794 
271 ,49.1644 ,1.18579 ,1.17823 ,11.56078 
272 ,49.3245 ,1.18750 ,1.16796 ,11.46004 
273 ,49.5172 ,1.18926 ,1.14058 ,11.19142 
274 ,49.6926 ,1.19107 ,1.12005 ,10.98995 
275 ,49.8687 ,1.19279 ,1.11663 ,10.95637 
276 ,50.0448 ,1.19457 ,1.11663 ,10.95637 
277 ,50.2210 ,1.19638 ,1.10294 ,10.82206 
278 ,50.4132 ,1.19826 ,1.07899 ,10.58701 
279 ,50.6052 ,1.20022 ,1.07214 ,10.51985 
280 ,50.7973 ,1.20206 ,1.04476 ,10.25123 
281 ,50.9732 ,1.20388 ,1.03450 ,10.15049 
282 ,51.1492 ,1.20563 ,1.03108 ,10.11691 
283 ,51.3250 ,1.20737 ,1.01739 ,9.98260 
284 ,51.5014 ,1.20912 ,1.01054 ,9.91544 
285 ,51.6614 ,1.21085 ,0.99001 ,9.71397 
286 ,51.8376 ,1.21248 ,0.96948 ,9.51250 
287 ,52.0137 ,1.21425 ,0.96948 ,9.51250 
288 ,52.1898 ,1.21602 ,0.94210 ,9.24388 
289 ,52.3815 ,1.21789 ,0.94894 ,9.31103 
290 ,52.5578 ,1.21970 ,0.92841 ,9.10956 
291 ,52.7340 ,1.22145 ,0.90788 ,8.90809 
292 ,52.9260 ,1.22340 ,0.88734 ,8.70662 
293 ,53.1021 ,1.22510 ,0.89761 ,8.80736 
294 ,53.2781 ,1.22688 ,0.88392 ,8.67305 
295 ,53.4540 ,1.22865 ,0.85997 ,8.43800 
296 ,53.6299 ,1.23041 ,0.83259 ,8.16937 
297 ,53.8065 ,1.23220 ,0.83259 ,8.16937 
298 ,53.9985 ,1.23411 ,0.82575 ,8.10221 
299 ,54.1744 ,1.23588 ,0.80179 ,7.86717 
300 ,54.3505 ,1.23763 ,0.78126 ,7.66570 
301 ,54.5427 ,1.23952 ,0.78810 ,7.73285 
302 ,54.7348 ,1.24144 ,0.76757 ,7.53138 
303 ,54.9110 ,1.24322 ,0.75046 ,7.36349 
304 ,55.0868 ,1.24502 ,0.73335 ,7.19560 
305 ,55.2626 ,1.24672 ,0.73335 ,7.19560 
306 ,55.4391 ,1.24853 ,0.73677 ,7.22918 
307 ,55.6308 ,1.25042 ,0.70255 ,6.89340 
308 ,55.8227 ,1.25226 ,0.70939 ,6.96055 
309 ,55.9828 ,1.25407 ,0.68886 ,6.75908 
310 ,56.1593 ,1.25571 ,0.67859 ,6.65835 
311 ,56.3675 ,1.25780 ,0.64095 ,6.28899 
312 ,56.5591 ,1.25969 ,0.63753 ,6.25541 
313 ,56.7511 ,1.26156 ,0.61357 ,6.02036 
314 ,56.9272 ,1.26338 ,0.60330 ,5.91962 
315 ,57.1033 ,1.26511 ,0.59304 ,5.81889 
316 ,57.2794 ,1.26694 ,0.58277 ,5.71815 
317 ,57.5039 ,1.26901 ,0.57935 ,5.68458 
318 ,57.6958 ,1.27103 ,0.57251 ,5.61742 
319 ,57.8880 ,1.27300 ,0.54855 ,5.38237 
320 ,58.0640 ,1.27473 ,0.52459 ,5.14732 
321 ,58.2402 ,1.27654 ,0.50748 ,4.97943 
322 ,58.4161 ,1.27832 ,0.50748 ,4.97943 
323 ,58.5924 ,1.28003 ,0.50748 ,4.97943 
324 ,58.7684 ,1.28182 ,0.50064 ,4.91228 
325 ,58.9764 ,1.28377 ,0.47668 ,4.67723 
326 ,59.1526 ,1.28564 ,0.45957 ,4.50934 
327 ,59.3286 ,1.28742 ,0.43904 ,4.30787 
328 ,59.5044 ,1.28918 ,0.42535 ,4.17355 
329 ,59.6807 ,1.29087 ,0.42535 ,4.17355 
330 ,59.8889 ,1.29278 ,0.40140 ,3.93850 
331 ,60.0969 ,1.29498 ,0.39797 ,3.90493 
332 ,60.2890 ,1.29688 ,0.38429 ,3.77061 
333 ,60.4811 ,1.29890 ,0.36718 ,3.60272 
334 ,60.6570 ,1.30068 ,0.35691 ,3.50199 
335 ,60.8332 ,1.30238 ,0.33980 ,3.33410 
336 ,61.0253 ,1.30428 ,0.31242 ,3.06547 
337 ,61.2014 ,1.30612 ,0.30558 ,2.99831 
338 ,61.3935 ,1.30794 ,0.30558 ,2.99831 
339 ,61.5856 ,1.30989 ,0.27135 ,2.66253 
340 ,61.7777 ,1.31187 ,0.26793 ,2.62895 
341 ,61.9699 ,1.31368 ,0.25767 ,2.52822 
342 ,62.1619 ,1.31572 ,0.22344 ,2.19243 
343 ,62.3376 ,1.31748 ,0.24740 ,2.42748 
344 ,62.5143 ,1.31920 ,0.23371 ,2.29317 
345 ,62.6900 ,1.32100 ,0.22002 ,2.15885 
346 ,62.8658 ,1.32275 ,0.20291 ,1.99096 
347 ,63.0420 ,1.32448 ,0.18238 ,1.78949 
348 ,63.2184 ,1.32626 ,0.18922 ,1.85665 
349 ,63.3943 ,1.32808 ,0.18238 ,1.78949 
350 ,63.5865 ,1.32987 ,0.15158 ,1.48729 
351 ,63.7620 ,1.33168 ,0.13447 ,1.31940 
352 ,63.9226 ,1.33340 ,0.13105 ,1.28582 
353 ,64.0987 ,1.33508 ,0.11393 ,1.11793 
354 ,64.2907 ,1.33696 ,0.10709 ,1.05077 
355 ,64.4668 ,1.33875 ,0.09682 ,0.95004 
356 ,64.6427 ,1.34047 ,0.08314 ,0.81572 
357 ,64.8348 ,1.34237 ,0.06945 ,0.68141 
358 ,65.0114 ,1.34420 ,0.06260 ,0.61425 
359 ,65.2030 ,1.34610 ,0.04207 ,0.41278 
360 ,65.3791 ,1.34787 ,0.03522 ,0.34563 
361 ,65.5713 ,1.34978 ,0.04207 ,0.41278 
362 ,65.7629 ,1.35164 ,0.01127 ,0.11058 
363 ,65.9394 ,1.35346 ,-0.00926 ,-0.09089 
364 ,66.1315 ,1.35540 ,-0.00242 ,-0.02373 
365 ,66.3075 ,1.35716 ,-0.00584 ,-0.05731 
366 ,66.4836 ,1.35889 ,-0.02295 ,-0.22520 
367 ,66.6593 ,1.36064 ,-0.04006 ,-0.39310 
368 ,66.8358 ,1.36241 ,-0.04006 ,-0.39310 
369 ,67.0275 ,1.36430 ,-0.04348 ,-0.42667 
370 ,67.2200 ,1.36617 ,-0.06060 ,-0.59457 
371 ,67.4120 ,1.36812 ,-0.06060 ,-0.59457 
372 ,67.5720 ,1.36991 ,-0.07086 ,-0.69530 
373 ,67.7639 ,1.37160 ,-0.09824 ,-0.96393 
374 ,67.9401 ,1.37344 ,-0.10851 ,-1.06466 
375 ,68.1158 ,1.37528 ,-0.10508 ,-1.03108 
376 ,68.2920 ,1.37700 ,-0.13931 ,-1.36687 
377 ,68.4683 ,1.37870 ,-0.12904 ,-1.26613 
378 ,68.6442 ,1.38051 ,-0.13931 ,-1.36687 
379 ,68.8206 ,1.38227 ,-0.15299 ,-1.50118 
380 ,68.9965 ,1.38402 ,-0.18379 ,-1.80338 
381 ,69.1726 ,1.38577 ,-0.16668 ,-1.63549 
382 ,69.3487 ,1.38753 ,-0.18037 ,-1.76981 
383 ,69.5248 ,1.38927 ,-0.19748 ,-1.93770 
384 ,69.7009 ,1.39106 ,-0.21802 ,-2.13917 
385 ,69.8930 ,1.39296 ,-0.22486 ,-2.20632 
386 ,70.0687 ,1.39475 ,-0.23170 ,-2.27348 
387 ,70.2450 ,1.39650 ,-0.25224 ,-2.47495 
388 ,70.4211 ,1.39831 ,-0.26593 ,-2.60926 
389 ,70.6132 ,1.40019 ,-0.26935 ,-2.64284 
390 ,70.7891 ,1.40196 ,-0.28646 ,-2.81073 
391 ,70.9654 ,1.40370 ,-0.28304 ,-2.77716 
392 ,71.1414 ,1.40554 ,-0.28988 ,-2.84431 
393 ,71.3335 ,1.40731 ,-0.30357 ,-2.97863 
394 ,71.5094 ,1.40914 ,-0.32410 ,-3.18010 
395 ,71.6856 ,1.41094 ,-0.32068 ,-3.14652 
396 ,71.8616 ,1.41265 ,-0.33779 ,-3.31441 
397 ,72.0539 ,1.41446 ,-0.37544 ,-3.68377 
398 ,72.2458 ,1.41651 ,-0.36859 ,-3.61661 
399 ,72.4218 ,1.41823 ,-0.38912 ,-3.81808 
400 ,72.5981 ,1.42002 ,-0.40281 ,-3.95240 
401 ,72.7742 ,1.42185 ,-0.41308 ,-4.05313 
402 ,72.9661 ,1.42374 ,-0.41992 ,-4.12029 
403 ,73.1423 ,1.42546 ,-0.42677 ,-4.18744 
404 ,73.3180 ,1.42736 ,-0.44730 ,-4.38891 
405 ,73.4939 ,1.42896 ,-0.45072 ,-4.42249 
406 ,73.6700 ,1.43074 ,-0.46783 ,-4.59038 
407 ,73.8300 ,1.43250 ,-0.46099 ,-4.52323 
408 ,74.0065 ,1.43418 ,-0.47810 ,-4.69112 
409 ,74.1987 ,1.43606 ,-0.49179 ,-4.82543 
410 ,74.3907 ,1.43794 ,-0.50548 ,-4.95975 
411 ,74.5668 ,1.43967 ,-0.49863 ,-4.89259 
412 ,74.7429 ,1.44148 ,-0.52943 ,-5.19479 
413 ,74.9349 ,1.44333 ,-0.52943 ,-5.19479 
414 ,75.1269 ,1.44520 ,-0.54312 ,-5.32911 
415 ,75.3031 ,1.44706 ,-0.54312 ,-5.32911 
416 ,75.4791 ,1.44884 ,-0.56365 ,-5.53058 
417 ,75.6552 ,1.45060 ,-0.57734 ,-5.66489 
418 ,75.8473 ,1.45244 ,-0.57734 ,-5.66489 
419 ,76.0394 ,1.45444 ,-0.60472 ,-5.93352 
420 ,76.2153 ,1.45622 ,-0.61156 ,-6.00067 
421 ,76.3912 ,1.45792 ,-0.62183 ,-6.10141 
422 ,76.5675 ,1.45971 ,-0.62183 ,-6.10141 
423 ,76.7597 ,1.46164 ,-0.63894 ,-6.26930 
424 ,76.9357 ,1.46340 ,-0.65263 ,-6.40361 
425 ,77.1278 ,1.46530 ,-0.65947 ,-6.47077 
426 ,77.3039 ,1.46703 ,-0.65263 ,-6.40361 
427 ,77.4959 ,1.46898 ,-0.68343 ,-6.70582 
428 ,77.6722 ,1.47078 ,-0.70054 ,-6.87371 
429 ,77.8640 ,1.47263 ,-0.69370 ,-6.80655 
430 ,78.0402 ,1.47445 ,-0.69370 ,-6.80655 
431 ,78.2323 ,1.47636 ,-0.73818 ,-7.24307 
432 ,78.4242 ,1.47830 ,-0.72107 ,-7.07518 
433 ,78.6004 ,1.48002 ,-0.73476 ,-7.20949 
434 ,78.7923 ,1.48198 ,-0.76214 ,-7.47812 
435 ,78.9685 ,1.48372 ,-0.77241 ,-7.57885 
436 ,79.1445 ,1.48542 ,-0.77583 ,-7.61243 
437 ,79.3206 ,1.48722 ,-0.78952 ,-7.74674 
438 ,79.4965 ,1.48895 ,-0.79294 ,-7.78032 
439 ,79.6884 ,1.49092 ,-0.81689 ,-8.01537 
440 ,79.8647 ,1.49262 ,-0.81347 ,-7.98179 
441 ,80.0568 ,1.49448 ,-0.81689 ,-8.01537 
442 ,80.2331 ,1.49633 ,-0.82716 ,-8.11611 
443 ,80.4250 ,1.49824 ,-0.84769 ,-8.31758 
444 ,80.6008 ,1.50001 ,-0.84427 ,-8.28400 
445 ,80.7932 ,1.50188 ,-0.86823 ,-8.51904 
446 ,80.9693 ,1.50369 ,-0.88876 ,-8.72051 
447 ,81.1454 ,1.50544 ,-0.88876 ,-8.72051 
448 ,81.3215 ,1.50724 ,-0.89218 ,-8.75409 
449 ,81.4976 ,1.50899 ,-0.89903 ,-8.82125 
450 ,81.6734 ,1.51073 ,-0.91272 ,-8.95556 
451 ,81.8497 ,1.51252 ,-0.93667 ,-9.19061 
452 ,82.0259 ,1.51431 ,-0.95036 ,-9.32492 
453 ,82.2178 ,1.51612 ,-0.93667 ,-9.19061 
454 ,82.3938 ,1.51794 ,-0.93667 ,-9.19061 
455 ,82.6020 ,1.51990 ,-0.95720 ,-9.39208 
456 ,82.7780 ,1.52180 ,-0.96747 ,-9.49282 
457 ,82.9702 ,1.52369 ,-0.99485 ,-9.76144 
458 ,83.1460 ,1.52543 ,-1.00169 ,-9.82860 
459 ,83.3224 ,1.52726 ,-1.00511 ,-9.86218 
460 ,83.5144 ,1.52915 ,-1.02907 ,-10.09723 
461 ,83.6902 ,1.53090 ,-1.02907 ,-10.09723 
462 ,83.8665 ,1.53271 ,-1.06329 ,-10.43301 
