Data stamp = , 29-03-2022 00:31:52 730

Calibration Values: 
Slope = , 26.54 , g/V 
Offset Voltage at no contact = , -0.501760 , V 

No , Time , Stage Position ,   Mass , Force 
   ,  (s) ,      (mm)      ,   (g)  , (mN)  

1 ,0.0000 ,0.69939 ,5.26430 ,51.65327 
2 ,0.2228 ,0.69947 ,5.25403 ,51.55254 
3 ,0.5429 ,0.70036 ,5.23350 ,51.35107 
4 ,0.7191 ,0.70171 ,5.25061 ,51.51896 
5 ,0.8951 ,0.70310 ,5.23350 ,51.35107 
6 ,1.0872 ,0.70493 ,5.26087 ,51.61969 
7 ,1.2633 ,0.70667 ,5.27798 ,51.78758 
8 ,1.4554 ,0.70865 ,5.24034 ,51.41822 
9 ,1.6474 ,0.71054 ,5.23350 ,51.35107 
10 ,1.8396 ,0.71251 ,5.22665 ,51.28391 
11 ,2.0155 ,0.71428 ,5.19927 ,51.01528 
12 ,2.1918 ,0.71605 ,5.18901 ,50.91455 
13 ,2.3677 ,0.71782 ,5.17874 ,50.81381 
14 ,2.5438 ,0.71955 ,5.16163 ,50.64592 
15 ,2.7199 ,0.72127 ,5.13083 ,50.34372 
16 ,2.8959 ,0.72304 ,5.11030 ,50.14225 
17 ,3.0880 ,0.72494 ,5.12741 ,50.31014 
18 ,3.2641 ,0.72675 ,5.10688 ,50.10867 
19 ,3.4563 ,0.72869 ,5.07950 ,49.84004 
20 ,3.6320 ,0.73044 ,5.06581 ,49.70573 
21 ,3.8087 ,0.73219 ,5.06581 ,49.70573 
22 ,3.9844 ,0.73398 ,5.04870 ,49.53784 
23 ,4.1764 ,0.73586 ,5.01790 ,49.23563 
24 ,4.3526 ,0.73764 ,5.00763 ,49.13490 
25 ,4.5287 ,0.73939 ,5.00763 ,49.13490 
26 ,4.7203 ,0.74131 ,4.99394 ,49.00058 
27 ,4.8965 ,0.74308 ,4.96999 ,48.76554 
28 ,5.0725 ,0.74481 ,4.94946 ,48.56407 
29 ,5.2490 ,0.74660 ,4.94603 ,48.53049 
30 ,5.4411 ,0.74853 ,4.93235 ,48.39618 
31 ,5.6169 ,0.75023 ,4.90497 ,48.12755 
32 ,5.7932 ,0.75203 ,4.88786 ,47.95966 
33 ,6.0014 ,0.75410 ,4.88101 ,47.89250 
34 ,6.1774 ,0.75593 ,4.86048 ,47.69103 
35 ,6.3694 ,0.75780 ,4.86732 ,47.75819 
36 ,6.5454 ,0.75958 ,4.84679 ,47.55672 
37 ,6.7214 ,0.76128 ,4.83310 ,47.42240 
38 ,6.8816 ,0.76300 ,4.79204 ,47.01946 
39 ,7.0577 ,0.76466 ,4.78519 ,46.95231 
40 ,7.2334 ,0.76637 ,4.77150 ,46.81800 
41 ,7.4099 ,0.76818 ,4.78177 ,46.91873 
42 ,7.5858 ,0.76997 ,4.76124 ,46.71726 
43 ,7.7940 ,0.77199 ,4.72359 ,46.34790 
44 ,7.9861 ,0.77390 ,4.72702 ,46.38148 
45 ,8.1781 ,0.77590 ,4.69622 ,46.07927 
46 ,8.3703 ,0.77766 ,4.67911 ,45.91138 
47 ,8.5623 ,0.77970 ,4.66884 ,45.81065 
48 ,8.7385 ,0.78148 ,4.63804 ,45.50844 
49 ,8.9304 ,0.78333 ,4.63804 ,45.50844 
50 ,9.1226 ,0.78527 ,4.61408 ,45.27339 
51 ,9.2986 ,0.78707 ,4.58328 ,44.97119 
52 ,9.4746 ,0.78880 ,4.58328 ,44.97119 
53 ,9.6509 ,0.79056 ,4.57302 ,44.87045 
54 ,9.8264 ,0.79236 ,4.56960 ,44.83688 
55 ,10.0031 ,0.79411 ,4.53880 ,44.53467 
56 ,10.1949 ,0.79603 ,4.50800 ,44.23247 
57 ,10.3711 ,0.79782 ,4.50457 ,44.19889 
58 ,10.5311 ,0.79950 ,4.49089 ,44.06457 
59 ,10.6911 ,0.80110 ,4.47378 ,43.89668 
60 ,10.8672 ,0.80275 ,4.45324 ,43.69521 
61 ,11.0432 ,0.80454 ,4.45666 ,43.72879 
62 ,11.2354 ,0.80648 ,4.40533 ,43.22512 
63 ,11.4276 ,0.80826 ,4.40191 ,43.19154 
64 ,11.6195 ,0.81028 ,4.37453 ,42.92291 
65 ,11.7957 ,0.81199 ,4.37111 ,42.88933 
66 ,11.9877 ,0.81406 ,4.34716 ,42.65429 
67 ,12.1636 ,0.81566 ,4.32662 ,42.45282 
68 ,12.3399 ,0.81747 ,4.30609 ,42.25135 
69 ,12.5317 ,0.81935 ,4.29582 ,42.15061 
70 ,12.7080 ,0.82116 ,4.29582 ,42.15061 
71 ,12.8999 ,0.82310 ,4.27187 ,41.91556 
72 ,13.0921 ,0.82498 ,4.23765 ,41.57978 
73 ,13.2841 ,0.82690 ,4.23080 ,41.51262 
74 ,13.4603 ,0.82865 ,4.20000 ,41.21042 
75 ,13.6524 ,0.83059 ,4.19316 ,41.14326 
76 ,13.8440 ,0.83247 ,4.16578 ,40.87464 
77 ,14.0202 ,0.83425 ,4.14525 ,40.67317 
78 ,14.1965 ,0.83605 ,4.13156 ,40.53885 
79 ,14.3728 ,0.83777 ,4.11787 ,40.40454 
80 ,14.5486 ,0.83957 ,4.11445 ,40.37096 
81 ,14.7247 ,0.84126 ,4.08023 ,40.03518 
82 ,14.9009 ,0.84308 ,4.07680 ,40.00160 
83 ,15.0768 ,0.84487 ,4.05627 ,39.80013 
84 ,15.2690 ,0.84677 ,4.03574 ,39.59866 
85 ,15.4610 ,0.84869 ,4.01520 ,39.39719 
86 ,15.6372 ,0.85038 ,3.99467 ,39.19572 
87 ,15.8292 ,0.85239 ,4.00494 ,39.29646 
88 ,16.0052 ,0.85413 ,3.97072 ,38.96067 
89 ,16.1808 ,0.85585 ,3.95018 ,38.75920 
90 ,16.3573 ,0.85757 ,3.92623 ,38.52415 
91 ,16.5335 ,0.85936 ,3.91938 ,38.45700 
92 ,16.7092 ,0.86117 ,3.90227 ,38.28911 
93 ,16.8855 ,0.86289 ,3.88858 ,38.15479 
94 ,17.0777 ,0.86484 ,3.84752 ,37.75185 
95 ,17.2539 ,0.86656 ,3.84752 ,37.75185 
96 ,17.4299 ,0.86832 ,3.83383 ,37.61754 
97 ,17.6058 ,0.87012 ,3.82014 ,37.48323 
98 ,17.7821 ,0.87187 ,3.78592 ,37.14744 
99 ,17.9581 ,0.87366 ,3.77223 ,37.01313 
100 ,18.1502 ,0.87557 ,3.77565 ,37.04671 
101 ,18.3259 ,0.87727 ,3.76196 ,36.91240 
102 ,18.5024 ,0.87908 ,3.72774 ,36.57661 
103 ,18.6782 ,0.88084 ,3.70037 ,36.30799 
104 ,18.8542 ,0.88268 ,3.70037 ,36.30799 
105 ,19.0306 ,0.88430 ,3.68668 ,36.17367 
106 ,19.2068 ,0.88609 ,3.66957 ,36.00578 
107 ,19.3827 ,0.88788 ,3.64561 ,35.77073 
108 ,19.5907 ,0.88982 ,3.61823 ,35.50211 
109 ,19.7668 ,0.89172 ,3.61481 ,35.46853 
110 ,19.9430 ,0.89345 ,3.58401 ,35.16632 
111 ,20.1187 ,0.89522 ,3.57717 ,35.09917 
112 ,20.3108 ,0.89704 ,3.56348 ,34.96485 
113 ,20.4871 ,0.89893 ,3.54979 ,34.83054 
114 ,20.6634 ,0.90064 ,3.52584 ,34.59549 
115 ,20.8393 ,0.90242 ,3.50188 ,34.36045 
116 ,21.0311 ,0.90424 ,3.49161 ,34.25971 
117 ,21.2236 ,0.90622 ,3.47108 ,34.05824 
118 ,21.3994 ,0.90803 ,3.44713 ,33.82319 
119 ,21.5756 ,0.90979 ,3.44370 ,33.78961 
120 ,21.7519 ,0.91153 ,3.43686 ,33.72246 
121 ,21.9277 ,0.91329 ,3.41633 ,33.52099 
122 ,22.1038 ,0.91513 ,3.38895 ,33.25236 
123 ,22.2959 ,0.91688 ,3.37184 ,33.08447 
124 ,22.4719 ,0.91873 ,3.37526 ,33.11805 
125 ,22.6641 ,0.92059 ,3.36157 ,32.98374 
126 ,22.8719 ,0.92268 ,3.34104 ,32.78227 
127 ,23.0483 ,0.92448 ,3.32051 ,32.58080 
128 ,23.2242 ,0.92632 ,3.30682 ,32.44648 
129 ,23.4160 ,0.92811 ,3.28971 ,32.27859 
130 ,23.5923 ,0.92992 ,3.26917 ,32.07712 
131 ,23.7685 ,0.93167 ,3.25206 ,31.90923 
132 ,23.9449 ,0.93354 ,3.24180 ,31.80849 
133 ,24.1367 ,0.93539 ,3.20757 ,31.47271 
134 ,24.3126 ,0.93716 ,3.20757 ,31.47271 
135 ,24.4883 ,0.93890 ,3.20073 ,31.40555 
136 ,24.6646 ,0.94065 ,3.16993 ,31.10335 
137 ,24.8408 ,0.94241 ,3.13571 ,30.76757 
138 ,25.0169 ,0.94419 ,3.13229 ,30.73399 
139 ,25.2090 ,0.94609 ,3.13913 ,30.80115 
140 ,25.3851 ,0.94786 ,3.11518 ,30.56610 
141 ,25.5612 ,0.94964 ,3.08095 ,30.23031 
142 ,25.7532 ,0.95155 ,3.07069 ,30.12958 
143 ,25.9294 ,0.95331 ,3.07069 ,30.12958 
144 ,26.1214 ,0.95515 ,3.02962 ,29.72664 
145 ,26.2974 ,0.95697 ,3.01935 ,29.62590 
146 ,26.4737 ,0.95875 ,3.02278 ,29.65948 
147 ,26.6494 ,0.96049 ,2.99540 ,29.39086 
148 ,26.8417 ,0.96242 ,2.96118 ,29.05507 
149 ,27.0498 ,0.96442 ,2.95433 ,28.98792 
150 ,27.2418 ,0.96639 ,2.94407 ,28.88718 
151 ,27.4179 ,0.96814 ,2.91669 ,28.61856 
152 ,27.5776 ,0.96989 ,2.91669 ,28.61856 
153 ,27.7542 ,0.97156 ,2.89616 ,28.41709 
154 ,27.9460 ,0.97347 ,2.86193 ,28.08130 
155 ,28.1222 ,0.97519 ,2.85167 ,27.98057 
156 ,28.2983 ,0.97700 ,2.83798 ,27.84625 
157 ,28.4744 ,0.97879 ,2.82087 ,27.67836 
158 ,28.6504 ,0.98048 ,2.82429 ,27.71194 
159 ,28.8263 ,0.98228 ,2.78665 ,27.34258 
160 ,29.0026 ,0.98410 ,2.79007 ,27.37616 
161 ,29.1946 ,0.98596 ,2.76954 ,27.17469 
162 ,29.3708 ,0.98768 ,2.75927 ,27.07395 
163 ,29.5469 ,0.98949 ,2.75243 ,27.00680 
164 ,29.7069 ,0.99118 ,2.71136 ,26.60386 
165 ,29.8826 ,0.99280 ,2.69767 ,26.46954 
166 ,30.0750 ,0.99465 ,2.68740 ,26.36881 
167 ,30.2512 ,0.99650 ,2.68740 ,26.36881 
168 ,30.4270 ,0.99831 ,2.66003 ,26.10018 
169 ,30.6031 ,1.00001 ,2.63607 ,25.86514 
170 ,30.7793 ,1.00175 ,2.61896 ,25.69724 
171 ,30.9562 ,1.00359 ,2.60869 ,25.59651 
172 ,31.1475 ,1.00539 ,2.60869 ,25.59651 
173 ,31.3237 ,1.00723 ,2.57105 ,25.22715 
174 ,31.5155 ,1.00912 ,2.57447 ,25.26073 
175 ,31.6917 ,1.01093 ,2.55736 ,25.09283 
176 ,31.8678 ,1.01265 ,2.53683 ,24.89136 
177 ,32.0599 ,1.01462 ,2.50603 ,24.58916 
178 ,32.2520 ,1.01641 ,2.50261 ,24.55558 
179 ,32.4441 ,1.01844 ,2.47523 ,24.28696 
180 ,32.6203 ,1.02027 ,2.45470 ,24.08549 
181 ,32.7957 ,1.02195 ,2.46154 ,24.15264 
182 ,32.9720 ,1.02370 ,2.44785 ,24.01833 
183 ,33.1485 ,1.02551 ,2.42390 ,23.78328 
184 ,33.3244 ,1.02727 ,2.41363 ,23.68255 
185 ,33.5164 ,1.02909 ,2.41021 ,23.64897 
186 ,33.6926 ,1.03093 ,2.39310 ,23.48108 
187 ,33.8686 ,1.03278 ,2.34861 ,23.04456 
188 ,34.0446 ,1.03444 ,2.34861 ,23.04456 
189 ,34.2207 ,1.03618 ,2.32123 ,22.77593 
190 ,34.3968 ,1.03798 ,2.32465 ,22.80951 
191 ,34.5727 ,1.03967 ,2.30754 ,22.64162 
192 ,34.7492 ,1.04147 ,2.29728 ,22.54088 
193 ,34.9412 ,1.04335 ,2.26990 ,22.27226 
194 ,35.1332 ,1.04530 ,2.26990 ,22.27226 
195 ,35.3092 ,1.04712 ,2.24594 ,22.03721 
196 ,35.5172 ,1.04903 ,2.22541 ,21.83574 
197 ,35.6933 ,1.05091 ,2.21172 ,21.70143 
198 ,35.8851 ,1.05285 ,2.19119 ,21.49996 
199 ,36.0613 ,1.05460 ,2.17066 ,21.29849 
200 ,36.2376 ,1.05631 ,2.17066 ,21.29849 
201 ,36.4137 ,1.05814 ,2.15697 ,21.16417 
202 ,36.5898 ,1.05992 ,2.14670 ,21.06344 
203 ,36.7657 ,1.06163 ,2.11590 ,20.76123 
204 ,36.9417 ,1.06343 ,2.10221 ,20.62692 
205 ,37.1340 ,1.06531 ,2.09537 ,20.55976 
206 ,37.3260 ,1.06724 ,2.06115 ,20.22398 
207 ,37.5022 ,1.06902 ,2.05088 ,20.12325 
208 ,37.6781 ,1.07075 ,2.04061 ,20.02251 
209 ,37.8541 ,1.07253 ,2.02693 ,19.88820 
210 ,38.0459 ,1.07445 ,2.02350 ,19.85462 
211 ,38.2224 ,1.07617 ,1.98586 ,19.48526 
212 ,38.3985 ,1.07799 ,1.97902 ,19.41810 
213 ,38.5747 ,1.07973 ,1.96875 ,19.31737 
214 ,38.7665 ,1.08165 ,1.94822 ,19.11590 
215 ,38.9423 ,1.08342 ,1.93453 ,18.98158 
216 ,39.1187 ,1.08515 ,1.90715 ,18.71296 
217 ,39.3269 ,1.08712 ,1.92084 ,18.84727 
218 ,39.5188 ,1.08916 ,1.89688 ,18.61222 
219 ,39.6951 ,1.09086 ,1.88662 ,18.51149 
220 ,39.9028 ,1.09296 ,1.85582 ,18.20928 
221 ,40.0948 ,1.09487 ,1.85582 ,18.20928 
222 ,40.2712 ,1.09665 ,1.84555 ,18.10855 
223 ,40.4479 ,1.09846 ,1.80449 ,17.70561 
224 ,40.6234 ,1.10025 ,1.80106 ,17.67203 
225 ,40.8154 ,1.10201 ,1.79422 ,17.60487 
226 ,40.9916 ,1.10388 ,1.79422 ,17.60487 
227 ,41.1836 ,1.10583 ,1.75315 ,17.20193 
228 ,41.3597 ,1.10754 ,1.73262 ,17.00046 
229 ,41.5358 ,1.10927 ,1.73262 ,17.00046 
230 ,41.7118 ,1.11107 ,1.73604 ,17.03404 
231 ,41.8880 ,1.11280 ,1.70866 ,16.76542 
232 ,42.0639 ,1.11459 ,1.69498 ,16.63110 
233 ,42.2398 ,1.11637 ,1.67444 ,16.42963 
234 ,42.4162 ,1.11812 ,1.67102 ,16.39605 
235 ,42.5922 ,1.11988 ,1.67102 ,16.39605 
236 ,42.7843 ,1.12176 ,1.62653 ,15.95954 
237 ,42.9602 ,1.12357 ,1.61969 ,15.89238 
238 ,43.1523 ,1.12539 ,1.61627 ,15.85880 
239 ,43.3286 ,1.12722 ,1.60258 ,15.72449 
240 ,43.5206 ,1.12915 ,1.57862 ,15.48944 
241 ,43.6967 ,1.13087 ,1.57862 ,15.48944 
242 ,43.9044 ,1.13291 ,1.56151 ,15.32155 
243 ,44.0967 ,1.13488 ,1.54098 ,15.12008 
244 ,44.2725 ,1.13663 ,1.53756 ,15.08650 
245 ,44.4489 ,1.13844 ,1.52387 ,14.95219 
246 ,44.6251 ,1.14025 ,1.48965 ,14.61640 
247 ,44.8170 ,1.14210 ,1.48965 ,14.61640 
248 ,44.9771 ,1.14383 ,1.48280 ,14.54925 
249 ,45.1531 ,1.14551 ,1.46911 ,14.41493 
250 ,45.3450 ,1.14729 ,1.44858 ,14.21346 
251 ,45.5213 ,1.14917 ,1.43147 ,14.04557 
252 ,45.6974 ,1.15092 ,1.42120 ,13.94484 
253 ,45.8731 ,1.15271 ,1.41094 ,13.84410 
254 ,46.0495 ,1.15443 ,1.39725 ,13.70979 
255 ,46.2417 ,1.15624 ,1.36987 ,13.44116 
256 ,46.4332 ,1.15832 ,1.36987 ,13.44116 
257 ,46.6096 ,1.16001 ,1.34934 ,13.23969 
258 ,46.7858 ,1.16180 ,1.33907 ,13.13896 
259 ,46.9620 ,1.16357 ,1.32196 ,12.97107 
260 ,47.1541 ,1.16545 ,1.31512 ,12.90391 
261 ,47.3301 ,1.16728 ,1.30485 ,12.80318 
262 ,47.5222 ,1.16911 ,1.27063 ,12.46739 
263 ,47.6982 ,1.17104 ,1.28432 ,12.60171 
264 ,47.8744 ,1.17268 ,1.27063 ,12.46739 
265 ,48.0665 ,1.17454 ,1.23641 ,12.13161 
266 ,48.2426 ,1.17641 ,1.21929 ,11.96372 
267 ,48.4345 ,1.17823 ,1.22614 ,12.03088 
268 ,48.6107 ,1.17999 ,1.19876 ,11.76225 
269 ,48.7866 ,1.18177 ,1.18507 ,11.62794 
270 ,48.9786 ,1.18370 ,1.17823 ,11.56078 
271 ,49.1548 ,1.18549 ,1.15427 ,11.32573 
272 ,49.3470 ,1.18733 ,1.16454 ,11.42647 
273 ,49.5230 ,1.18918 ,1.12347 ,11.02353 
274 ,49.7151 ,1.19103 ,1.13374 ,11.12426 
275 ,49.9229 ,1.19313 ,1.09267 ,10.72132 
276 ,50.0992 ,1.19489 ,1.09610 ,10.75490 
277 ,50.2753 ,1.19665 ,1.09952 ,10.78848 
278 ,50.4674 ,1.19849 ,1.07556 ,10.55343 
279 ,50.6274 ,1.20033 ,1.04134 ,10.21765 
280 ,50.8035 ,1.20192 ,1.02423 ,10.04976 
281 ,50.9797 ,1.20371 ,1.02765 ,10.08333 
282 ,51.1557 ,1.20550 ,1.01054 ,9.91544 
283 ,51.3318 ,1.20722 ,1.01396 ,9.94902 
284 ,51.5237 ,1.20909 ,0.97974 ,9.61324 
285 ,51.6999 ,1.21088 ,0.97632 ,9.57966 
286 ,51.8759 ,1.21267 ,0.97632 ,9.57966 
287 ,52.0681 ,1.21463 ,0.96263 ,9.44535 
288 ,52.2440 ,1.21639 ,0.92499 ,9.07598 
289 ,52.4202 ,1.21812 ,0.91472 ,8.97525 
290 ,52.5963 ,1.21989 ,0.92157 ,9.04241 
291 ,52.7724 ,1.22165 ,0.90446 ,8.87451 
292 ,52.9483 ,1.22340 ,0.90103 ,8.84094 
293 ,53.1245 ,1.22512 ,0.85997 ,8.43800 
294 ,53.3006 ,1.22691 ,0.84970 ,8.33726 
295 ,53.5248 ,1.22904 ,0.84286 ,8.27011 
296 ,53.7165 ,1.23108 ,0.83259 ,8.16937 
297 ,53.9087 ,1.23295 ,0.81890 ,8.03506 
298 ,54.0849 ,1.23475 ,0.80863 ,7.93432 
299 ,54.2611 ,1.23653 ,0.79495 ,7.80001 
300 ,54.4371 ,1.23831 ,0.78126 ,7.66570 
301 ,54.6128 ,1.24002 ,0.77784 ,7.63212 
302 ,54.7728 ,1.24175 ,0.76757 ,7.53138 
303 ,54.9328 ,1.24337 ,0.75388 ,7.39707 
304 ,55.1093 ,1.24497 ,0.72992 ,7.16202 
305 ,55.3175 ,1.24706 ,0.72992 ,7.16202 
306 ,55.4936 ,1.24885 ,0.71624 ,7.02771 
307 ,55.6695 ,1.25063 ,0.70597 ,6.92697 
308 ,55.8453 ,1.25243 ,0.68886 ,6.75908 
309 ,56.0218 ,1.25410 ,0.66833 ,6.55761 
310 ,56.2298 ,1.25615 ,0.67517 ,6.62477 
311 ,56.4218 ,1.25810 ,0.63753 ,6.25541 
312 ,56.5980 ,1.25984 ,0.63753 ,6.25541 
313 ,56.7740 ,1.26162 ,0.63753 ,6.25541 
314 ,56.9498 ,1.26337 ,0.61357 ,6.02036 
315 ,57.1261 ,1.26514 ,0.59304 ,5.81889 
316 ,57.3022 ,1.26689 ,0.56908 ,5.58384 
317 ,57.4944 ,1.26885 ,0.58277 ,5.71815 
318 ,57.6861 ,1.27074 ,0.53828 ,5.28164 
319 ,57.8626 ,1.27246 ,0.54513 ,5.34879 
320 ,58.0546 ,1.27444 ,0.53144 ,5.21448 
321 ,58.2627 ,1.27648 ,0.52802 ,5.18090 
322 ,58.4386 ,1.27829 ,0.50064 ,4.91228 
323 ,58.6147 ,1.28001 ,0.51091 ,5.01301 
324 ,58.8228 ,1.28207 ,0.48353 ,4.74438 
325 ,58.9825 ,1.28383 ,0.46984 ,4.61007 
326 ,59.1592 ,1.28545 ,0.46300 ,4.54291 
327 ,59.3671 ,1.28750 ,0.43904 ,4.30787 
328 ,59.5592 ,1.28951 ,0.43562 ,4.27429 
329 ,59.7513 ,1.29126 ,0.43220 ,4.24071 
330 ,59.9271 ,1.29317 ,0.39797 ,3.90493 
331 ,60.0873 ,1.29485 ,0.38771 ,3.80419 
332 ,60.2794 ,1.29666 ,0.38771 ,3.80419 
333 ,60.4561 ,1.29842 ,0.38086 ,3.73703 
334 ,60.6477 ,1.30037 ,0.35691 ,3.50199 
335 ,60.8236 ,1.30209 ,0.33980 ,3.33410 
336 ,60.9996 ,1.30384 ,0.33980 ,3.33410 
337 ,61.1917 ,1.30572 ,0.33295 ,3.26694 
338 ,61.3679 ,1.30756 ,0.30900 ,3.03189 
339 ,61.5436 ,1.30935 ,0.30215 ,2.96473 
340 ,61.7361 ,1.31110 ,0.29531 ,2.89758 
341 ,61.9117 ,1.31298 ,0.28504 ,2.79684 
342 ,62.1038 ,1.31482 ,0.27135 ,2.66253 
343 ,62.2802 ,1.31667 ,0.25082 ,2.46106 
344 ,62.4723 ,1.31856 ,0.24055 ,2.36032 
345 ,62.6643 ,1.32050 ,0.21660 ,2.12528 
346 ,62.8406 ,1.32224 ,0.22344 ,2.19243 
347 ,63.0486 ,1.32429 ,0.21660 ,2.12528 
348 ,63.2568 ,1.32638 ,0.18238 ,1.78949 
349 ,63.4326 ,1.32821 ,0.18922 ,1.85665 
350 ,63.5927 ,1.32989 ,0.16527 ,1.62160 
351 ,63.7689 ,1.33158 ,0.15500 ,1.52087 
352 ,63.9606 ,1.33347 ,0.13789 ,1.35298 
353 ,64.1371 ,1.33522 ,0.14131 ,1.38655 
354 ,64.3291 ,1.33710 ,0.11736 ,1.15151 
355 ,64.5212 ,1.33909 ,0.11393 ,1.11793 
356 ,64.6973 ,1.34081 ,0.11393 ,1.11793 
357 ,64.8732 ,1.34261 ,0.10367 ,1.01719 
358 ,65.0493 ,1.34433 ,0.06602 ,0.64783 
359 ,65.2250 ,1.34615 ,0.07287 ,0.71499 
360 ,65.4012 ,1.34787 ,0.05918 ,0.58067 
361 ,65.5776 ,1.34962 ,0.06602 ,0.64783 
362 ,65.7695 ,1.35146 ,0.04891 ,0.47994 
363 ,65.9615 ,1.35344 ,0.03180 ,0.31205 
364 ,66.1377 ,1.35521 ,0.01127 ,0.11058 
365 ,66.3138 ,1.35700 ,0.02496 ,0.24489 
366 ,66.4899 ,1.35875 ,-0.00926 ,-0.09089 
367 ,66.6660 ,1.36053 ,-0.02295 ,-0.22520 
368 ,66.8420 ,1.36232 ,-0.04006 ,-0.39310 
369 ,67.0181 ,1.36411 ,-0.03664 ,-0.35952 
370 ,67.1939 ,1.36586 ,-0.05717 ,-0.56099 
371 ,67.3700 ,1.36749 ,-0.05375 ,-0.52741 
372 ,67.5463 ,1.36933 ,-0.08797 ,-0.86319 
373 ,67.7385 ,1.37120 ,-0.06060 ,-0.59457 
374 ,67.9145 ,1.37303 ,-0.07428 ,-0.72888 
375 ,68.1066 ,1.37485 ,-0.10166 ,-0.99751 
376 ,68.2986 ,1.37675 ,-0.11193 ,-1.09824 
377 ,68.4907 ,1.37873 ,-0.11193 ,-1.09824 
378 ,68.6830 ,1.38067 ,-0.13931 ,-1.36687 
379 ,68.8746 ,1.38252 ,-0.13931 ,-1.36687 
380 ,69.0511 ,1.38437 ,-0.15984 ,-1.56834 
381 ,69.2429 ,1.38630 ,-0.18379 ,-1.80338 
382 ,69.4191 ,1.38802 ,-0.16668 ,-1.63549 
383 ,69.5950 ,1.38975 ,-0.18037 ,-1.76981 
384 ,69.7714 ,1.39156 ,-0.19748 ,-1.93770 
385 ,69.9629 ,1.39348 ,-0.22144 ,-2.17275 
386 ,70.1395 ,1.39525 ,-0.21117 ,-2.07201 
387 ,70.3316 ,1.39715 ,-0.23513 ,-2.30706 
388 ,70.5075 ,1.39889 ,-0.24881 ,-2.44137 
389 ,70.6997 ,1.40078 ,-0.26250 ,-2.57569 
390 ,70.8758 ,1.40259 ,-0.26935 ,-2.64284 
391 ,71.0677 ,1.40450 ,-0.28988 ,-2.84431 
392 ,71.2439 ,1.40629 ,-0.30015 ,-2.94505 
393 ,71.4200 ,1.40798 ,-0.29673 ,-2.91147 
394 ,71.6122 ,1.40991 ,-0.31384 ,-3.07936 
395 ,71.8042 ,1.41191 ,-0.34464 ,-3.38156 
396 ,71.9801 ,1.41364 ,-0.36859 ,-3.61661 
397 ,72.1565 ,1.41542 ,-0.33437 ,-3.28083 
398 ,72.3324 ,1.41721 ,-0.35832 ,-3.51588 
399 ,72.5241 ,1.41909 ,-0.38228 ,-3.75093 
400 ,72.7005 ,1.42083 ,-0.37544 ,-3.68377 
401 ,72.8766 ,1.42260 ,-0.38912 ,-3.81808 
402 ,73.0686 ,1.42453 ,-0.41650 ,-4.08671 
403 ,73.2607 ,1.42632 ,-0.43019 ,-4.22102 
404 ,73.4369 ,1.42824 ,-0.42335 ,-4.15387 
405 ,73.6126 ,1.42998 ,-0.43019 ,-4.22102 
406 ,73.7889 ,1.43174 ,-0.46441 ,-4.55681 
407 ,73.9649 ,1.43346 ,-0.48152 ,-4.72470 
408 ,74.1412 ,1.43524 ,-0.49521 ,-4.85901 
409 ,74.3331 ,1.43718 ,-0.48494 ,-4.75828 
410 ,74.5093 ,1.43891 ,-0.51574 ,-5.06048 
411 ,74.6854 ,1.44065 ,-0.52259 ,-5.12764 
412 ,74.8775 ,1.44262 ,-0.52259 ,-5.12764 
413 ,75.0532 ,1.44434 ,-0.52259 ,-5.12764 
414 ,75.2297 ,1.44616 ,-0.53970 ,-5.29553 
415 ,75.4056 ,1.44795 ,-0.56023 ,-5.49700 
416 ,75.5817 ,1.44966 ,-0.57392 ,-5.63131 
417 ,75.7579 ,1.45138 ,-0.57734 ,-5.66489 
418 ,75.9339 ,1.45315 ,-0.58077 ,-5.69847 
419 ,76.1258 ,1.45506 ,-0.61841 ,-6.06783 
420 ,76.3180 ,1.45689 ,-0.60814 ,-5.96709 
421 ,76.5100 ,1.45891 ,-0.63552 ,-6.23572 
422 ,76.6858 ,1.46068 ,-0.64579 ,-6.33646 
423 ,76.8622 ,1.46245 ,-0.65605 ,-6.43719 
424 ,77.0382 ,1.46422 ,-0.65947 ,-6.47077 
425 ,77.2141 ,1.46594 ,-0.66632 ,-6.53793 
426 ,77.4063 ,1.46783 ,-0.68685 ,-6.73940 
427 ,77.5825 ,1.46964 ,-0.70739 ,-6.94086 
428 ,77.7582 ,1.47142 ,-0.68343 ,-6.70582 
429 ,77.9345 ,1.47312 ,-0.70739 ,-6.94086 
430 ,78.1105 ,1.47493 ,-0.72792 ,-7.14233 
431 ,78.2867 ,1.47666 ,-0.74161 ,-7.27665 
432 ,78.4628 ,1.47847 ,-0.75872 ,-7.44454 
433 ,78.6389 ,1.48022 ,-0.74503 ,-7.31023 
434 ,78.7985 ,1.48191 ,-0.76556 ,-7.51170 
435 ,78.9748 ,1.48356 ,-0.76214 ,-7.47812 
436 ,79.1513 ,1.48531 ,-0.77241 ,-7.57885 
437 ,79.3272 ,1.48713 ,-0.79294 ,-7.78032 
438 ,79.5193 ,1.48900 ,-0.80663 ,-7.91464 
439 ,79.6952 ,1.49074 ,-0.79978 ,-7.84748 
440 ,79.8712 ,1.49252 ,-0.82374 ,-8.08253 
441 ,80.0314 ,1.49421 ,-0.84427 ,-8.28400 
442 ,80.2076 ,1.49592 ,-0.85454 ,-8.38473 
443 ,80.3835 ,1.49765 ,-0.86138 ,-8.45189 
444 ,80.5757 ,1.49950 ,-0.85796 ,-8.41831 
445 ,80.7677 ,1.50150 ,-0.88192 ,-8.65336 
446 ,80.9276 ,1.50318 ,-0.89903 ,-8.82125 
447 ,81.1039 ,1.50484 ,-0.89903 ,-8.82125 
448 ,81.2960 ,1.50673 ,-0.88876 ,-8.72051 
449 ,81.4722 ,1.50853 ,-0.91272 ,-8.95556 
450 ,81.6483 ,1.51030 ,-0.92298 ,-9.05630 
451 ,81.8403 ,1.51220 ,-0.94351 ,-9.25777 
452 ,82.0162 ,1.51396 ,-0.93667 ,-9.19061 
453 ,82.1923 ,1.51571 ,-0.95036 ,-9.32492 
454 ,82.3840 ,1.51759 ,-0.97431 ,-9.55997 
455 ,82.5608 ,1.51937 ,-0.96405 ,-9.45924 
456 ,82.7365 ,1.52121 ,-0.97089 ,-9.52639 
457 ,82.9125 ,1.52294 ,-0.98458 ,-9.66071 
458 ,83.0727 ,1.52462 ,-1.01538 ,-9.96291 
459 ,83.2490 ,1.52629 ,-1.02222 ,-10.03007 
460 ,83.4409 ,1.52816 ,-1.01880 ,-9.99649 
461 ,83.6329 ,1.53007 ,-1.02565 ,-10.06365 
462 ,83.8090 ,1.53189 ,-1.03934 ,-10.19796 
463 ,84.0006 ,1.53383 ,-1.05987 ,-10.39943 
