Data stamp = , 29-03-2022 07:46:41 051

Calibration Values: 
Slope = , 26.54 , g/V 
Offset Voltage at no contact = , -0.501760 , V 

No , Time , Stage Position ,   Mass , Force 
   ,  (s) ,      (mm)      ,   (g)  , (mN)  

1 ,0.0000 ,0.69951 ,5.33616 ,52.35841 
2 ,0.2128 ,0.69960 ,5.33616 ,52.35841 
3 ,0.4210 ,0.70009 ,5.33958 ,52.39199 
4 ,0.6130 ,0.70111 ,5.34301 ,52.42557 
5 ,0.7892 ,0.70231 ,5.34301 ,52.42557 
6 ,0.9652 ,0.70393 ,5.33958 ,52.39199 
7 ,1.1254 ,0.70560 ,5.32932 ,52.29126 
8 ,1.3015 ,0.70722 ,5.33958 ,52.39199 
9 ,1.4938 ,0.70917 ,5.34643 ,52.45915 
10 ,1.6856 ,0.71104 ,5.32932 ,52.29126 
11 ,1.8776 ,0.71305 ,5.30536 ,52.05621 
12 ,2.0535 ,0.71479 ,5.29510 ,51.95548 
13 ,2.2298 ,0.71662 ,5.29852 ,51.98905 
14 ,2.4062 ,0.71833 ,5.27456 ,51.75401 
15 ,2.5979 ,0.72019 ,5.23007 ,51.31749 
16 ,2.7740 ,0.72200 ,5.25745 ,51.58611 
17 ,2.9658 ,0.72382 ,5.23007 ,51.31749 
18 ,3.1580 ,0.72573 ,5.20612 ,51.08244 
19 ,3.3501 ,0.72779 ,5.20270 ,51.04886 
20 ,3.5264 ,0.72954 ,5.18216 ,50.84739 
21 ,3.7182 ,0.73133 ,5.16163 ,50.64592 
22 ,3.9265 ,0.73340 ,5.16163 ,50.64592 
23 ,4.1027 ,0.73532 ,5.12399 ,50.27656 
24 ,4.2787 ,0.73701 ,5.12741 ,50.31014 
25 ,4.4548 ,0.73878 ,5.10345 ,50.07509 
26 ,4.6467 ,0.74063 ,5.11372 ,50.17583 
27 ,4.8549 ,0.74277 ,5.07608 ,49.80646 
28 ,5.0471 ,0.74474 ,5.04870 ,49.53784 
29 ,5.2390 ,0.74668 ,5.03843 ,49.43710 
30 ,5.4312 ,0.74859 ,5.01448 ,49.20205 
31 ,5.6231 ,0.75050 ,4.99737 ,49.03416 
32 ,5.8153 ,0.75242 ,5.00421 ,49.10132 
33 ,5.9913 ,0.75415 ,4.98368 ,48.89985 
34 ,6.1674 ,0.75598 ,4.95288 ,48.59764 
35 ,6.3432 ,0.75773 ,4.93919 ,48.46333 
36 ,6.5196 ,0.75946 ,4.92550 ,48.32902 
37 ,6.7115 ,0.76135 ,4.91181 ,48.19471 
38 ,6.8878 ,0.76312 ,4.88786 ,47.95966 
39 ,7.0637 ,0.76493 ,4.86048 ,47.69103 
40 ,7.2718 ,0.76685 ,4.85706 ,47.65745 
41 ,7.4640 ,0.76886 ,4.82968 ,47.38883 
42 ,7.6400 ,0.77061 ,4.81599 ,47.25451 
43 ,7.8162 ,0.77242 ,4.81257 ,47.22093 
44 ,8.0082 ,0.77434 ,4.78519 ,46.95231 
45 ,8.1842 ,0.77613 ,4.76124 ,46.71726 
46 ,8.3763 ,0.77799 ,4.75097 ,46.61653 
47 ,8.5844 ,0.78000 ,4.72359 ,46.34790 
48 ,8.7764 ,0.78204 ,4.70648 ,46.18001 
49 ,8.9685 ,0.78392 ,4.68595 ,45.97854 
50 ,9.1446 ,0.78570 ,4.66884 ,45.81065 
51 ,9.3368 ,0.78756 ,4.66884 ,45.81065 
52 ,9.5126 ,0.78941 ,4.65173 ,45.64275 
53 ,9.6889 ,0.79110 ,4.63462 ,45.47486 
54 ,9.8809 ,0.79301 ,4.61751 ,45.30697 
55 ,10.0732 ,0.79486 ,4.60040 ,45.13908 
56 ,10.2969 ,0.79708 ,4.59013 ,45.03835 
57 ,10.4893 ,0.79918 ,4.54222 ,44.56825 
58 ,10.6651 ,0.80093 ,4.53195 ,44.46751 
59 ,10.8574 ,0.80284 ,4.52169 ,44.36678 
60 ,11.0493 ,0.80475 ,4.50115 ,44.16531 
61 ,11.2094 ,0.80647 ,4.48062 ,43.96384 
62 ,11.3853 ,0.80807 ,4.46009 ,43.76237 
63 ,11.5772 ,0.81005 ,4.46009 ,43.76237 
64 ,11.7535 ,0.81177 ,4.43955 ,43.56090 
65 ,11.9458 ,0.81368 ,4.40533 ,43.22512 
66 ,12.1378 ,0.81565 ,4.39849 ,43.15796 
67 ,12.3300 ,0.81756 ,4.38138 ,42.99007 
68 ,12.5220 ,0.81945 ,4.37111 ,42.88933 
69 ,12.7137 ,0.82129 ,4.32662 ,42.45282 
70 ,12.9060 ,0.82323 ,4.32320 ,42.41924 
71 ,13.0822 ,0.82503 ,4.31978 ,42.38566 
72 ,13.2423 ,0.82675 ,4.30609 ,42.25135 
73 ,13.4184 ,0.82840 ,4.29582 ,42.15061 
74 ,13.5944 ,0.83014 ,4.27187 ,41.91556 
75 ,13.7703 ,0.83189 ,4.23080 ,41.51262 
76 ,13.9626 ,0.83388 ,4.24107 ,41.61336 
77 ,14.1387 ,0.83562 ,4.21711 ,41.37831 
78 ,14.3308 ,0.83754 ,4.18974 ,41.10968 
79 ,14.5228 ,0.83946 ,4.17262 ,40.94179 
80 ,14.6986 ,0.84126 ,4.16236 ,40.84106 
81 ,14.8750 ,0.84298 ,4.14525 ,40.67317 
82 ,15.0670 ,0.84492 ,4.12471 ,40.47170 
83 ,15.2431 ,0.84661 ,4.11445 ,40.37096 
84 ,15.4031 ,0.84836 ,4.10076 ,40.23665 
85 ,15.5792 ,0.84997 ,4.07680 ,40.00160 
86 ,15.7550 ,0.85175 ,4.05969 ,39.83371 
87 ,15.9315 ,0.85357 ,4.04258 ,39.66582 
88 ,16.1236 ,0.85548 ,4.02889 ,39.53150 
89 ,16.2994 ,0.85725 ,4.02547 ,39.49793 
90 ,16.4916 ,0.85901 ,3.99467 ,39.19572 
91 ,16.6678 ,0.86089 ,3.96387 ,38.89352 
92 ,16.8437 ,0.86271 ,3.96729 ,38.92709 
93 ,17.0199 ,0.86440 ,3.95018 ,38.75920 
94 ,17.1960 ,0.86620 ,3.92965 ,38.55773 
95 ,17.3879 ,0.86803 ,3.90912 ,38.35626 
96 ,17.5642 ,0.86987 ,3.89885 ,38.25553 
97 ,17.7560 ,0.87178 ,3.88516 ,38.12122 
98 ,17.9162 ,0.87348 ,3.86121 ,37.88617 
99 ,18.1085 ,0.87528 ,3.84752 ,37.75185 
100 ,18.2845 ,0.87706 ,3.84410 ,37.71828 
101 ,18.4765 ,0.87888 ,3.80645 ,37.34891 
102 ,18.6685 ,0.88092 ,3.79961 ,37.28176 
103 ,18.8282 ,0.88259 ,3.78934 ,37.18102 
104 ,19.0043 ,0.88423 ,3.77565 ,37.04671 
105 ,19.1965 ,0.88605 ,3.75854 ,36.87882 
106 ,19.4049 ,0.88816 ,3.71748 ,36.47588 
107 ,19.6126 ,0.89029 ,3.70037 ,36.30799 
108 ,19.7891 ,0.89210 ,3.70037 ,36.30799 
109 ,19.9811 ,0.89398 ,3.68668 ,36.17367 
110 ,20.1571 ,0.89580 ,3.66272 ,35.93863 
111 ,20.3331 ,0.89752 ,3.63877 ,35.70358 
112 ,20.5252 ,0.89944 ,3.64561 ,35.77073 
113 ,20.7013 ,0.90124 ,3.62508 ,35.56926 
114 ,20.8773 ,0.90293 ,3.59770 ,35.30064 
115 ,21.0535 ,0.90470 ,3.57717 ,35.09917 
116 ,21.2456 ,0.90670 ,3.56348 ,34.96485 
117 ,21.4216 ,0.90838 ,3.56348 ,34.96485 
118 ,21.5977 ,0.91019 ,3.53610 ,34.69623 
119 ,21.7899 ,0.91207 ,3.52241 ,34.56192 
120 ,21.9655 ,0.91387 ,3.50188 ,34.36045 
121 ,22.1422 ,0.91564 ,3.49846 ,34.32687 
122 ,22.3500 ,0.91758 ,3.46766 ,34.02466 
123 ,22.5579 ,0.91975 ,3.44370 ,33.78961 
124 ,22.7503 ,0.92158 ,3.43344 ,33.68888 
125 ,22.9262 ,0.92348 ,3.42317 ,33.58814 
126 ,23.1025 ,0.92521 ,3.39921 ,33.35310 
127 ,23.2785 ,0.92695 ,3.38895 ,33.25236 
128 ,23.4546 ,0.92875 ,3.35815 ,32.95016 
129 ,23.6305 ,0.93050 ,3.35473 ,32.91658 
130 ,23.8226 ,0.93237 ,3.33077 ,32.68153 
131 ,23.9988 ,0.93419 ,3.32051 ,32.58080 
132 ,24.1748 ,0.93595 ,3.29313 ,32.31217 
133 ,24.3989 ,0.93807 ,3.27944 ,32.17786 
134 ,24.5748 ,0.93989 ,3.25548 ,31.94281 
135 ,24.7671 ,0.94174 ,3.24522 ,31.84207 
136 ,24.9431 ,0.94361 ,3.23495 ,31.74134 
137 ,25.1351 ,0.94555 ,3.21784 ,31.57345 
138 ,25.3272 ,0.94744 ,3.20757 ,31.47271 
139 ,25.5032 ,0.94922 ,3.18704 ,31.27124 
140 ,25.6794 ,0.95095 ,3.17335 ,31.13693 
141 ,25.8555 ,0.95269 ,3.15966 ,31.00262 
142 ,26.0316 ,0.95450 ,3.13571 ,30.76757 
143 ,26.2235 ,0.95635 ,3.11860 ,30.59968 
144 ,26.3998 ,0.95812 ,3.10491 ,30.46536 
145 ,26.6078 ,0.96015 ,3.09806 ,30.39821 
146 ,26.7998 ,0.96221 ,3.07069 ,30.12958 
147 ,26.9758 ,0.96394 ,3.05358 ,29.96169 
148 ,27.1520 ,0.96573 ,3.04331 ,29.86095 
149 ,27.3442 ,0.96763 ,3.03647 ,29.79380 
150 ,27.5362 ,0.96945 ,3.00909 ,29.52517 
151 ,27.7282 ,0.97142 ,3.00567 ,29.49159 
152 ,27.9203 ,0.97328 ,2.96802 ,29.12223 
153 ,28.0965 ,0.97513 ,2.96118 ,29.05507 
154 ,28.2722 ,0.97691 ,2.95433 ,28.98792 
155 ,28.4482 ,0.97860 ,2.94064 ,28.85360 
156 ,28.6246 ,0.98041 ,2.90642 ,28.51782 
157 ,28.8007 ,0.98216 ,2.89958 ,28.45066 
158 ,28.9768 ,0.98394 ,2.87905 ,28.24919 
159 ,29.1848 ,0.98589 ,2.86878 ,28.14846 
160 ,29.3609 ,0.98777 ,2.84482 ,27.91341 
161 ,29.5528 ,0.98970 ,2.83456 ,27.81268 
162 ,29.7609 ,0.99169 ,2.81060 ,27.57763 
163 ,29.9371 ,0.99353 ,2.78665 ,27.34258 
164 ,30.1291 ,0.99542 ,2.80718 ,27.54405 
165 ,30.2892 ,0.99713 ,2.77638 ,27.24185 
166 ,30.4653 ,0.99882 ,2.76611 ,27.14111 
167 ,30.6730 ,1.00077 ,2.72847 ,26.77175 
168 ,30.8494 ,1.00264 ,2.73531 ,26.83891 
169 ,31.0256 ,1.00437 ,2.70452 ,26.53670 
170 ,31.2177 ,1.00635 ,2.69083 ,26.40239 
171 ,31.4096 ,1.00831 ,2.69083 ,26.40239 
172 ,31.5858 ,1.00997 ,2.66687 ,26.16734 
173 ,31.7619 ,1.01181 ,2.64634 ,25.96587 
174 ,31.9380 ,1.01357 ,2.62923 ,25.79798 
175 ,32.1140 ,1.01525 ,2.62581 ,25.76440 
176 ,32.2900 ,1.01704 ,2.60527 ,25.56293 
177 ,32.4821 ,1.01892 ,2.57789 ,25.29430 
178 ,32.6581 ,1.02073 ,2.56421 ,25.15999 
179 ,32.8342 ,1.02246 ,2.57447 ,25.26073 
180 ,33.0104 ,1.02420 ,2.56078 ,25.12641 
181 ,33.2026 ,1.02619 ,2.52314 ,24.75705 
182 ,33.4104 ,1.02810 ,2.51287 ,24.65632 
183 ,33.5865 ,1.03000 ,2.49918 ,24.52200 
184 ,33.7783 ,1.03192 ,2.47523 ,24.28696 
185 ,33.9547 ,1.03368 ,2.46154 ,24.15264 
186 ,34.1629 ,1.03567 ,2.45470 ,24.08549 
187 ,34.3550 ,1.03763 ,2.44443 ,23.98475 
188 ,34.5309 ,1.03947 ,2.43074 ,23.85044 
189 ,34.7070 ,1.04119 ,2.40336 ,23.58181 
190 ,34.8832 ,1.04294 ,2.38625 ,23.41392 
191 ,35.0752 ,1.04489 ,2.37941 ,23.34676 
192 ,35.2510 ,1.04661 ,2.36914 ,23.24603 
193 ,35.4273 ,1.04838 ,2.34861 ,23.04456 
194 ,35.5873 ,1.05014 ,2.33492 ,22.91024 
195 ,35.7634 ,1.05177 ,2.32123 ,22.77593 
196 ,35.9715 ,1.05371 ,2.31097 ,22.67520 
197 ,36.1475 ,1.05556 ,2.28359 ,22.40657 
198 ,36.3237 ,1.05735 ,2.26648 ,22.23868 
199 ,36.5157 ,1.05922 ,2.24252 ,22.00363 
200 ,36.6919 ,1.06107 ,2.24937 ,22.07079 
201 ,36.8680 ,1.06285 ,2.23568 ,21.93647 
202 ,37.0440 ,1.06457 ,2.21172 ,21.70143 
203 ,37.2201 ,1.06636 ,2.19461 ,21.53353 
204 ,37.4118 ,1.06817 ,2.18777 ,21.46638 
205 ,37.5877 ,1.07002 ,2.17750 ,21.36564 
206 ,37.7479 ,1.07173 ,2.14670 ,21.06344 
207 ,37.9243 ,1.07339 ,2.13986 ,20.99628 
208 ,38.1166 ,1.07534 ,2.13644 ,20.96270 
209 ,38.2923 ,1.07709 ,2.11248 ,20.72766 
210 ,38.4684 ,1.07878 ,2.10221 ,20.62692 
211 ,38.6443 ,1.08056 ,2.09195 ,20.52619 
212 ,38.8207 ,1.08235 ,2.07141 ,20.32472 
213 ,39.0126 ,1.08425 ,2.06457 ,20.25756 
214 ,39.1888 ,1.08601 ,2.04404 ,20.05609 
215 ,39.3809 ,1.08786 ,2.02350 ,19.85462 
216 ,39.5889 ,1.08996 ,2.00982 ,19.72031 
217 ,39.7491 ,1.09172 ,1.99613 ,19.58599 
218 ,39.9252 ,1.09334 ,1.98244 ,19.45168 
219 ,40.1173 ,1.09519 ,1.95506 ,19.18305 
220 ,40.3095 ,1.09722 ,1.96190 ,19.25021 
221 ,40.4853 ,1.09897 ,1.92426 ,18.88085 
222 ,40.6615 ,1.10070 ,1.91742 ,18.81369 
223 ,40.8535 ,1.10270 ,1.92084 ,18.84727 
224 ,41.0296 ,1.10443 ,1.90715 ,18.71296 
225 ,41.2217 ,1.10623 ,1.86951 ,18.34360 
226 ,41.4138 ,1.10821 ,1.88662 ,18.51149 
227 ,41.5900 ,1.11002 ,1.86266 ,18.27644 
228 ,41.7657 ,1.11181 ,1.83186 ,17.97423 
229 ,41.9579 ,1.11367 ,1.82502 ,17.90708 
230 ,42.1501 ,1.11563 ,1.81475 ,17.80634 
231 ,42.3260 ,1.11741 ,1.79422 ,17.60487 
232 ,42.5182 ,1.11929 ,1.78737 ,17.53772 
233 ,42.7264 ,1.12128 ,1.77026 ,17.36983 
234 ,42.9022 ,1.12316 ,1.74289 ,17.10120 
235 ,43.0783 ,1.12488 ,1.73604 ,17.03404 
236 ,43.2540 ,1.12665 ,1.72920 ,16.96689 
237 ,43.4305 ,1.12838 ,1.70524 ,16.73184 
238 ,43.6226 ,1.13036 ,1.67786 ,16.46321 
239 ,43.7987 ,1.13213 ,1.67786 ,16.46321 
240 ,43.9908 ,1.13399 ,1.67102 ,16.39605 
241 ,44.1828 ,1.13593 ,1.64022 ,16.09385 
242 ,44.3745 ,1.13788 ,1.64364 ,16.12743 
243 ,44.5508 ,1.13958 ,1.64364 ,16.12743 
244 ,44.7271 ,1.14137 ,1.60942 ,15.79164 
245 ,44.9030 ,1.14315 ,1.58204 ,15.52302 
246 ,45.0793 ,1.14490 ,1.57862 ,15.48944 
247 ,45.2710 ,1.14682 ,1.57862 ,15.48944 
248 ,45.4476 ,1.14858 ,1.55467 ,15.25439 
249 ,45.6230 ,1.15035 ,1.54098 ,15.12008 
250 ,45.7992 ,1.15213 ,1.53071 ,15.01934 
251 ,45.9750 ,1.15382 ,1.52729 ,14.98577 
252 ,46.1516 ,1.15562 ,1.50676 ,14.78430 
253 ,46.3436 ,1.15759 ,1.47596 ,14.48209 
254 ,46.5197 ,1.15928 ,1.46911 ,14.41493 
255 ,46.6957 ,1.16103 ,1.47596 ,14.48209 
256 ,46.8718 ,1.16281 ,1.44858 ,14.21346 
257 ,47.0314 ,1.16450 ,1.42805 ,14.01199 
258 ,47.2080 ,1.16616 ,1.41436 ,13.87768 
259 ,47.3839 ,1.16794 ,1.41094 ,13.84410 
260 ,47.5602 ,1.16969 ,1.40409 ,13.77695 
261 ,47.7359 ,1.17148 ,1.39725 ,13.70979 
262 ,47.9122 ,1.17322 ,1.37671 ,13.50832 
263 ,48.0883 ,1.17495 ,1.35276 ,13.27327 
264 ,48.2643 ,1.17671 ,1.34249 ,13.17254 
265 ,48.4401 ,1.17846 ,1.32880 ,13.03822 
266 ,48.6165 ,1.18021 ,1.33565 ,13.10538 
267 ,48.7926 ,1.18200 ,1.31854 ,12.93749 
268 ,48.9686 ,1.18378 ,1.28774 ,12.63528 
269 ,49.1445 ,1.18550 ,1.27063 ,12.46739 
270 ,49.3368 ,1.18740 ,1.28089 ,12.56813 
271 ,49.5289 ,1.18934 ,1.24667 ,12.23235 
272 ,49.7210 ,1.19126 ,1.25009 ,12.26592 
273 ,49.8969 ,1.19305 ,1.22614 ,12.03088 
274 ,50.0892 ,1.19502 ,1.21587 ,11.93014 
275 ,50.2649 ,1.19673 ,1.17823 ,11.56078 
276 ,50.4734 ,1.19865 ,1.19876 ,11.76225 
277 ,50.6492 ,1.20057 ,1.18165 ,11.59436 
278 ,50.8252 ,1.20235 ,1.15085 ,11.29215 
279 ,51.0016 ,1.20406 ,1.15085 ,11.29215 
280 ,51.1774 ,1.20588 ,1.13032 ,11.09068 
281 ,51.3537 ,1.20764 ,1.12005 ,10.98995 
282 ,51.5294 ,1.20941 ,1.10979 ,10.88921 
283 ,51.7218 ,1.21117 ,1.08583 ,10.65416 
284 ,51.9140 ,1.21312 ,1.08241 ,10.62059 
285 ,52.0900 ,1.21502 ,1.05503 ,10.35196 
286 ,52.2656 ,1.21674 ,1.04819 ,10.28480 
287 ,52.4421 ,1.21853 ,1.04476 ,10.25123 
288 ,52.6341 ,1.22037 ,1.02081 ,10.01618 
289 ,52.8261 ,1.22229 ,1.00028 ,9.81471 
290 ,53.0024 ,1.22406 ,0.99343 ,9.74755 
291 ,53.1942 ,1.22601 ,0.99343 ,9.74755 
292 ,53.3704 ,1.22776 ,0.96605 ,9.47892 
293 ,53.5467 ,1.22957 ,0.96263 ,9.44535 
294 ,53.7226 ,1.23134 ,0.94552 ,9.27745 
295 ,53.8984 ,1.23306 ,0.94210 ,9.24388 
296 ,54.0747 ,1.23484 ,0.92157 ,9.04241 
297 ,54.2664 ,1.23672 ,0.89077 ,8.74020 
298 ,54.4429 ,1.23847 ,0.87708 ,8.60589 
299 ,54.6185 ,1.24026 ,0.89077 ,8.74020 
300 ,54.7946 ,1.24197 ,0.88392 ,8.67305 
301 ,54.9707 ,1.24375 ,0.85312 ,8.37084 
302 ,55.1470 ,1.24553 ,0.82232 ,8.06864 
303 ,55.3231 ,1.24742 ,0.83259 ,8.16937 
304 ,55.4991 ,1.24908 ,0.83259 ,8.16937 
305 ,55.6753 ,1.25080 ,0.81548 ,8.00148 
306 ,55.8513 ,1.25259 ,0.79495 ,7.80001 
307 ,56.0274 ,1.25431 ,0.77441 ,7.59854 
308 ,56.2194 ,1.25621 ,0.77784 ,7.63212 
309 ,56.3956 ,1.25802 ,0.75730 ,7.43065 
310 ,56.6034 ,1.25994 ,0.74019 ,7.26276 
311 ,56.8116 ,1.26207 ,0.71281 ,6.99413 
312 ,57.0037 ,1.26396 ,0.69570 ,6.82624 
313 ,57.2119 ,1.26609 ,0.69228 ,6.79266 
314 ,57.3878 ,1.26794 ,0.66833 ,6.55761 
315 ,57.5640 ,1.26971 ,0.66490 ,6.52403 
316 ,57.7559 ,1.27160 ,0.66148 ,6.49046 
317 ,57.9322 ,1.27339 ,0.63410 ,6.22183 
318 ,58.1402 ,1.27543 ,0.63753 ,6.25541 
319 ,58.3163 ,1.27731 ,0.60673 ,5.95320 
320 ,58.4921 ,1.27896 ,0.59304 ,5.81889 
321 ,58.6685 ,1.28074 ,0.58277 ,5.71815 
322 ,58.8605 ,1.28265 ,0.57935 ,5.68458 
323 ,59.0367 ,1.28438 ,0.56224 ,5.51668 
324 ,59.2287 ,1.28632 ,0.54513 ,5.34879 
325 ,59.4049 ,1.28812 ,0.52802 ,5.18090 
326 ,59.5968 ,1.29001 ,0.52802 ,5.18090 
327 ,59.7727 ,1.29173 ,0.51091 ,5.01301 
328 ,59.9651 ,1.29358 ,0.49037 ,4.81154 
329 ,60.1570 ,1.29561 ,0.49037 ,4.81154 
330 ,60.3331 ,1.29733 ,0.46300 ,4.54291 
331 ,60.5251 ,1.29924 ,0.45615 ,4.47576 
332 ,60.7013 ,1.30106 ,0.45615 ,4.47576 
333 ,60.8775 ,1.30278 ,0.44246 ,4.34144 
334 ,61.0853 ,1.30486 ,0.42193 ,4.13997 
335 ,61.2772 ,1.30668 ,0.40482 ,3.97208 
336 ,61.4536 ,1.30858 ,0.39113 ,3.83777 
337 ,61.6294 ,1.31039 ,0.36033 ,3.53557 
338 ,61.8378 ,1.31228 ,0.37060 ,3.63630 
339 ,62.0142 ,1.31419 ,0.34322 ,3.36767 
340 ,62.2060 ,1.31609 ,0.34322 ,3.36767 
341 ,62.3978 ,1.31792 ,0.33295 ,3.26694 
342 ,62.5900 ,1.31999 ,0.31584 ,3.09905 
343 ,62.7660 ,1.32181 ,0.30558 ,2.99831 
344 ,62.9421 ,1.32346 ,0.29873 ,2.93116 
345 ,63.1182 ,1.32524 ,0.29189 ,2.86400 
346 ,63.2939 ,1.32700 ,0.25767 ,2.52822 
347 ,63.4704 ,1.32874 ,0.25082 ,2.46106 
348 ,63.6465 ,1.33054 ,0.22002 ,2.15885 
349 ,63.8226 ,1.33226 ,0.23371 ,2.29317 
350 ,64.0147 ,1.33416 ,0.21660 ,2.12528 
351 ,64.2066 ,1.33605 ,0.20633 ,2.02454 
352 ,64.3827 ,1.33783 ,0.19264 ,1.89023 
353 ,64.5747 ,1.33980 ,0.16185 ,1.58802 
354 ,64.7508 ,1.34153 ,0.15500 ,1.52087 
355 ,64.9268 ,1.34334 ,0.13789 ,1.35298 
356 ,65.1189 ,1.34521 ,0.14473 ,1.42013 
357 ,65.2947 ,1.34699 ,0.11736 ,1.15151 
358 ,65.4711 ,1.34876 ,0.11393 ,1.11793 
359 ,65.6472 ,1.35051 ,0.08998 ,0.88288 
360 ,65.8232 ,1.35223 ,0.10025 ,0.98361 
361 ,65.9993 ,1.35404 ,0.08314 ,0.81572 
362 ,66.1915 ,1.35592 ,0.05234 ,0.51352 
363 ,66.3675 ,1.35774 ,0.05234 ,0.51352 
364 ,66.5436 ,1.35949 ,0.03865 ,0.37920 
365 ,66.7196 ,1.36118 ,0.02838 ,0.27847 
366 ,66.8954 ,1.36296 ,0.00100 ,0.00984 
367 ,67.0716 ,1.36472 ,-0.00584 ,-0.05731 
368 ,67.2479 ,1.36650 ,0.00443 ,0.04342 
369 ,67.4401 ,1.36840 ,-0.01953 ,-0.19163 
370 ,67.6321 ,1.37036 ,-0.05717 ,-0.56099 
371 ,67.8241 ,1.37220 ,-0.05033 ,-0.49383 
372 ,68.0001 ,1.37399 ,-0.05033 ,-0.49383 
373 ,68.1759 ,1.37579 ,-0.07086 ,-0.69530 
374 ,68.3522 ,1.37755 ,-0.07086 ,-0.69530 
375 ,68.5439 ,1.37939 ,-0.07771 ,-0.76246 
376 ,68.7205 ,1.38124 ,-0.09482 ,-0.93035 
377 ,68.9125 ,1.38312 ,-0.12562 ,-1.23255 
378 ,69.0725 ,1.38482 ,-0.12219 ,-1.19898 
379 ,69.2487 ,1.38649 ,-0.13588 ,-1.33329 
380 ,69.4246 ,1.38829 ,-0.14273 ,-1.40045 
381 ,69.6007 ,1.39004 ,-0.15642 ,-1.53476 
382 ,69.7768 ,1.39172 ,-0.17695 ,-1.73623 
383 ,69.9529 ,1.39348 ,-0.18722 ,-1.83696 
384 ,70.1291 ,1.39529 ,-0.20090 ,-1.97128 
385 ,70.3209 ,1.39723 ,-0.19406 ,-1.90412 
386 ,70.4970 ,1.39898 ,-0.21802 ,-2.13917 
387 ,70.6893 ,1.40089 ,-0.22828 ,-2.23990 
388 ,70.8653 ,1.40264 ,-0.22828 ,-2.23990 
389 ,71.0731 ,1.40466 ,-0.24539 ,-2.40779 
390 ,71.2494 ,1.40648 ,-0.26593 ,-2.60926 
391 ,71.4256 ,1.40820 ,-0.26593 ,-2.60926 
392 ,71.6175 ,1.41020 ,-0.28988 ,-2.84431 
393 ,71.7936 ,1.41191 ,-0.30357 ,-2.97863 
394 ,71.9698 ,1.41367 ,-0.30015 ,-2.94505 
395 ,72.1779 ,1.41568 ,-0.31726 ,-3.11294 
396 ,72.3538 ,1.41753 ,-0.35148 ,-3.44872 
397 ,72.5297 ,1.41931 ,-0.32752 ,-3.21367 
398 ,72.7060 ,1.42104 ,-0.33779 ,-3.31441 
399 ,72.8822 ,1.42281 ,-0.37201 ,-3.65019 
400 ,73.0582 ,1.42457 ,-0.37544 ,-3.68377 
401 ,73.2181 ,1.42628 ,-0.39597 ,-3.88524 
402 ,73.3943 ,1.42789 ,-0.39939 ,-3.91882 
403 ,73.5861 ,1.42985 ,-0.40623 ,-3.98597 
404 ,73.7623 ,1.43163 ,-0.39597 ,-3.88524 
405 ,73.9544 ,1.43351 ,-0.43361 ,-4.25460 
406 ,74.1306 ,1.43527 ,-0.44730 ,-4.38891 
407 ,74.3068 ,1.43705 ,-0.44046 ,-4.32176 
408 ,74.4988 ,1.43894 ,-0.47126 ,-4.62396 
409 ,74.6748 ,1.44068 ,-0.47810 ,-4.69112 
410 ,74.8509 ,1.44247 ,-0.47810 ,-4.69112 
411 ,75.0429 ,1.44438 ,-0.48494 ,-4.75828 
412 ,75.2190 ,1.44617 ,-0.51232 ,-5.02690 
413 ,75.4111 ,1.44808 ,-0.52259 ,-5.12764 
414 ,75.6028 ,1.45005 ,-0.51232 ,-5.02690 
415 ,75.7794 ,1.45177 ,-0.53970 ,-5.29553 
416 ,75.9554 ,1.45358 ,-0.56023 ,-5.49700 
417 ,76.1475 ,1.45544 ,-0.56023 ,-5.49700 
418 ,76.3393 ,1.45732 ,-0.58761 ,-5.76562 
419 ,76.5315 ,1.45920 ,-0.59445 ,-5.83278 
420 ,76.7237 ,1.46120 ,-0.59788 ,-5.86636 
421 ,76.9159 ,1.46318 ,-0.60472 ,-5.93352 
422 ,77.1080 ,1.46506 ,-0.60814 ,-5.96709 
423 ,77.2999 ,1.46700 ,-0.61841 ,-6.06783 
424 ,77.4919 ,1.46885 ,-0.64236 ,-6.30288 
425 ,77.6680 ,1.47060 ,-0.63894 ,-6.26930 
426 ,77.8602 ,1.47254 ,-0.67659 ,-6.63866 
427 ,78.0362 ,1.47430 ,-0.67316 ,-6.60508 
428 ,78.2122 ,1.47611 ,-0.68343 ,-6.70582 
429 ,78.4040 ,1.47802 ,-0.69370 ,-6.80655 
430 ,78.5803 ,1.47981 ,-0.70396 ,-6.90729 
431 ,78.7882 ,1.48175 ,-0.70396 ,-6.90729 
432 ,78.9482 ,1.48357 ,-0.72792 ,-7.14233 
433 ,79.1245 ,1.48519 ,-0.72107 ,-7.07518 
434 ,79.3165 ,1.48710 ,-0.76214 ,-7.47812 
435 ,79.4928 ,1.48886 ,-0.76556 ,-7.51170 
436 ,79.6848 ,1.49080 ,-0.76556 ,-7.51170 
437 ,79.8610 ,1.49257 ,-0.77241 ,-7.57885 
438 ,80.0370 ,1.49436 ,-0.81005 ,-7.94821 
439 ,80.2132 ,1.49608 ,-0.79636 ,-7.81390 
440 ,80.3891 ,1.49789 ,-0.79978 ,-7.84748 
441 ,80.5650 ,1.49966 ,-0.83743 ,-8.21684 
442 ,80.7573 ,1.50155 ,-0.83743 ,-8.21684 
443 ,80.9493 ,1.50338 ,-0.83401 ,-8.18326 
444 ,81.1254 ,1.50519 ,-0.84769 ,-8.31758 
445 ,81.3013 ,1.50700 ,-0.86138 ,-8.45189 
446 ,81.4936 ,1.50883 ,-0.88534 ,-8.68694 
447 ,81.6853 ,1.51073 ,-0.88534 ,-8.68694 
448 ,81.8777 ,1.51261 ,-0.90245 ,-8.85483 
449 ,82.0538 ,1.51449 ,-0.89903 ,-8.82125 
450 ,82.2458 ,1.51641 ,-0.91272 ,-8.95556 
451 ,82.4060 ,1.51810 ,-0.93325 ,-9.15703 
452 ,82.5816 ,1.51976 ,-0.94351 ,-9.25777 
453 ,82.7577 ,1.52156 ,-0.95378 ,-9.35850 
454 ,82.9342 ,1.52326 ,-0.94694 ,-9.29135 
455 ,83.1102 ,1.52501 ,-0.95720 ,-9.39208 
456 ,83.2864 ,1.52680 ,-0.96063 ,-9.42566 
457 ,83.4624 ,1.52861 ,-0.98116 ,-9.62713 
458 ,83.6381 ,1.53029 ,-0.98458 ,-9.66071 
459 ,83.8147 ,1.53211 ,-0.99143 ,-9.72786 
460 ,83.9905 ,1.53384 ,-0.98458 ,-9.66071 
461 ,84.1667 ,1.53565 ,-1.00169 ,-9.82860 
462 ,84.3424 ,1.53737 ,-1.02565 ,-10.06365 
463 ,84.5189 ,1.53914 ,-1.03591 ,-10.16438 
