Data stamp = , 29-03-2022 09:37:01 671

Calibration Values: 
Slope = , 26.54 , g/V 
Offset Voltage at no contact = , -0.501760 , V 

No , Time , Stage Position ,   Mass , Force 
   ,  (s) ,      (mm)      ,   (g)  , (mN)  

1 ,0.0000 ,0.69948 ,5.28141 ,51.82116 
2 ,0.2201 ,0.69955 ,5.28141 ,51.82116 
3 ,0.5885 ,0.70063 ,5.29852 ,51.98905 
4 ,0.7804 ,0.70225 ,5.29510 ,51.95548 
5 ,0.9563 ,0.70382 ,5.27456 ,51.75401 
6 ,1.1328 ,0.70552 ,5.27798 ,51.78758 
7 ,1.3087 ,0.70728 ,5.28483 ,51.85474 
8 ,1.5008 ,0.70923 ,5.27798 ,51.78758 
9 ,1.6767 ,0.71098 ,5.27114 ,51.72043 
10 ,1.8529 ,0.71277 ,5.25745 ,51.58611 
11 ,2.0288 ,0.71455 ,5.23692 ,51.38464 
12 ,2.2051 ,0.71626 ,5.24034 ,51.41822 
13 ,2.3973 ,0.71812 ,5.21639 ,51.18317 
14 ,2.5893 ,0.72016 ,5.19243 ,50.94813 
15 ,2.7974 ,0.72212 ,5.16848 ,50.71308 
16 ,2.9894 ,0.72404 ,5.15479 ,50.57876 
17 ,3.1654 ,0.72589 ,5.15479 ,50.57876 
18 ,3.3896 ,0.72802 ,5.14452 ,50.47803 
19 ,3.5817 ,0.73006 ,5.13083 ,50.34372 
20 ,3.7734 ,0.73193 ,5.09319 ,49.97436 
21 ,3.9499 ,0.73373 ,5.08292 ,49.87362 
22 ,4.1420 ,0.73553 ,5.06581 ,49.70573 
23 ,4.3179 ,0.73744 ,5.04870 ,49.53784 
24 ,4.5097 ,0.73932 ,5.03159 ,49.36995 
25 ,4.6858 ,0.74114 ,5.02474 ,49.30279 
26 ,4.8782 ,0.74300 ,5.00079 ,49.06774 
27 ,5.0541 ,0.74483 ,4.98368 ,48.89985 
28 ,5.2459 ,0.74671 ,4.97683 ,48.83269 
29 ,5.4385 ,0.74853 ,4.94261 ,48.49691 
30 ,5.6304 ,0.75055 ,4.92208 ,48.29544 
31 ,5.7903 ,0.75227 ,4.92550 ,48.32902 
32 ,5.9665 ,0.75394 ,4.90839 ,48.16113 
33 ,6.1426 ,0.75566 ,4.90839 ,48.16113 
34 ,6.3187 ,0.75742 ,4.87417 ,47.82534 
35 ,6.5108 ,0.75923 ,4.85706 ,47.65745 
36 ,6.7030 ,0.76122 ,4.84337 ,47.52314 
37 ,6.8790 ,0.76303 ,4.81599 ,47.25451 
38 ,7.0869 ,0.76501 ,4.81257 ,47.22093 
39 ,7.2631 ,0.76682 ,4.78177 ,46.91873 
40 ,7.4551 ,0.76876 ,4.75439 ,46.65010 
41 ,7.6470 ,0.77071 ,4.75782 ,46.68368 
42 ,7.8395 ,0.77252 ,4.72702 ,46.38148 
43 ,8.0154 ,0.77443 ,4.70990 ,46.21359 
44 ,8.1915 ,0.77616 ,4.68595 ,45.97854 
45 ,8.3674 ,0.77796 ,4.66884 ,45.81065 
46 ,8.5600 ,0.77979 ,4.66199 ,45.74349 
47 ,8.7517 ,0.78173 ,4.63119 ,45.44128 
48 ,8.9279 ,0.78349 ,4.62777 ,45.40771 
49 ,9.1199 ,0.78530 ,4.62435 ,45.37413 
50 ,9.3119 ,0.78736 ,4.59013 ,45.03835 
51 ,9.4882 ,0.78911 ,4.56275 ,44.76972 
52 ,9.6640 ,0.79087 ,4.55933 ,44.73614 
53 ,9.8402 ,0.79260 ,4.55933 ,44.73614 
54 ,9.9998 ,0.79432 ,4.53195 ,44.46751 
55 ,10.1598 ,0.79591 ,4.52511 ,44.40036 
56 ,10.3359 ,0.79755 ,4.50115 ,44.16531 
57 ,10.5125 ,0.79935 ,4.46351 ,43.79595 
58 ,10.7202 ,0.80136 ,4.46693 ,43.82953 
59 ,10.8964 ,0.80314 ,4.45324 ,43.69521 
60 ,11.0886 ,0.80507 ,4.42586 ,43.42659 
61 ,11.2644 ,0.80686 ,4.41218 ,43.29227 
62 ,11.4570 ,0.80872 ,4.39164 ,43.09080 
63 ,11.6333 ,0.81059 ,4.37795 ,42.95649 
64 ,11.8087 ,0.81227 ,4.35058 ,42.68786 
65 ,12.0011 ,0.81415 ,4.33004 ,42.48639 
66 ,12.1932 ,0.81616 ,4.31978 ,42.38566 
67 ,12.3689 ,0.81792 ,4.28898 ,42.08345 
68 ,12.5454 ,0.81966 ,4.29240 ,42.11703 
69 ,12.7375 ,0.82158 ,4.27871 ,41.98272 
70 ,12.9294 ,0.82348 ,4.24449 ,41.64694 
71 ,13.1054 ,0.82527 ,4.23422 ,41.54620 
72 ,13.2977 ,0.82716 ,4.22396 ,41.44547 
73 ,13.4897 ,0.82910 ,4.19316 ,41.14326 
74 ,13.6658 ,0.83091 ,4.18631 ,41.07611 
75 ,13.8577 ,0.83269 ,4.18289 ,41.04253 
76 ,14.0500 ,0.83471 ,4.13840 ,40.60601 
77 ,14.2582 ,0.83667 ,4.13840 ,40.60601 
78 ,14.4499 ,0.83866 ,4.11103 ,40.33738 
79 ,14.6261 ,0.84050 ,4.09734 ,40.20307 
80 ,14.8020 ,0.84222 ,4.08365 ,40.06876 
81 ,14.9780 ,0.84394 ,4.07680 ,40.00160 
82 ,15.1543 ,0.84572 ,4.04258 ,39.66582 
83 ,15.3304 ,0.84750 ,4.02889 ,39.53150 
84 ,15.5065 ,0.84919 ,4.01178 ,39.36361 
85 ,15.6827 ,0.85104 ,3.99809 ,39.22930 
86 ,15.8747 ,0.85292 ,3.98441 ,39.09499 
87 ,16.0507 ,0.85470 ,3.96045 ,38.85994 
88 ,16.2268 ,0.85643 ,3.94334 ,38.69205 
89 ,16.4188 ,0.85834 ,3.95361 ,38.79278 
90 ,16.6108 ,0.86021 ,3.91938 ,38.45700 
91 ,16.8030 ,0.86223 ,3.88858 ,38.15479 
92 ,16.9947 ,0.86413 ,3.89201 ,38.18837 
93 ,17.1711 ,0.86585 ,3.86121 ,37.88617 
94 ,17.3470 ,0.86767 ,3.84410 ,37.71828 
95 ,17.5394 ,0.86959 ,3.83725 ,37.65112 
96 ,17.7154 ,0.87136 ,3.82356 ,37.51681 
97 ,17.8913 ,0.87313 ,3.80645 ,37.34891 
98 ,18.0675 ,0.87484 ,3.77908 ,37.08029 
99 ,18.2592 ,0.87673 ,3.77908 ,37.08029 
100 ,18.4357 ,0.87853 ,3.74828 ,36.77808 
101 ,18.6119 ,0.88031 ,3.74143 ,36.71093 
102 ,18.8038 ,0.88219 ,3.71405 ,36.44230 
103 ,18.9800 ,0.88399 ,3.71748 ,36.47588 
104 ,19.1720 ,0.88582 ,3.66957 ,36.00578 
105 ,19.3638 ,0.88783 ,3.64903 ,35.80431 
106 ,19.5403 ,0.88958 ,3.64219 ,35.73716 
107 ,19.7163 ,0.89140 ,3.63534 ,35.67000 
108 ,19.8922 ,0.89312 ,3.62508 ,35.56926 
109 ,20.0683 ,0.89487 ,3.59428 ,35.26706 
110 ,20.2446 ,0.89662 ,3.58059 ,35.13275 
111 ,20.4362 ,0.89855 ,3.58401 ,35.16632 
112 ,20.6286 ,0.90043 ,3.55663 ,34.89770 
113 ,20.8046 ,0.90224 ,3.52926 ,34.62907 
114 ,20.9966 ,0.90411 ,3.54295 ,34.76338 
115 ,21.1728 ,0.90590 ,3.51899 ,34.52834 
116 ,21.3489 ,0.90771 ,3.49161 ,34.25971 
117 ,21.5411 ,0.90957 ,3.48135 ,34.15898 
118 ,21.7331 ,0.91144 ,3.46081 ,33.95751 
119 ,21.9088 ,0.91325 ,3.43686 ,33.72246 
120 ,22.0852 ,0.91502 ,3.40948 ,33.45383 
121 ,22.2770 ,0.91690 ,3.41633 ,33.52099 
122 ,22.4533 ,0.91864 ,3.40264 ,33.38667 
123 ,22.6451 ,0.92067 ,3.36842 ,33.05089 
124 ,22.8214 ,0.92239 ,3.35473 ,32.91658 
125 ,23.0135 ,0.92428 ,3.36157 ,32.98374 
126 ,23.1897 ,0.92601 ,3.31708 ,32.54722 
127 ,23.3657 ,0.92781 ,3.29997 ,32.37933 
128 ,23.5415 ,0.92951 ,3.28628 ,32.24501 
129 ,23.7338 ,0.93139 ,3.29655 ,32.34575 
130 ,23.9258 ,0.93335 ,3.25548 ,31.94281 
131 ,24.1021 ,0.93518 ,3.24522 ,31.84207 
132 ,24.2940 ,0.93708 ,3.23495 ,31.74134 
133 ,24.4865 ,0.93890 ,3.21442 ,31.53987 
134 ,24.6621 ,0.94078 ,3.18020 ,31.20409 
135 ,24.8223 ,0.94246 ,3.18362 ,31.23766 
136 ,24.9983 ,0.94416 ,3.16309 ,31.03619 
137 ,25.1905 ,0.94594 ,3.15966 ,31.00262 
138 ,25.3822 ,0.94795 ,3.12886 ,30.70041 
139 ,25.5587 ,0.94974 ,3.11518 ,30.56610 
140 ,25.7504 ,0.95165 ,3.10491 ,30.46536 
141 ,25.9265 ,0.95336 ,3.07753 ,30.19674 
142 ,26.1029 ,0.95518 ,3.06042 ,30.02884 
143 ,26.2945 ,0.95705 ,3.05700 ,29.99527 
144 ,26.4706 ,0.95885 ,3.04673 ,29.89453 
145 ,26.6471 ,0.96065 ,3.00909 ,29.52517 
146 ,26.8390 ,0.96254 ,2.98513 ,29.29012 
147 ,27.0150 ,0.96429 ,2.98855 ,29.32370 
148 ,27.1913 ,0.96605 ,2.96802 ,29.12223 
149 ,27.3672 ,0.96786 ,2.94749 ,28.92076 
150 ,27.5435 ,0.96958 ,2.93722 ,28.82003 
151 ,27.7193 ,0.97130 ,2.91327 ,28.58498 
152 ,27.8956 ,0.97311 ,2.90642 ,28.51782 
153 ,28.0716 ,0.97489 ,2.89616 ,28.41709 
154 ,28.2478 ,0.97665 ,2.86536 ,28.11488 
155 ,28.4557 ,0.97853 ,2.86878 ,28.14846 
156 ,28.6314 ,0.98044 ,2.84825 ,27.94699 
157 ,28.8241 ,0.98229 ,2.82087 ,27.67836 
158 ,29.0160 ,0.98421 ,2.80034 ,27.47689 
159 ,29.1920 ,0.98602 ,2.80034 ,27.47689 
160 ,29.3681 ,0.98780 ,2.78665 ,27.34258 
161 ,29.5440 ,0.98956 ,2.75585 ,27.04038 
162 ,29.7201 ,0.99134 ,2.74216 ,26.90606 
163 ,29.9123 ,0.99328 ,2.73874 ,26.87248 
164 ,30.0884 ,0.99504 ,2.72505 ,26.73817 
165 ,30.2642 ,0.99675 ,2.69083 ,26.40239 
166 ,30.4408 ,0.99853 ,2.67714 ,26.26807 
167 ,30.6326 ,1.00044 ,2.68740 ,26.36881 
168 ,30.8246 ,1.00226 ,2.64292 ,25.93229 
169 ,31.0008 ,1.00414 ,2.63607 ,25.86514 
170 ,31.2089 ,1.00611 ,2.62581 ,25.76440 
171 ,31.3849 ,1.00800 ,2.62238 ,25.73082 
172 ,31.5611 ,1.00974 ,2.58132 ,25.32788 
173 ,31.7371 ,1.01151 ,2.57105 ,25.22715 
174 ,31.9130 ,1.01329 ,2.57105 ,25.22715 
175 ,32.0730 ,1.01495 ,2.54710 ,24.99210 
176 ,32.2492 ,1.01662 ,2.54367 ,24.95852 
177 ,32.4418 ,1.01854 ,2.51287 ,24.65632 
178 ,32.6333 ,1.02048 ,2.50945 ,24.62274 
179 ,32.8093 ,1.02218 ,2.49918 ,24.52200 
180 ,32.9852 ,1.02399 ,2.47523 ,24.28696 
181 ,33.1776 ,1.02578 ,2.45812 ,24.11906 
182 ,33.3699 ,1.02785 ,2.45127 ,24.05191 
183 ,33.5458 ,1.02960 ,2.43074 ,23.85044 
184 ,33.7381 ,1.03151 ,2.41705 ,23.71612 
185 ,33.9140 ,1.03331 ,2.39310 ,23.48108 
186 ,34.0902 ,1.03503 ,2.38283 ,23.38034 
187 ,34.2819 ,1.03692 ,2.35888 ,23.14529 
188 ,34.4583 ,1.03871 ,2.32808 ,22.84309 
189 ,34.6503 ,1.04059 ,2.35545 ,23.11171 
190 ,34.8263 ,1.04234 ,2.30754 ,22.64162 
191 ,35.0186 ,1.04421 ,2.31097 ,22.67520 
192 ,35.2105 ,1.04622 ,2.29385 ,22.50731 
193 ,35.3868 ,1.04794 ,2.28017 ,22.37299 
194 ,35.5787 ,1.04991 ,2.24937 ,22.07079 
195 ,35.7549 ,1.05161 ,2.23910 ,21.97005 
196 ,35.9629 ,1.05370 ,2.20146 ,21.60069 
197 ,36.1549 ,1.05565 ,2.19803 ,21.56711 
198 ,36.3308 ,1.05741 ,2.19803 ,21.56711 
199 ,36.5072 ,1.05919 ,2.18435 ,21.43280 
200 ,36.6831 ,1.06094 ,2.15697 ,21.16417 
201 ,36.8592 ,1.06281 ,2.13301 ,20.92912 
202 ,37.0352 ,1.06444 ,2.12959 ,20.89555 
203 ,37.2275 ,1.06625 ,2.12959 ,20.89555 
204 ,37.4195 ,1.06824 ,2.07826 ,20.39187 
205 ,37.5955 ,1.07009 ,2.07484 ,20.35829 
206 ,37.7876 ,1.07186 ,2.06799 ,20.29114 
207 ,37.9956 ,1.07396 ,2.05088 ,20.12325 
208 ,38.2036 ,1.07598 ,2.04404 ,20.05609 
209 ,38.3799 ,1.07788 ,2.02008 ,19.82104 
210 ,38.5878 ,1.07995 ,2.00982 ,19.72031 
211 ,38.7638 ,1.08171 ,1.99955 ,19.61957 
212 ,38.9402 ,1.08350 ,1.97217 ,19.35094 
213 ,39.1320 ,1.08544 ,1.96533 ,19.28379 
214 ,39.3081 ,1.08718 ,1.95164 ,19.14948 
215 ,39.4842 ,1.08894 ,1.93795 ,19.01516 
216 ,39.6604 ,1.09073 ,1.91742 ,18.81369 
217 ,39.8524 ,1.09254 ,1.91399 ,18.78011 
218 ,40.0285 ,1.09439 ,1.89346 ,18.57864 
219 ,40.2205 ,1.09623 ,1.85924 ,18.24286 
220 ,40.4123 ,1.09811 ,1.83871 ,18.04139 
221 ,40.5888 ,1.10002 ,1.83871 ,18.04139 
222 ,40.7807 ,1.10187 ,1.82160 ,17.87350 
223 ,40.9569 ,1.10360 ,1.81475 ,17.80634 
224 ,41.1328 ,1.10543 ,1.80791 ,17.73919 
225 ,41.3087 ,1.10717 ,1.78053 ,17.47056 
226 ,41.4850 ,1.10889 ,1.78737 ,17.53772 
227 ,41.6610 ,1.11072 ,1.76342 ,17.30267 
228 ,41.8372 ,1.11248 ,1.73262 ,17.00046 
229 ,42.0133 ,1.11423 ,1.72235 ,16.89973 
230 ,42.2051 ,1.11607 ,1.72578 ,16.93331 
231 ,42.3976 ,1.11796 ,1.70182 ,16.69826 
232 ,42.5895 ,1.11996 ,1.69498 ,16.63110 
233 ,42.7657 ,1.12175 ,1.67444 ,16.42963 
234 ,42.9577 ,1.12357 ,1.66075 ,16.29532 
235 ,43.1497 ,1.12555 ,1.64022 ,16.09385 
236 ,43.3098 ,1.12730 ,1.63338 ,16.02669 
237 ,43.4858 ,1.12896 ,1.62311 ,15.92596 
238 ,43.6620 ,1.13070 ,1.60258 ,15.72449 
239 ,43.8536 ,1.13255 ,1.58547 ,15.55660 
240 ,44.0298 ,1.13439 ,1.57862 ,15.48944 
241 ,44.2061 ,1.13619 ,1.56151 ,15.32155 
242 ,44.3982 ,1.13809 ,1.53413 ,15.05292 
243 ,44.5903 ,1.14000 ,1.53413 ,15.05292 
244 ,44.7664 ,1.14175 ,1.51702 ,14.88503 
245 ,44.9586 ,1.14358 ,1.48280 ,14.54925 
246 ,45.1504 ,1.14548 ,1.47596 ,14.48209 
247 ,45.3585 ,1.14761 ,1.45542 ,14.28062 
248 ,45.5346 ,1.14940 ,1.44516 ,14.17989 
249 ,45.7108 ,1.15118 ,1.44174 ,14.14631 
250 ,45.8869 ,1.15291 ,1.43831 ,14.11273 
251 ,46.0630 ,1.15472 ,1.41436 ,13.87768 
252 ,46.2387 ,1.15645 ,1.39725 ,13.70979 
253 ,46.4150 ,1.15817 ,1.38014 ,13.54190 
254 ,46.5911 ,1.15992 ,1.36645 ,13.40759 
255 ,46.7669 ,1.16174 ,1.37329 ,13.47474 
256 ,46.9435 ,1.16346 ,1.34249 ,13.17254 
257 ,47.1194 ,1.16526 ,1.32196 ,12.97107 
258 ,47.2951 ,1.16704 ,1.31512 ,12.90391 
259 ,47.4713 ,1.16874 ,1.31512 ,12.90391 
260 ,47.6637 ,1.17075 ,1.30143 ,12.76960 
261 ,47.8397 ,1.17256 ,1.27405 ,12.50097 
262 ,48.0157 ,1.17421 ,1.27063 ,12.46739 
263 ,48.1917 ,1.17593 ,1.25694 ,12.33308 
264 ,48.3679 ,1.17769 ,1.25009 ,12.26592 
265 ,48.5600 ,1.17959 ,1.21929 ,11.96372 
266 ,48.7521 ,1.18148 ,1.20561 ,11.82941 
267 ,48.9282 ,1.18335 ,1.21245 ,11.89656 
268 ,49.1201 ,1.18523 ,1.18507 ,11.62794 
269 ,49.2960 ,1.18699 ,1.17138 ,11.49362 
270 ,49.4721 ,1.18880 ,1.15085 ,11.29215 
271 ,49.6485 ,1.19056 ,1.15085 ,11.29215 
272 ,49.8405 ,1.19246 ,1.13032 ,11.09068 
273 ,50.0166 ,1.19420 ,1.10294 ,10.82206 
274 ,50.1928 ,1.19600 ,1.10636 ,10.85563 
275 ,50.3687 ,1.19776 ,1.09952 ,10.78848 
276 ,50.5605 ,1.19964 ,1.08241 ,10.62059 
277 ,50.7368 ,1.20142 ,1.05503 ,10.35196 
278 ,50.9129 ,1.20315 ,1.05161 ,10.31838 
279 ,51.0890 ,1.20495 ,1.04819 ,10.28480 
280 ,51.2651 ,1.20667 ,1.03108 ,10.11691 
281 ,51.4416 ,1.20849 ,1.01396 ,9.94902 
282 ,51.6652 ,1.21057 ,1.00712 ,9.88186 
283 ,51.8568 ,1.21261 ,0.97632 ,9.57966 
284 ,52.0491 ,1.21445 ,0.95921 ,9.41177 
285 ,52.2254 ,1.21629 ,0.95921 ,9.41177 
286 ,52.4015 ,1.21808 ,0.93868 ,9.21030 
287 ,52.5776 ,1.21993 ,0.92157 ,9.04241 
288 ,52.7537 ,1.22162 ,0.90103 ,8.84094 
289 ,52.9458 ,1.22350 ,0.90788 ,8.90809 
290 ,53.1379 ,1.22543 ,0.88050 ,8.63947 
291 ,53.3140 ,1.22715 ,0.87366 ,8.57231 
292 ,53.5060 ,1.22910 ,0.87366 ,8.57231 
293 ,53.6820 ,1.23086 ,0.85997 ,8.43800 
294 ,53.8578 ,1.23260 ,0.82917 ,8.13579 
295 ,54.0342 ,1.23439 ,0.81548 ,8.00148 
296 ,54.2424 ,1.23636 ,0.81890 ,8.03506 
297 ,54.4345 ,1.23840 ,0.78468 ,7.69927 
298 ,54.6265 ,1.24032 ,0.78126 ,7.66570 
299 ,54.8023 ,1.24210 ,0.77099 ,7.56496 
300 ,54.9946 ,1.24398 ,0.74704 ,7.32991 
301 ,55.1706 ,1.24574 ,0.73335 ,7.19560 
302 ,55.3467 ,1.24755 ,0.73335 ,7.19560 
303 ,55.5227 ,1.24924 ,0.71624 ,7.02771 
304 ,55.6987 ,1.25101 ,0.69228 ,6.79266 
305 ,55.8907 ,1.25293 ,0.68886 ,6.75908 
306 ,56.0671 ,1.25471 ,0.67859 ,6.65835 
307 ,56.2431 ,1.25646 ,0.67517 ,6.62477 
308 ,56.4193 ,1.25822 ,0.64779 ,6.35614 
309 ,56.5953 ,1.25998 ,0.62384 ,6.12109 
310 ,56.7710 ,1.26186 ,0.62384 ,6.12109 
311 ,56.9475 ,1.26350 ,0.61015 ,5.98678 
312 ,57.1397 ,1.26538 ,0.58962 ,5.78531 
313 ,57.3317 ,1.26737 ,0.58277 ,5.71815 
314 ,57.5237 ,1.26924 ,0.58277 ,5.71815 
315 ,57.7158 ,1.27111 ,0.55539 ,5.44953 
316 ,57.9076 ,1.27301 ,0.54513 ,5.34879 
317 ,58.1000 ,1.27501 ,0.51775 ,5.08017 
318 ,58.2756 ,1.27678 ,0.51433 ,5.04659 
319 ,58.4520 ,1.27851 ,0.50406 ,4.94585 
320 ,58.6442 ,1.28033 ,0.49722 ,4.87870 
321 ,58.8200 ,1.28218 ,0.48695 ,4.77796 
322 ,59.0121 ,1.28408 ,0.45957 ,4.50934 
323 ,59.2044 ,1.28610 ,0.46300 ,4.54291 
324 ,59.3964 ,1.28791 ,0.43562 ,4.27429 
325 ,59.5886 ,1.28986 ,0.43562 ,4.27429 
326 ,59.7646 ,1.29170 ,0.41851 ,4.10640 
327 ,59.9567 ,1.29352 ,0.40824 ,4.00566 
328 ,60.1329 ,1.29539 ,0.38771 ,3.80419 
329 ,60.3089 ,1.29709 ,0.38086 ,3.73703 
330 ,60.4850 ,1.29886 ,0.36718 ,3.60272 
331 ,60.6609 ,1.30062 ,0.36375 ,3.56914 
332 ,60.8371 ,1.30238 ,0.33295 ,3.26694 
333 ,61.0292 ,1.30426 ,0.32953 ,3.23336 
334 ,61.2052 ,1.30603 ,0.31584 ,3.09905 
335 ,61.3811 ,1.30781 ,0.31584 ,3.09905 
336 ,61.5574 ,1.30961 ,0.28847 ,2.83042 
337 ,61.7493 ,1.31151 ,0.27820 ,2.72969 
338 ,61.9254 ,1.31323 ,0.27478 ,2.69611 
339 ,62.1176 ,1.31511 ,0.23371 ,2.29317 
340 ,62.2934 ,1.31695 ,0.23029 ,2.25959 
341 ,62.4697 ,1.31871 ,0.22344 ,2.19243 
342 ,62.6779 ,1.32068 ,0.22344 ,2.19243 
343 ,62.8858 ,1.32278 ,0.20633 ,2.02454 
344 ,63.0619 ,1.32473 ,0.17211 ,1.68876 
345 ,63.2381 ,1.32642 ,0.17553 ,1.72234 
346 ,63.4141 ,1.32814 ,0.15500 ,1.52087 
347 ,63.5902 ,1.33001 ,0.16869 ,1.65518 
348 ,63.7822 ,1.33174 ,0.14473 ,1.42013 
349 ,63.9743 ,1.33368 ,0.12078 ,1.18508 
350 ,64.1665 ,1.33565 ,0.13105 ,1.28582 
351 ,64.3745 ,1.33766 ,0.08656 ,0.84930 
352 ,64.5666 ,1.33961 ,0.09340 ,0.91646 
353 ,64.7428 ,1.34139 ,0.08656 ,0.84930 
354 ,64.9187 ,1.34315 ,0.06602 ,0.64783 
355 ,65.0944 ,1.34492 ,0.03865 ,0.37920 
356 ,65.2709 ,1.34669 ,0.03180 ,0.31205 
357 ,65.4789 ,1.34876 ,0.03180 ,0.31205 
358 ,65.6553 ,1.35050 ,0.00785 ,0.07700 
359 ,65.8472 ,1.35250 ,0.01127 ,0.11058 
360 ,66.0231 ,1.35420 ,0.01127 ,0.11058 
361 ,66.1992 ,1.35595 ,-0.01269 ,-0.12447 
362 ,66.4072 ,1.35784 ,-0.03322 ,-0.32594 
363 ,66.5995 ,1.35997 ,-0.03322 ,-0.32594 
364 ,66.7917 ,1.36184 ,-0.05375 ,-0.52741 
365 ,66.9676 ,1.36370 ,-0.05033 ,-0.49383 
366 ,67.1756 ,1.36577 ,-0.08113 ,-0.79604 
367 ,67.3515 ,1.36755 ,-0.09482 ,-0.93035 
368 ,67.5438 ,1.36943 ,-0.10166 ,-0.99751 
369 ,67.7199 ,1.37121 ,-0.11535 ,-1.13182 
370 ,67.9119 ,1.37302 ,-0.13246 ,-1.29971 
371 ,68.0878 ,1.37488 ,-0.14273 ,-1.40045 
372 ,68.2478 ,1.37656 ,-0.13246 ,-1.29971 
373 ,68.4242 ,1.37819 ,-0.16326 ,-1.60191 
374 ,68.6163 ,1.38016 ,-0.18037 ,-1.76981 
375 ,68.8082 ,1.38203 ,-0.17695 ,-1.73623 
376 ,68.9844 ,1.38383 ,-0.18722 ,-1.83696 
377 ,69.1765 ,1.38570 ,-0.21117 ,-2.07201 
378 ,69.3365 ,1.38749 ,-0.21802 ,-2.13917 
379 ,69.5126 ,1.38909 ,-0.24881 ,-2.44137 
380 ,69.6887 ,1.39086 ,-0.24881 ,-2.44137 
381 ,69.8644 ,1.39259 ,-0.23855 ,-2.34064 
382 ,70.0409 ,1.39439 ,-0.25908 ,-2.54211 
383 ,70.2329 ,1.39631 ,-0.28988 ,-2.84431 
384 ,70.4086 ,1.39806 ,-0.28646 ,-2.81073 
385 ,70.5685 ,1.39978 ,-0.28304 ,-2.77716 
386 ,70.7446 ,1.40138 ,-0.30015 ,-2.94505 
387 ,70.9373 ,1.40322 ,-0.31041 ,-3.04578 
388 ,71.1452 ,1.40539 ,-0.32410 ,-3.18010 
389 ,71.3211 ,1.40714 ,-0.33095 ,-3.24725 
390 ,71.4814 ,1.40887 ,-0.35832 ,-3.51588 
391 ,71.6735 ,1.41064 ,-0.37544 ,-3.68377 
392 ,71.8496 ,1.41249 ,-0.37886 ,-3.71735 
393 ,72.0257 ,1.41424 ,-0.38570 ,-3.78450 
394 ,72.2177 ,1.41615 ,-0.39597 ,-3.88524 
395 ,72.3935 ,1.41788 ,-0.42335 ,-4.15387 
396 ,72.5859 ,1.41975 ,-0.41992 ,-4.12029 
397 ,72.7780 ,1.42173 ,-0.43703 ,-4.28818 
398 ,72.9538 ,1.42354 ,-0.44046 ,-4.32176 
399 ,73.1301 ,1.42529 ,-0.46783 ,-4.59038 
400 ,73.3060 ,1.42703 ,-0.47468 ,-4.65754 
401 ,73.5139 ,1.42900 ,-0.46783 ,-4.59038 
402 ,73.6902 ,1.43087 ,-0.49863 ,-4.89259 
403 ,73.8503 ,1.43256 ,-0.49521 ,-4.85901 
404 ,74.0264 ,1.43419 ,-0.50548 ,-4.95975 
405 ,74.2185 ,1.43607 ,-0.52259 ,-5.12764 
406 ,74.4106 ,1.43807 ,-0.53628 ,-5.26195 
407 ,74.5867 ,1.43977 ,-0.54654 ,-5.36268 
408 ,74.7628 ,1.44160 ,-0.54654 ,-5.36268 
409 ,74.9549 ,1.44348 ,-0.57392 ,-5.63131 
410 ,75.1311 ,1.44528 ,-0.57734 ,-5.66489 
411 ,75.3066 ,1.44702 ,-0.58761 ,-5.76562 
412 ,75.4831 ,1.44878 ,-0.59788 ,-5.86636 
413 ,75.6589 ,1.45055 ,-0.59788 ,-5.86636 
414 ,75.8512 ,1.45245 ,-0.63894 ,-6.26930 
415 ,76.0271 ,1.45425 ,-0.63210 ,-6.20214 
416 ,76.2033 ,1.45601 ,-0.62868 ,-6.16856 
417 ,76.3794 ,1.45772 ,-0.64921 ,-6.37003 
418 ,76.5555 ,1.45952 ,-0.65947 ,-6.47077 
419 ,76.7475 ,1.46133 ,-0.67316 ,-6.60508 
420 ,76.9399 ,1.46331 ,-0.69027 ,-6.77297 
421 ,77.1156 ,1.46511 ,-0.68001 ,-6.67224 
422 ,77.2919 ,1.46683 ,-0.70054 ,-6.87371 
423 ,77.4839 ,1.46878 ,-0.71081 ,-6.97444 
424 ,77.6595 ,1.47054 ,-0.71423 ,-7.00802 
425 ,77.8361 ,1.47234 ,-0.73134 ,-7.17591 
426 ,78.0281 ,1.47423 ,-0.74161 ,-7.27665 
427 ,78.2362 ,1.47621 ,-0.72450 ,-7.10876 
428 ,78.4282 ,1.47825 ,-0.75872 ,-7.44454 
429 ,78.6041 ,1.47999 ,-0.76556 ,-7.51170 
430 ,78.7803 ,1.48171 ,-0.74845 ,-7.34380 
431 ,78.9562 ,1.48353 ,-0.77583 ,-7.61243 
432 ,79.1484 ,1.48538 ,-0.79636 ,-7.81390 
433 ,79.3247 ,1.48719 ,-0.78952 ,-7.74674 
434 ,79.5166 ,1.48901 ,-0.81347 ,-7.98179 
435 ,79.6927 ,1.49089 ,-0.82716 ,-8.11611 
436 ,79.8688 ,1.49258 ,-0.83401 ,-8.18326 
437 ,80.0449 ,1.49451 ,-0.83743 ,-8.21684 
438 ,80.2369 ,1.49628 ,-0.83743 ,-8.21684 
439 ,80.4130 ,1.49805 ,-0.85796 ,-8.41831 
440 ,80.6050 ,1.50000 ,-0.86823 ,-8.51904 
441 ,80.7808 ,1.50169 ,-0.87849 ,-8.61978 
442 ,80.9573 ,1.50350 ,-0.89218 ,-8.75409 
443 ,81.1333 ,1.50529 ,-0.89560 ,-8.78767 
444 ,81.3094 ,1.50700 ,-0.92298 ,-9.05630 
445 ,81.5012 ,1.50893 ,-0.92640 ,-9.08988 
446 ,81.6774 ,1.51070 ,-0.92640 ,-9.08988 
447 ,81.8533 ,1.51242 ,-0.94351 ,-9.25777 
448 ,82.0296 ,1.51421 ,-0.95720 ,-9.39208 
449 ,82.2053 ,1.51599 ,-0.96747 ,-9.49282 
450 ,82.3815 ,1.51771 ,-0.96405 ,-9.45924 
451 ,82.5578 ,1.51952 ,-0.96747 ,-9.49282 
452 ,82.7499 ,1.52144 ,-1.00169 ,-9.82860 
453 ,82.9100 ,1.52313 ,-1.00854 ,-9.89576 
454 ,83.0862 ,1.52473 ,-1.00854 ,-9.89576 
455 ,83.2622 ,1.52654 ,-1.01196 ,-9.92933 
456 ,83.4386 ,1.52831 ,-1.01196 ,-9.92933 
457 ,83.6142 ,1.53008 ,-1.03591 ,-10.16438 
458 ,83.7903 ,1.53183 ,-1.06329 ,-10.43301 
459 ,83.9824 ,1.53370 ,-1.04960 ,-10.29869 
460 ,84.1586 ,1.53545 ,-1.04276 ,-10.23154 
461 ,84.3343 ,1.53731 ,-1.08725 ,-10.66806 
462 ,84.5105 ,1.53903 ,-1.10093 ,-10.80237 
