Data stamp = , 28-03-2022 20:44:42 519

Calibration Values: 
Slope = , 26.54 , g/V 
Offset Voltage at no contact = , -0.501760 , V 

No , Time , Stage Position ,   Mass , Force 
   ,  (s) ,      (mm)      ,   (g)  , (mN)  

1 ,0.0000 ,0.69948 ,5.25403 ,51.55254 
2 ,0.2168 ,0.69954 ,5.27798 ,51.78758 
3 ,0.4411 ,0.70012 ,5.25403 ,51.55254 
4 ,0.6167 ,0.70110 ,5.26772 ,51.68685 
5 ,0.8091 ,0.70243 ,5.25403 ,51.55254 
6 ,1.0172 ,0.70426 ,5.28483 ,51.85474 
7 ,1.2091 ,0.70623 ,5.27114 ,51.72043 
8 ,1.3851 ,0.70798 ,5.27114 ,51.72043 
9 ,1.5614 ,0.70983 ,5.26430 ,51.65327 
10 ,1.7538 ,0.71171 ,5.23692 ,51.38464 
11 ,1.9296 ,0.71349 ,5.23007 ,51.31749 
12 ,2.1215 ,0.71544 ,5.23350 ,51.35107 
13 ,2.2977 ,0.71722 ,5.21981 ,51.21675 
14 ,2.4734 ,0.71898 ,5.20612 ,51.08244 
15 ,2.6654 ,0.72075 ,5.18901 ,50.91455 
16 ,2.8579 ,0.72267 ,5.17532 ,50.78023 
17 ,3.0501 ,0.72465 ,5.16505 ,50.67950 
18 ,3.2259 ,0.72646 ,5.13425 ,50.37729 
19 ,3.4021 ,0.72828 ,5.14794 ,50.51161 
20 ,3.5779 ,0.73000 ,5.13083 ,50.34372 
21 ,3.7542 ,0.73178 ,5.11714 ,50.20940 
22 ,3.9142 ,0.73344 ,5.09661 ,50.00793 
23 ,4.0903 ,0.73512 ,5.07608 ,49.80646 
24 ,4.2664 ,0.73684 ,5.07950 ,49.84004 
25 ,4.4424 ,0.73866 ,5.06239 ,49.67215 
26 ,4.6185 ,0.74037 ,5.04870 ,49.53784 
27 ,4.7945 ,0.74214 ,5.02817 ,49.33637 
28 ,4.9546 ,0.74385 ,5.01106 ,49.16848 
29 ,5.1466 ,0.74561 ,5.01448 ,49.20205 
30 ,5.3228 ,0.74745 ,4.98710 ,48.93343 
31 ,5.4986 ,0.74920 ,4.97683 ,48.83269 
32 ,5.6749 ,0.75093 ,4.96315 ,48.69838 
33 ,5.8510 ,0.75268 ,4.93577 ,48.42975 
34 ,6.0269 ,0.75446 ,4.93235 ,48.39618 
35 ,6.2032 ,0.75622 ,4.92550 ,48.32902 
36 ,6.3631 ,0.75796 ,4.90155 ,48.09397 
37 ,6.5232 ,0.75953 ,4.89812 ,48.06039 
38 ,6.6991 ,0.76118 ,4.87075 ,47.79177 
39 ,6.8751 ,0.76291 ,4.87417 ,47.82534 
40 ,7.0675 ,0.76478 ,4.84337 ,47.52314 
41 ,7.2595 ,0.76676 ,4.82626 ,47.35525 
42 ,7.4356 ,0.76857 ,4.82284 ,47.32167 
43 ,7.6278 ,0.77038 ,4.79546 ,47.05304 
44 ,7.8197 ,0.77240 ,4.79204 ,47.01946 
45 ,7.9960 ,0.77415 ,4.77493 ,46.85157 
46 ,8.1719 ,0.77590 ,4.74413 ,46.54937 
47 ,8.3483 ,0.77766 ,4.72702 ,46.38148 
48 ,8.5402 ,0.77957 ,4.72017 ,46.31432 
49 ,8.7161 ,0.78132 ,4.69964 ,46.11285 
50 ,8.8921 ,0.78310 ,4.69279 ,46.04569 
51 ,9.0682 ,0.78488 ,4.66542 ,45.77707 
52 ,9.2446 ,0.78663 ,4.65173 ,45.64275 
53 ,9.4206 ,0.78838 ,4.65857 ,45.70991 
54 ,9.5966 ,0.79016 ,4.63119 ,45.44128 
55 ,9.7888 ,0.79207 ,4.60382 ,45.17266 
56 ,9.9645 ,0.79380 ,4.60040 ,45.13908 
57 ,10.1408 ,0.79561 ,4.58328 ,44.97119 
58 ,10.3170 ,0.79731 ,4.56617 ,44.80330 
59 ,10.5089 ,0.79929 ,4.53880 ,44.53467 
60 ,10.7170 ,0.80122 ,4.52853 ,44.43394 
61 ,10.8930 ,0.80310 ,4.50115 ,44.16531 
62 ,11.0693 ,0.80485 ,4.48746 ,44.03100 
63 ,11.2611 ,0.80682 ,4.46009 ,43.76237 
64 ,11.4534 ,0.80865 ,4.45324 ,43.69521 
65 ,11.6295 ,0.81049 ,4.43271 ,43.49374 
66 ,11.8214 ,0.81240 ,4.43613 ,43.52732 
67 ,11.9976 ,0.81418 ,4.42244 ,43.39301 
68 ,12.1737 ,0.81593 ,4.39849 ,43.15796 
69 ,12.3658 ,0.81773 ,4.37453 ,42.92291 
70 ,12.5578 ,0.81971 ,4.36084 ,42.78860 
71 ,12.7338 ,0.82146 ,4.32320 ,42.41924 
72 ,12.9100 ,0.82326 ,4.32320 ,42.41924 
73 ,13.0857 ,0.82505 ,4.30267 ,42.21777 
74 ,13.2622 ,0.82680 ,4.28213 ,42.01630 
75 ,13.4383 ,0.82858 ,4.27529 ,41.94914 
76 ,13.6140 ,0.83030 ,4.25818 ,41.78125 
77 ,13.7903 ,0.83206 ,4.23765 ,41.57978 
78 ,13.9662 ,0.83379 ,4.20685 ,41.27758 
79 ,14.1423 ,0.83565 ,4.20342 ,41.24400 
80 ,14.3185 ,0.83737 ,4.18974 ,41.10968 
81 ,14.4942 ,0.83909 ,4.16920 ,40.90821 
82 ,14.6703 ,0.84086 ,4.14525 ,40.67317 
83 ,14.8302 ,0.84260 ,4.11787 ,40.40454 
84 ,15.0228 ,0.84426 ,4.11445 ,40.37096 
85 ,15.2149 ,0.84642 ,4.11103 ,40.33738 
86 ,15.3910 ,0.84806 ,4.10076 ,40.23665 
87 ,15.5669 ,0.84978 ,4.06996 ,39.93444 
88 ,15.7431 ,0.85161 ,4.06654 ,39.90087 
89 ,15.9351 ,0.85337 ,4.04600 ,39.69940 
90 ,16.1433 ,0.85556 ,4.03916 ,39.63224 
91 ,16.3193 ,0.85733 ,4.01520 ,39.39719 
92 ,16.5115 ,0.85920 ,3.98098 ,39.06141 
93 ,16.6876 ,0.86108 ,3.96387 ,38.89352 
94 ,16.8797 ,0.86292 ,3.96387 ,38.89352 
95 ,17.0717 ,0.86481 ,3.93307 ,38.59131 
96 ,17.2633 ,0.86676 ,3.91596 ,38.42342 
97 ,17.4395 ,0.86853 ,3.90227 ,38.28911 
98 ,17.5995 ,0.87025 ,3.89543 ,38.22195 
99 ,17.7756 ,0.87190 ,3.87147 ,37.98690 
100 ,17.9521 ,0.87366 ,3.85094 ,37.78543 
101 ,18.1441 ,0.87558 ,3.85094 ,37.78543 
102 ,18.3198 ,0.87742 ,3.83041 ,37.58396 
103 ,18.4961 ,0.87910 ,3.82014 ,37.48323 
104 ,18.6724 ,0.88087 ,3.78250 ,37.11387 
105 ,18.8488 ,0.88265 ,3.76881 ,36.97955 
106 ,19.0403 ,0.88450 ,3.77565 ,37.04671 
107 ,19.2166 ,0.88630 ,3.75512 ,36.84524 
108 ,19.4086 ,0.88825 ,3.74143 ,36.71093 
109 ,19.5849 ,0.89000 ,3.70037 ,36.30799 
110 ,19.7605 ,0.89182 ,3.70721 ,36.37514 
111 ,19.9365 ,0.89350 ,3.70379 ,36.34157 
112 ,20.1125 ,0.89522 ,3.65588 ,35.87147 
113 ,20.2890 ,0.89704 ,3.64903 ,35.80431 
114 ,20.4651 ,0.89877 ,3.63192 ,35.63642 
115 ,20.6573 ,0.90068 ,3.62850 ,35.60284 
116 ,20.8333 ,0.90249 ,3.62166 ,35.53569 
117 ,21.0254 ,0.90438 ,3.58743 ,35.19990 
118 ,21.2175 ,0.90625 ,3.58401 ,35.16632 
119 ,21.3935 ,0.90807 ,3.55321 ,34.86412 
120 ,21.5696 ,0.90978 ,3.53268 ,34.66265 
121 ,21.7455 ,0.91160 ,3.52584 ,34.59549 
122 ,21.9218 ,0.91330 ,3.50872 ,34.42760 
123 ,22.1136 ,0.91526 ,3.50188 ,34.36045 
124 ,22.3059 ,0.91718 ,3.45739 ,33.92393 
125 ,22.4816 ,0.91895 ,3.46766 ,34.02466 
126 ,22.6581 ,0.92075 ,3.44370 ,33.78961 
127 ,22.8504 ,0.92265 ,3.42659 ,33.62172 
128 ,23.0262 ,0.92441 ,3.40606 ,33.42025 
129 ,23.2022 ,0.92615 ,3.37526 ,33.11805 
130 ,23.3943 ,0.92807 ,3.37868 ,33.15163 
131 ,23.5703 ,0.92991 ,3.34788 ,32.84942 
132 ,23.7469 ,0.93158 ,3.33419 ,32.71511 
133 ,23.9547 ,0.93355 ,3.32051 ,32.58080 
134 ,24.1307 ,0.93543 ,3.31024 ,32.48006 
135 ,24.3067 ,0.93719 ,3.28628 ,32.24501 
136 ,24.4829 ,0.93896 ,3.28286 ,32.21143 
137 ,24.6589 ,0.94075 ,3.27602 ,32.14428 
138 ,24.8348 ,0.94247 ,3.25891 ,31.97639 
139 ,25.0271 ,0.94439 ,3.21442 ,31.53987 
140 ,25.2029 ,0.94617 ,3.20757 ,31.47271 
141 ,25.4112 ,0.94811 ,3.21100 ,31.50629 
142 ,25.5869 ,0.94999 ,3.17335 ,31.13693 
143 ,25.7633 ,0.95174 ,3.14597 ,30.86830 
144 ,25.9394 ,0.95356 ,3.14597 ,30.86830 
145 ,26.1315 ,0.95534 ,3.13571 ,30.76757 
146 ,26.3074 ,0.95721 ,3.10491 ,30.46536 
147 ,26.4836 ,0.95897 ,3.09122 ,30.33105 
148 ,26.6595 ,0.96070 ,3.07411 ,30.16316 
149 ,26.8678 ,0.96272 ,3.06384 ,30.06242 
150 ,27.0438 ,0.96455 ,3.03989 ,29.82737 
151 ,27.2199 ,0.96635 ,3.03989 ,29.82737 
152 ,27.4120 ,0.96823 ,3.00224 ,29.45801 
153 ,27.6039 ,0.97016 ,2.99540 ,29.39086 
154 ,27.7799 ,0.97188 ,2.99198 ,29.35728 
155 ,27.9883 ,0.97388 ,2.96460 ,29.08865 
156 ,28.1803 ,0.97594 ,2.94749 ,28.92076 
157 ,28.3560 ,0.97764 ,2.93038 ,28.75287 
158 ,28.5325 ,0.97943 ,2.91327 ,28.58498 
159 ,28.7243 ,0.98136 ,2.88589 ,28.31635 
160 ,28.9006 ,0.98317 ,2.88247 ,28.28277 
161 ,29.0766 ,0.98490 ,2.87220 ,28.18204 
162 ,29.2527 ,0.98666 ,2.83798 ,27.84625 
163 ,29.4287 ,0.98843 ,2.83456 ,27.81268 
164 ,29.6049 ,0.99021 ,2.82087 ,27.67836 
165 ,29.7966 ,0.99197 ,2.81060 ,27.57763 
166 ,29.9729 ,0.99379 ,2.79007 ,27.37616 
167 ,30.1493 ,0.99560 ,2.75927 ,27.07395 
168 ,30.3092 ,0.99735 ,2.73874 ,26.87248 
169 ,30.4853 ,0.99901 ,2.73189 ,26.80533 
170 ,30.6774 ,1.00083 ,2.73531 ,26.83891 
171 ,30.8532 ,1.00261 ,2.71136 ,26.60386 
172 ,31.0295 ,1.00439 ,2.68740 ,26.36881 
173 ,31.2376 ,1.00643 ,2.66003 ,26.10018 
174 ,31.4297 ,1.00832 ,2.66345 ,26.13376 
175 ,31.6217 ,1.01033 ,2.64634 ,25.96587 
176 ,31.7978 ,1.01210 ,2.63607 ,25.86514 
177 ,31.9578 ,1.01380 ,2.61212 ,25.63009 
178 ,32.1339 ,1.01542 ,2.59501 ,25.46220 
179 ,32.3100 ,1.01718 ,2.58132 ,25.32788 
180 ,32.4862 ,1.01901 ,2.55736 ,25.09283 
181 ,32.6783 ,1.02081 ,2.55394 ,25.05926 
182 ,32.8545 ,1.02265 ,2.54025 ,24.92494 
183 ,33.0466 ,1.02457 ,2.50945 ,24.62274 
184 ,33.2547 ,1.02656 ,2.51287 ,24.65632 
185 ,33.4466 ,1.02852 ,2.48207 ,24.35411 
186 ,33.6226 ,1.03033 ,2.44785 ,24.01833 
187 ,33.7987 ,1.03204 ,2.46496 ,24.18622 
188 ,33.9744 ,1.03383 ,2.45127 ,24.05191 
189 ,34.1510 ,1.03559 ,2.42390 ,23.78328 
190 ,34.3267 ,1.03736 ,2.39310 ,23.48108 
191 ,34.5190 ,1.03918 ,2.39652 ,23.51465 
192 ,34.6950 ,1.04103 ,2.38968 ,23.44750 
193 ,34.8710 ,1.04281 ,2.36914 ,23.24603 
194 ,35.0307 ,1.04450 ,2.34861 ,23.04456 
195 ,35.2072 ,1.04613 ,2.33150 ,22.87667 
196 ,35.3833 ,1.04792 ,2.31439 ,22.70877 
197 ,35.5594 ,1.04962 ,2.30412 ,22.60804 
198 ,35.7355 ,1.05148 ,2.30070 ,22.57446 
199 ,35.9116 ,1.05319 ,2.28359 ,22.40657 
200 ,36.1035 ,1.05507 ,2.24937 ,22.07079 
201 ,36.2795 ,1.05687 ,2.24594 ,22.03721 
202 ,36.4555 ,1.05861 ,2.24252 ,22.00363 
203 ,36.6480 ,1.06062 ,2.21172 ,21.70143 
204 ,36.8238 ,1.06230 ,2.19803 ,21.56711 
205 ,36.9997 ,1.06409 ,2.17750 ,21.36564 
206 ,37.1922 ,1.06597 ,2.17750 ,21.36564 
207 ,37.3841 ,1.06792 ,2.14328 ,21.02986 
208 ,37.5602 ,1.06963 ,2.13986 ,20.99628 
209 ,37.7524 ,1.07155 ,2.12275 ,20.82839 
210 ,37.9281 ,1.07333 ,2.10221 ,20.62692 
211 ,38.1204 ,1.07524 ,2.08510 ,20.45903 
212 ,38.3124 ,1.07718 ,2.08852 ,20.49261 
213 ,38.4886 ,1.07896 ,2.06799 ,20.29114 
214 ,38.6646 ,1.08075 ,2.05088 ,20.12325 
215 ,38.8406 ,1.08244 ,2.02350 ,19.85462 
216 ,39.0003 ,1.08419 ,2.02693 ,19.88820 
217 ,39.1769 ,1.08581 ,2.00982 ,19.72031 
218 ,39.3690 ,1.08772 ,1.97559 ,19.38452 
219 ,39.5450 ,1.08952 ,1.97217 ,19.35094 
220 ,39.7212 ,1.09126 ,1.94479 ,19.08232 
221 ,39.8973 ,1.09306 ,1.94479 ,19.08232 
222 ,40.0892 ,1.09496 ,1.93453 ,18.98158 
223 ,40.2489 ,1.09664 ,1.90373 ,18.67938 
224 ,40.4253 ,1.09834 ,1.90031 ,18.64580 
225 ,40.6015 ,1.10009 ,1.87635 ,18.41075 
226 ,40.7934 ,1.10197 ,1.88662 ,18.51149 
227 ,40.9696 ,1.10376 ,1.83871 ,18.04139 
228 ,41.1455 ,1.10553 ,1.84213 ,18.07497 
229 ,41.3213 ,1.10728 ,1.81475 ,17.80634 
230 ,41.4978 ,1.10900 ,1.80449 ,17.70561 
231 ,41.6899 ,1.11093 ,1.80106 ,17.67203 
232 ,41.8659 ,1.11273 ,1.76000 ,17.26909 
233 ,42.0421 ,1.11451 ,1.75657 ,17.23551 
234 ,42.2180 ,1.11627 ,1.74631 ,17.13478 
235 ,42.4102 ,1.11818 ,1.74631 ,17.13478 
236 ,42.6022 ,1.12006 ,1.70866 ,16.76542 
237 ,42.7783 ,1.12181 ,1.71551 ,16.83257 
238 ,42.9383 ,1.12353 ,1.71209 ,16.79899 
239 ,43.1301 ,1.12528 ,1.67444 ,16.42963 
240 ,43.3064 ,1.12710 ,1.65049 ,16.19458 
241 ,43.5146 ,1.12910 ,1.64022 ,16.09385 
242 ,43.7066 ,1.13102 ,1.63338 ,16.02669 
243 ,43.8987 ,1.13303 ,1.61969 ,15.89238 
244 ,44.0588 ,1.13474 ,1.60942 ,15.79164 
245 ,44.2350 ,1.13640 ,1.59916 ,15.69091 
246 ,44.4266 ,1.13831 ,1.57862 ,15.48944 
247 ,44.6030 ,1.14006 ,1.54782 ,15.18724 
248 ,44.8111 ,1.14213 ,1.56151 ,15.32155 
249 ,44.9872 ,1.14392 ,1.53413 ,15.05292 
250 ,45.1630 ,1.14571 ,1.50333 ,14.75072 
251 ,45.3553 ,1.14755 ,1.50676 ,14.78430 
252 ,45.5314 ,1.14934 ,1.49649 ,14.68356 
253 ,45.7231 ,1.15119 ,1.46227 ,14.34778 
254 ,45.9154 ,1.15319 ,1.45200 ,14.24704 
255 ,46.0917 ,1.15494 ,1.45200 ,14.24704 
256 ,46.2678 ,1.15676 ,1.42805 ,14.01199 
257 ,46.4598 ,1.15863 ,1.40409 ,13.77695 
258 ,46.6358 ,1.16039 ,1.41094 ,13.84410 
259 ,46.8277 ,1.16227 ,1.38698 ,13.60906 
260 ,47.0197 ,1.16422 ,1.35960 ,13.34043 
261 ,47.1959 ,1.16597 ,1.38014 ,13.54190 
262 ,47.4042 ,1.16804 ,1.34249 ,13.17254 
263 ,47.5960 ,1.16991 ,1.34591 ,13.20612 
264 ,47.7724 ,1.17174 ,1.33565 ,13.10538 
265 ,47.9484 ,1.17351 ,1.32196 ,12.97107 
266 ,48.1245 ,1.17529 ,1.29116 ,12.66886 
267 ,48.3006 ,1.17706 ,1.29116 ,12.66886 
268 ,48.5085 ,1.17902 ,1.27747 ,12.53455 
269 ,48.7007 ,1.18096 ,1.25694 ,12.33308 
270 ,48.8927 ,1.18297 ,1.24667 ,12.23235 
271 ,49.0688 ,1.18467 ,1.22956 ,12.06445 
272 ,49.2449 ,1.18649 ,1.21587 ,11.93014 
273 ,49.4211 ,1.18821 ,1.19192 ,11.69509 
274 ,49.5971 ,1.19002 ,1.19534 ,11.72867 
275 ,49.7732 ,1.19177 ,1.18165 ,11.59436 
276 ,49.9494 ,1.19361 ,1.15770 ,11.35931 
277 ,50.1414 ,1.19543 ,1.14743 ,11.25857 
278 ,50.3175 ,1.19722 ,1.12347 ,11.02353 
279 ,50.5095 ,1.19904 ,1.12347 ,11.02353 
280 ,50.7014 ,1.20107 ,1.10636 ,10.85563 
281 ,50.8937 ,1.20292 ,1.10636 ,10.85563 
282 ,51.0694 ,1.20473 ,1.09952 ,10.78848 
283 ,51.2458 ,1.20646 ,1.06187 ,10.41912 
284 ,51.4218 ,1.20820 ,1.05503 ,10.35196 
285 ,51.5980 ,1.21000 ,1.03792 ,10.18407 
286 ,51.7901 ,1.21190 ,1.04476 ,10.25123 
287 ,51.9821 ,1.21385 ,1.01054 ,9.91544 
288 ,52.1582 ,1.21560 ,0.99685 ,9.78113 
289 ,52.3342 ,1.21731 ,0.99685 ,9.78113 
290 ,52.5104 ,1.21914 ,0.99001 ,9.71397 
291 ,52.6865 ,1.22092 ,0.97974 ,9.61324 
292 ,52.8626 ,1.22263 ,0.93525 ,9.17672 
293 ,53.0547 ,1.22457 ,0.94210 ,9.24388 
294 ,53.2308 ,1.22631 ,0.94210 ,9.24388 
295 ,53.4228 ,1.22822 ,0.90788 ,8.90809 
296 ,53.5989 ,1.23002 ,0.90103 ,8.84094 
297 ,53.7747 ,1.23178 ,0.89419 ,8.77378 
298 ,53.9513 ,1.23353 ,0.88734 ,8.70662 
299 ,54.1270 ,1.23525 ,0.86339 ,8.47158 
300 ,54.3192 ,1.23719 ,0.84628 ,8.30368 
301 ,54.5112 ,1.23901 ,0.84286 ,8.27011 
302 ,54.7034 ,1.24105 ,0.82232 ,8.06864 
303 ,54.8793 ,1.24281 ,0.80179 ,7.86717 
304 ,55.0555 ,1.24455 ,0.80863 ,7.93432 
305 ,55.2476 ,1.24649 ,0.78810 ,7.73285 
306 ,55.4236 ,1.24822 ,0.76757 ,7.53138 
307 ,55.5997 ,1.25003 ,0.75730 ,7.43065 
308 ,55.7757 ,1.25179 ,0.77099 ,7.56496 
309 ,55.9518 ,1.25353 ,0.75730 ,7.43065 
310 ,56.1440 ,1.25541 ,0.71966 ,7.06129 
311 ,56.3199 ,1.25719 ,0.71281 ,6.99413 
312 ,56.4961 ,1.25893 ,0.71281 ,6.99413 
313 ,56.6721 ,1.26073 ,0.71281 ,6.99413 
314 ,56.8480 ,1.26246 ,0.66833 ,6.55761 
315 ,57.0241 ,1.26421 ,0.67517 ,6.62477 
316 ,57.2321 ,1.26628 ,0.66833 ,6.55761 
317 ,57.4084 ,1.26804 ,0.63753 ,6.25541 
318 ,57.6163 ,1.27007 ,0.62726 ,6.15467 
319 ,57.7926 ,1.27192 ,0.62384 ,6.12109 
320 ,57.9682 ,1.27369 ,0.61357 ,6.02036 
321 ,58.1446 ,1.27545 ,0.60330 ,5.91962 
322 ,58.3367 ,1.27736 ,0.59304 ,5.81889 
323 ,58.5129 ,1.27912 ,0.57593 ,5.65100 
324 ,58.7048 ,1.28100 ,0.56908 ,5.58384 
325 ,58.8809 ,1.28278 ,0.55882 ,5.48311 
326 ,59.0570 ,1.28454 ,0.54171 ,5.31522 
327 ,59.2329 ,1.28629 ,0.53828 ,5.28164 
328 ,59.4092 ,1.28809 ,0.52802 ,5.18090 
329 ,59.5852 ,1.28981 ,0.51091 ,5.01301 
330 ,59.7613 ,1.29157 ,0.49380 ,4.84512 
331 ,59.9372 ,1.29336 ,0.49380 ,4.84512 
332 ,60.1134 ,1.29513 ,0.47668 ,4.67723 
333 ,60.2895 ,1.29688 ,0.47326 ,4.64365 
334 ,60.4977 ,1.29887 ,0.43562 ,4.27429 
335 ,60.7055 ,1.30096 ,0.45273 ,4.44218 
336 ,60.8819 ,1.30281 ,0.40482 ,3.97208 
337 ,61.1056 ,1.30486 ,0.40482 ,3.97208 
338 ,61.2981 ,1.30683 ,0.37744 ,3.70346 
339 ,61.4900 ,1.30889 ,0.38086 ,3.73703 
340 ,61.6820 ,1.31075 ,0.35691 ,3.50199 
341 ,61.8580 ,1.31259 ,0.36033 ,3.53557 
342 ,62.0503 ,1.31445 ,0.33638 ,3.30052 
343 ,62.2262 ,1.31617 ,0.32611 ,3.19978 
344 ,62.4024 ,1.31798 ,0.30558 ,2.99831 
345 ,62.5785 ,1.31971 ,0.30215 ,2.96473 
346 ,62.7548 ,1.32155 ,0.30558 ,2.99831 
347 ,62.9627 ,1.32355 ,0.27478 ,2.69611 
348 ,63.1547 ,1.32552 ,0.27135 ,2.66253 
349 ,63.3309 ,1.32728 ,0.27820 ,2.72969 
350 ,63.5230 ,1.32917 ,0.23713 ,2.32675 
351 ,63.7151 ,1.33113 ,0.23029 ,2.25959 
352 ,63.8911 ,1.33289 ,0.22687 ,2.22601 
353 ,64.0832 ,1.33480 ,0.20633 ,2.02454 
354 ,64.2752 ,1.33667 ,0.20976 ,2.05812 
355 ,64.4353 ,1.33842 ,0.19607 ,1.92381 
356 ,64.6273 ,1.34019 ,0.16185 ,1.58802 
357 ,64.8035 ,1.34199 ,0.14816 ,1.45371 
358 ,65.0116 ,1.34397 ,0.15842 ,1.55445 
359 ,65.2036 ,1.34608 ,0.13447 ,1.31940 
360 ,65.4117 ,1.34790 ,0.12078 ,1.18508 
361 ,65.6037 ,1.35003 ,0.08314 ,0.81572 
362 ,65.7799 ,1.35177 ,0.08998 ,0.88288 
363 ,65.9720 ,1.35366 ,0.10025 ,0.98361 
364 ,66.1640 ,1.35554 ,0.07629 ,0.74857 
365 ,66.3399 ,1.35739 ,0.05576 ,0.54710 
366 ,66.5322 ,1.35929 ,0.05234 ,0.51352 
367 ,66.7402 ,1.36128 ,0.04207 ,0.41278 
368 ,66.9162 ,1.36309 ,0.03180 ,0.31205 
369 ,67.0924 ,1.36488 ,0.01811 ,0.17773 
370 ,67.2683 ,1.36665 ,0.02496 ,0.24489 
371 ,67.4605 ,1.36854 ,-0.01269 ,-0.12447 
372 ,67.6526 ,1.37039 ,-0.01269 ,-0.12447 
373 ,67.8449 ,1.37236 ,-0.02980 ,-0.29236 
374 ,68.0207 ,1.37417 ,-0.04691 ,-0.46025 
375 ,68.2128 ,1.37605 ,-0.03322 ,-0.32594 
376 ,68.3887 ,1.37784 ,-0.04691 ,-0.46025 
377 ,68.5649 ,1.37959 ,-0.07771 ,-0.76246 
378 ,68.7569 ,1.38150 ,-0.08113 ,-0.79604 
379 ,68.9331 ,1.38331 ,-0.08797 ,-0.86319 
380 ,69.1252 ,1.38522 ,-0.12219 ,-1.19898 
381 ,69.3173 ,1.38702 ,-0.11535 ,-1.13182 
382 ,69.5089 ,1.38904 ,-0.13246 ,-1.29971 
383 ,69.6854 ,1.39077 ,-0.15984 ,-1.56834 
384 ,69.8775 ,1.39274 ,-0.15299 ,-1.50118 
385 ,70.0855 ,1.39469 ,-0.18379 ,-1.80338 
386 ,70.2616 ,1.39654 ,-0.19064 ,-1.87054 
387 ,70.4376 ,1.39834 ,-0.19064 ,-1.87054 
388 ,70.6297 ,1.40020 ,-0.20433 ,-2.00485 
389 ,70.8057 ,1.40204 ,-0.21802 ,-2.13917 
390 ,70.9978 ,1.40387 ,-0.22828 ,-2.23990 
391 ,71.1739 ,1.40567 ,-0.22486 ,-2.20632 
392 ,71.3660 ,1.40755 ,-0.25908 ,-2.54211 
393 ,71.5581 ,1.40944 ,-0.26250 ,-2.57569 
394 ,71.7503 ,1.41142 ,-0.27619 ,-2.71000 
395 ,71.9423 ,1.41338 ,-0.29673 ,-2.91147 
396 ,72.1183 ,1.41513 ,-0.30357 ,-2.97863 
397 ,72.3105 ,1.41698 ,-0.32068 ,-3.14652 
398 ,72.4864 ,1.41884 ,-0.32752 ,-3.21367 
399 ,72.6782 ,1.42067 ,-0.34121 ,-3.34799 
400 ,72.8548 ,1.42247 ,-0.35148 ,-3.44872 
401 ,73.0306 ,1.42422 ,-0.34806 ,-3.41514 
402 ,73.2228 ,1.42609 ,-0.37544 ,-3.68377 
403 ,73.4147 ,1.42807 ,-0.37201 ,-3.65019 
404 ,73.6068 ,1.42999 ,-0.40623 ,-3.98597 
405 ,73.7829 ,1.43177 ,-0.41650 ,-4.08671 
406 ,73.9590 ,1.43349 ,-0.41308 ,-4.05313 
407 ,74.1351 ,1.43531 ,-0.42677 ,-4.18744 
408 ,74.3271 ,1.43719 ,-0.43703 ,-4.28818 
409 ,74.5032 ,1.43894 ,-0.46099 ,-4.52323 
410 ,74.6794 ,1.44074 ,-0.45072 ,-4.42249 
411 ,74.8713 ,1.44260 ,-0.47810 ,-4.69112 
412 ,75.0309 ,1.44434 ,-0.50890 ,-4.99332 
413 ,75.1909 ,1.44595 ,-0.50206 ,-4.92617 
414 ,75.3511 ,1.44753 ,-0.52601 ,-5.16121 
415 ,75.5437 ,1.44931 ,-0.52601 ,-5.16121 
416 ,75.7356 ,1.45136 ,-0.53970 ,-5.29553 
417 ,75.9118 ,1.45310 ,-0.54312 ,-5.32911 
418 ,76.0878 ,1.45482 ,-0.56023 ,-5.49700 
419 ,76.2798 ,1.45670 ,-0.58761 ,-5.76562 
420 ,76.4559 ,1.45846 ,-0.57734 ,-5.66489 
421 ,76.6319 ,1.46019 ,-0.59103 ,-5.79920 
422 ,76.8240 ,1.46205 ,-0.61156 ,-6.00067 
423 ,77.0002 ,1.46393 ,-0.61841 ,-6.06783 
424 ,77.1763 ,1.46572 ,-0.61499 ,-6.03425 
425 ,77.3680 ,1.46758 ,-0.63210 ,-6.20214 
426 ,77.5600 ,1.46948 ,-0.64921 ,-6.37003 
427 ,77.7364 ,1.47130 ,-0.64579 ,-6.33646 
428 ,77.9123 ,1.47308 ,-0.65263 ,-6.40361 
429 ,78.0723 ,1.47474 ,-0.67316 ,-6.60508 
430 ,78.2488 ,1.47636 ,-0.68343 ,-6.70582 
431 ,78.4408 ,1.47831 ,-0.70739 ,-6.94086 
432 ,78.6328 ,1.48024 ,-0.69370 ,-6.80655 
433 ,78.8089 ,1.48198 ,-0.72107 ,-7.07518 
434 ,78.9850 ,1.48375 ,-0.73476 ,-7.20949 
435 ,79.1608 ,1.48554 ,-0.74503 ,-7.31023 
436 ,79.3371 ,1.48723 ,-0.74503 ,-7.31023 
437 ,79.5133 ,1.48902 ,-0.75187 ,-7.37738 
438 ,79.7054 ,1.49095 ,-0.78267 ,-7.67959 
439 ,79.8974 ,1.49284 ,-0.78267 ,-7.67959 
440 ,80.0736 ,1.49465 ,-0.78267 ,-7.67959 
441 ,80.2656 ,1.49656 ,-0.81347 ,-7.98179 
442 ,80.4414 ,1.49834 ,-0.83058 ,-8.14968 
443 ,80.6337 ,1.50013 ,-0.81689 ,-8.01537 
444 ,80.8099 ,1.50200 ,-0.83058 ,-8.14968 
445 ,80.9857 ,1.50376 ,-0.84769 ,-8.31758 
446 ,81.1779 ,1.50567 ,-0.84085 ,-8.25042 
447 ,81.3701 ,1.50762 ,-0.85454 ,-8.38473 
448 ,81.5460 ,1.50939 ,-0.86138 ,-8.45189 
449 ,81.7222 ,1.51115 ,-0.89218 ,-8.75409 
450 ,81.8982 ,1.51291 ,-0.89903 ,-8.82125 
451 ,82.0740 ,1.51463 ,-0.88876 ,-8.72051 
452 ,82.2507 ,1.51640 ,-0.88876 ,-8.72051 
453 ,82.4423 ,1.51834 ,-0.91956 ,-9.02272 
454 ,82.6184 ,1.52004 ,-0.91272 ,-8.95556 
455 ,82.7946 ,1.52183 ,-0.91956 ,-9.02272 
456 ,82.9707 ,1.52358 ,-0.92983 ,-9.12345 
457 ,83.1466 ,1.52541 ,-0.96063 ,-9.42566 
458 ,83.3228 ,1.52711 ,-0.96747 ,-9.49282 
459 ,83.4825 ,1.52882 ,-0.96747 ,-9.49282 
460 ,83.6909 ,1.53062 ,-0.98800 ,-9.69429 
461 ,83.8671 ,1.53253 ,-0.98800 ,-9.69429 
462 ,84.0430 ,1.53433 ,-1.01196 ,-9.92933 
463 ,84.2031 ,1.53602 ,-0.99827 ,-9.79502 
