Point No.,Normal Force [N],Gap [mm],Time [s]
1,3.979205,12.1355,126.5330
2,3.979720,12.1355,126.5380
3,3.979949,12.1355,126.5430
4,3.979476,12.1355,126.5480
5,3.979038,12.1361,126.5530
6,3.978542,12.1361,126.5580
7,3.978186,12.1361,126.5630
8,3.975418,12.1361,126.5680
9,3.972926,12.1386,126.5720
10,3.969863,12.1386,126.5770
11,3.963536,12.1417,126.5820
12,3.953318,12.1417,126.5870
13,3.941253,12.1461,126.5920
14,3.928647,12.1461,126.5970
15,3.905195,12.1504,126.6020
16,3.882338,12.1504,126.6080
17,3.863040,12.1554,126.6130
18,3.838092,12.1554,126.6180
19,3.820360,12.1604,126.6230
20,3.791055,12.1604,126.6280
21,3.775642,12.1654,126.6330
22,3.745303,12.1653,126.6380
23,3.731186,12.1703,126.6430
24,3.703077,12.1703,126.6480
25,3.688670,12.1753,126.6530
26,3.664022,12.1753,126.6580
27,3.648520,12.1803,126.6630
28,3.623433,12.1803,126.6680
29,3.608563,12.1853,126.6730
30,3.593701,12.1852,126.6770
31,3.571677,12.1902,126.6820
32,3.553884,12.1902,126.6870
33,3.531523,12.1952,126.6920
34,3.516694,12.1952,126.6970
35,3.495619,12.2002,126.7020
36,3.480318,12.2002,126.7070
37,3.457564,12.2052,126.7120
38,3.444896,12.2052,126.7170
39,3.421838,12.2101,126.7220
40,3.406856,12.2101,126.7270
41,3.385663,12.2151,126.7320
42,3.371321,12.2151,126.7370
43,3.351756,12.2201,126.7420
44,3.335511,12.2201,126.7470
45,3.315319,12.2251,126.7520
46,3.302343,12.2251,126.7570
47,3.281730,12.2301,126.7620
48,3.267805,12.2301,126.7670
49,3.245841,12.2350,126.7720
50,3.233645,12.2350,126.7770
51,3.214520,12.2400,126.7820
52,3.200248,12.2400,126.7870
53,3.181225,12.2450,126.7920
54,3.167150,12.2450,126.7970
55,3.148333,12.2500,126.8020
56,3.134085,12.2500,126.8070
57,3.113991,12.2550,126.8120
58,3.101932,12.2550,126.8170
59,3.083269,12.2599,126.8220
60,3.070531,12.2599,126.8270
61,3.052467,12.2649,126.8320
62,3.041085,12.2649,126.8370
63,3.023259,12.2699,126.8420
64,3.009250,12.2699,126.8470
65,2.990746,12.2749,126.8520
66,2.979398,12.2749,126.8570
67,2.961305,12.2799,126.8620
68,2.948511,12.2799,126.8670
69,2.928927,12.2849,126.8720
70,2.917387,12.2848,126.8770
71,2.898466,12.2898,126.8820
72,2.886182,12.2898,126.8870
73,2.867403,12.2948,126.8920
74,2.856516,12.2948,126.8970
75,2.838878,12.2998,126.9020
76,2.826276,12.2998,126.9070
77,2.808525,12.3048,126.9120
78,2.798111,12.3048,126.9170
79,2.779809,12.3098,126.9220
80,2.768357,12.3098,126.9270
81,2.749923,12.3147,126.9320
82,2.739799,12.3147,126.9370
83,2.720978,12.3197,126.9420
84,2.708647,12.3197,126.9470
85,2.690849,12.3247,126.9520
86,2.680833,12.3247,126.9570
87,2.665084,12.3297,126.9620
88,2.653687,12.3297,126.9670
89,2.635497,12.3347,126.9720
90,2.626238,12.3347,126.9770
91,2.610036,12.3397,126.9820
92,2.599748,12.3397,126.9870
93,2.583741,12.3446,126.9920
94,2.574379,12.3446,126.9970
95,2.557807,12.3496,127.0020
96,2.546467,12.3496,127.0070
97,2.528688,12.3546,127.0120
98,2.519430,12.3546,127.0170
99,2.502806,12.3596,127.0220
100,2.491737,12.3596,127.0270
101,2.475324,12.3646,127.0320
102,2.466163,12.3646,127.0370
103,2.450521,12.3696,127.0420
104,2.440449,12.3696,127.0470
105,2.424457,12.3746,127.0520
106,2.416470,12.3746,127.0570
107,2.402670,12.3795,127.0620
108,2.392228,12.3795,127.0670
109,2.376629,12.3845,127.0720
110,2.367566,12.3845,127.0770
111,2.352201,12.3895,127.0820
112,2.341622,12.3895,127.0870
113,2.325279,12.3945,127.0920
114,2.317241,12.3945,127.0970
115,2.302712,12.3995,127.1020
116,2.292505,12.3995,127.1070
117,2.276867,12.4045,127.1120
118,2.268679,12.4045,127.1170
119,2.254997,12.4095,127.1220
120,2.246565,12.4095,127.1270
121,2.233809,12.4144,127.1320
122,2.227641,12.4144,127.1370
123,2.217428,12.4194,127.1420
124,2.209941,12.4194,127.1470
125,2.198382,12.4244,127.1520
126,2.192224,12.4244,127.1570
127,2.181034,12.4294,127.1620
128,2.174150,12.4294,127.1670
129,2.161511,12.4344,127.1720
130,2.155478,12.4344,127.1770
131,2.141912,12.4394,127.1820
132,2.133482,12.4394,127.1870
133,2.119523,12.4444,127.1920
134,2.112298,12.4444,127.1970
135,2.098294,12.4494,127.2020
136,2.089707,12.4494,127.2070
137,2.074459,12.4543,127.2120
138,2.068155,12.4543,127.2170
139,2.052738,12.4593,127.2220
140,2.043499,12.4593,127.2270
141,2.028492,12.4643,127.2320
142,2.021482,12.4643,127.2370
143,2.007211,12.4693,127.2420
144,1.998761,12.4693,127.2470
145,1.983853,12.4749,127.2520
146,1.978284,12.4749,127.2570
147,1.965153,12.4793,127.2620
148,1.956937,12.4793,127.2670
149,1.942469,12.4843,127.2720
150,1.935216,12.4843,127.2770
151,1.921730,12.4893,127.2820
152,1.914108,12.4893,127.2870
153,1.898579,12.4942,127.2920
154,1.892331,12.4942,127.2970
155,1.878859,12.4992,127.3020
156,1.871499,12.4992,127.3070
157,1.858275,12.5042,127.3120
158,1.851929,12.5042,127.3170
159,1.838803,12.5092,127.3220
160,1.830975,12.5092,127.3270
161,1.816044,12.5142,127.3320
162,1.809343,12.5142,127.3370
163,1.795464,12.5192,127.3420
164,1.787800,12.5192,127.3470
165,1.774305,12.5242,127.3520
166,1.767753,12.5242,127.3570
167,1.755946,12.5292,127.3620
168,1.749460,12.5292,127.3670
169,1.736119,12.5341,127.3720
170,1.730259,12.5341,127.3770
171,1.717260,12.5391,127.3820
172,1.709465,12.5391,127.3870
173,1.696530,12.5441,127.3920
174,1.691167,12.5441,127.3970
175,1.679752,12.5491,127.4020
176,1.672855,12.5491,127.4070
177,1.658335,12.5541,127.4120
178,1.652649,12.5541,127.4170
179,1.640444,12.5591,127.4220
180,1.633804,12.5591,127.4270
181,1.621258,12.5641,127.4320
182,1.615796,12.5641,127.4370
183,1.603961,12.5691,127.4420
184,1.596348,12.5691,127.4470
185,1.580416,12.5741,127.4520
186,1.575647,12.5741,127.4570
187,1.564372,12.5791,127.4620
188,1.557816,12.5790,127.4670
189,1.545055,12.5840,127.4720
190,1.540996,12.5840,127.4770
191,1.530222,12.5890,127.4820
192,1.523624,12.5890,127.4870
193,1.508258,12.5940,127.4920
194,1.502525,12.5940,127.4970
195,1.489867,12.5990,127.5020
196,1.483268,12.5990,127.5070
197,1.469881,12.6040,127.5120
198,1.464587,12.6040,127.5170
199,1.452359,12.6090,127.5220
200,1.446187,12.6090,127.5270
201,1.432560,12.6146,127.5320
202,1.427922,12.6146,127.5370
203,1.416240,12.6190,127.5420
204,1.409680,12.6190,127.5470
205,1.396053,12.6240,127.5520
206,1.391826,12.6239,127.5570
207,1.380229,12.6289,127.5620
208,1.374833,12.6289,127.5670
209,1.362044,12.6339,127.5720
210,1.357573,12.6339,127.5770
211,1.344859,12.6389,127.5820
212,1.338981,12.6389,127.5870
213,1.327122,12.6439,127.5920
214,1.323273,12.6439,127.5970
215,1.312518,12.6489,127.6020
216,1.306290,12.6489,127.6070
217,1.292892,12.6539,127.6120
218,1.289381,12.6539,127.6170
219,1.279060,12.6589,127.6220
220,1.273121,12.6589,127.6270
221,1.260729,12.6639,127.6320
222,1.255876,12.6639,127.6370
223,1.244770,12.6689,127.6420
224,1.239528,12.6689,127.6470
225,1.227089,12.6738,127.6520
226,1.223648,12.6738,127.6570
227,1.213411,12.6788,127.6620
228,1.208557,12.6788,127.6670
229,1.196147,12.6838,127.6720
230,1.192130,12.6838,127.6770
231,1.180851,12.6888,127.6820
232,1.175123,12.6888,127.6870
233,1.161885,12.6938,127.6920
234,1.158008,12.6938,127.6970
235,1.145705,12.6988,127.7020
236,1.140224,12.6988,127.7070
237,1.127613,12.7038,127.7120
238,1.124134,12.7038,127.7170
239,1.112874,12.7088,127.7220
240,1.107987,12.7088,127.7270
241,1.095226,12.7138,127.7320
242,1.091924,12.7138,127.7370
243,1.081249,12.7188,127.7420
244,1.075974,12.7188,127.7470
245,1.063297,12.7238,127.7520
246,1.059659,12.7237,127.7570
247,1.049217,12.7287,127.7620
248,1.044372,12.7287,127.7670
249,1.031475,12.7337,127.7720
250,1.027922,12.7337,127.7770
251,1.016311,12.7387,127.7820
252,1.011854,12.7387,127.7870
253,0.999345,12.7437,127.7920
254,0.995876,12.7437,127.7970
255,0.984405,12.7487,127.8020
256,0.978798,12.7487,127.8070
257,0.966018,12.7537,127.8120
258,0.962979,12.7537,127.8170
259,0.952420,12.7587,127.8220
260,0.947482,12.7587,127.8270
261,0.933355,12.7637,127.8320
262,0.929053,12.7637,127.8370
263,0.917807,12.7687,127.8420
264,0.912920,12.7687,127.8470
265,0.900098,12.7737,127.8520
266,0.897582,12.7737,127.8570
267,0.887089,12.7786,127.8620
268,0.882221,12.7786,127.8670
269,0.868908,12.7836,127.8720
270,0.864110,12.7836,127.8770
271,0.852934,12.7886,127.8820
272,0.848085,12.7886,127.8870
273,0.834968,12.7936,127.8920
274,0.831789,12.7936,127.8970
275,0.820949,12.7986,127.9020
276,0.816619,12.7986,127.9070
277,0.804260,12.8036,127.9120
278,0.800276,12.8036,127.9170
279,0.788632,12.8086,127.9220
280,0.784255,12.8086,127.9270
281,0.771242,12.8136,127.9320
282,0.767819,12.8136,127.9370
283,0.757461,12.8186,127.9420
284,0.753856,12.8186,127.9470
285,0.741833,12.8236,127.9520
286,0.738335,12.8236,127.9570
287,0.726317,12.8286,127.9620
288,0.721380,12.8286,127.9670
289,0.707959,12.8335,127.9720
290,0.704428,12.8335,127.9770
291,0.692233,12.8385,127.9820
292,0.687566,12.8385,127.9870
293,0.675422,12.8435,127.9920
294,0.672018,12.8435,127.9970
295,0.660117,12.8485,128.0020
296,0.655464,12.8485,128.0070
297,0.641987,12.8535,128.0120
298,0.639144,12.8535,128.0170
299,0.628034,12.8585,128.0220
300,0.624232,12.8585,128.0270
301,0.612668,12.8635,128.0320
302,0.609876,12.8635,128.0370
303,0.598920,12.8685,128.0420
304,0.593823,12.8685,128.0470
305,0.579514,12.8735,128.0520
306,0.576371,12.8735,128.0570
307,0.562969,12.8785,128.0620
308,0.558195,12.8785,128.0670
309,0.542843,12.8834,128.0720
310,0.538779,12.8834,128.0770
311,0.526313,12.8884,128.0820
312,0.521908,12.8884,128.0870
313,0.506701,12.8934,128.0920
314,0.502909,12.8934,128.0970
315,0.490124,12.8984,128.1020
316,0.485761,12.8984,128.1070
317,0.471882,12.9034,128.1120
318,0.467716,12.9034,128.1170
319,0.455805,12.9084,128.1220
320,0.451695,12.9084,128.1270
321,0.439219,12.9134,128.1320
322,0.436025,12.9134,128.1370
323,0.425967,12.9178,128.1420
324,0.422609,12.9178,128.1470
325,0.412514,12.9234,128.1520
326,0.410255,12.9234,128.1570
327,0.401557,12.9284,128.1620
328,0.397615,12.9284,128.1670
329,0.386996,12.9334,128.1720
330,0.384400,12.9334,128.1770
331,0.375099,12.9383,128.1820
332,0.371742,12.9383,128.1870
333,0.359649,12.9433,128.1920
334,0.356530,12.9433,128.1970
335,0.346622,12.9483,128.2020
336,0.343526,12.9483,128.2070
337,0.333004,12.9533,128.2120
338,0.330905,12.9533,128.2170
339,0.321108,12.9577,128.2220
340,0.317592,12.9577,128.2270
341,0.306425,12.9633,128.2320
342,0.304330,12.9633,128.2370
343,0.294637,12.9677,128.2420
344,0.292579,12.9677,128.2470
345,0.282193,12.9733,128.2520
346,0.279832,12.9733,128.2570
347,0.270507,12.9777,128.2620
348,0.267281,12.9777,128.2670
349,0.255810,12.9833,128.2720
350,0.252850,12.9833,128.2770
351,0.242647,12.9883,128.2820
352,0.238532,12.9883,128.2870
353,0.225340,12.9933,128.2920
354,0.223250,12.9933,128.2970
355,0.214608,12.9976,128.3020
356,0.212719,12.9976,128.3070
357,0.204765,13.0032,128.3120
358,0.202852,13.0032,128.3170
359,0.195399,13.0076,128.3220
360,0.191667,13.0076,128.3270
361,0.181057,13.0132,128.3320
362,0.179271,13.0132,128.3370
363,0.170694,13.0176,128.3420
364,0.168342,13.0176,128.3470
365,0.159439,13.0226,128.3520
366,0.158003,13.0226,128.3570
367,0.150802,13.0276,128.3620
368,0.148469,13.0276,128.3670
369,0.141590,13.0332,128.3720
370,0.140949,13.0332,128.3770
371,0.133804,13.0376,128.3820
372,0.131302,13.0376,128.3870
373,0.121740,13.0432,128.3920
374,0.120575,13.0432,128.3970
375,0.114809,13.0476,128.4020
376,0.113870,13.0476,128.4070
377,0.105153,13.0532,128.4120
378,0.103353,13.0532,128.4170
379,0.093449,13.0576,128.4220
380,0.087828,13.0575,128.4270
381,0.074192,13.0625,128.4320
382,0.072121,13.0625,128.4370
383,0.063423,13.0675,128.4420
384,0.062913,13.0675,128.4470
385,0.050638,13.0732,128.4520
386,0.045696,13.0732,128.4570
387,0.034852,13.0775,128.4620
388,0.029731,13.0775,128.4670
389,0.017166,13.0831,128.4720
390,0.017367,13.0831,128.4770
391,0.011092,13.0875,128.4820
392,0.007155,13.0875,128.4870
393,-0.004321,13.0931,128.4920
394,-0.006654,13.0931,128.4970
395,-0.014992,13.0975,128.5020
396,-0.017975,13.0975,128.5070
397,-0.029025,13.1025,128.5120
398,-0.030091,13.1025,128.5170
399,-0.037096,13.1075,128.5220
400,-0.039504,13.1075,128.5270
401,-0.048712,13.1131,128.5320
402,-0.050662,13.1131,128.5370
403,-0.059977,13.1175,128.5420
404,-0.062539,13.1175,128.5470
405,-0.073313,13.1225,128.5520
406,-0.074912,13.1225,128.5570
407,-0.083456,13.1275,128.5620
408,-0.085546,13.1274,128.5670
409,-0.095319,13.1331,128.5720
410,-0.096816,13.1331,128.5770
411,-0.105144,13.1374,128.5820
412,-0.107435,13.1374,128.5870
413,-0.117307,13.1424,128.5920
414,-0.118635,13.1424,128.5970
415,-0.127066,13.1474,128.6020
416,-0.131994,13.1474,128.6080
417,-0.139009,13.1530,128.6130
418,-0.142067,13.1530,128.6180
419,-0.148917,13.1574,128.6230
420,-0.154043,13.1574,128.6280
421,-0.161562,13.1624,128.6330
422,-0.165167,13.1624,128.6380
423,-0.171545,13.1674,128.6430
424,-0.177615,13.1674,128.6480
425,-0.185046,13.1730,128.6530
426,-0.186860,13.1730,128.6580
427,-0.191948,13.1774,128.6630
428,-0.195791,13.1774,128.6680
429,-0.202848,13.1824,128.6730
430,-0.206042,13.1824,128.6780
431,-0.212093,13.1874,128.6830
432,-0.216423,13.1874,128.6880
433,-0.223395,13.1930,128.6930
434,-0.225901,13.1930,128.6980
435,-0.231770,13.1974,128.7030
436,-0.235614,13.1974,128.7080
437,-0.242123,13.2024,128.7130
438,-0.245780,13.2024,128.7180
439,-0.252378,13.2074,128.7230
440,-0.257578,13.2073,128.7280
441,-0.265354,13.2130,128.7330
442,-0.268483,13.2130,128.7380
443,-0.274239,13.2173,128.7430
444,-0.277625,13.2173,128.7480
445,-0.283933,13.2223,128.7530
446,-0.286327,13.2223,128.7580
447,-0.291667,13.2273,128.7630
448,-0.294141,13.2273,128.7680
449,-0.300033,13.2329,128.7730
450,-0.301062,13.2329,128.7780
451,-0.306785,13.2373,128.7830
452,-0.309698,13.2373,128.7880
453,-0.316315,13.2423,128.7930
454,-0.318167,13.2423,128.7980
455,-0.323021,13.2473,128.8030
456,-0.325738,13.2473,128.8080
457,-0.332392,13.2529,128.8130
458,-0.334225,13.2529,128.8180
459,-0.339364,13.2573,128.8230
460,-0.342216,13.2573,128.8280
461,-0.349105,13.2623,128.8330
462,-0.350746,13.2623,128.8380
463,-0.355857,13.2673,128.8430
464,-0.359327,13.2673,128.8480
465,-0.366477,13.2729,128.8530
466,-0.369044,13.2729,128.8580
467,-0.374758,13.2773,128.8630
468,-0.377615,13.2773,128.8680
469,-0.383362,13.2823,128.8730
470,-0.384578,13.2823,128.8780
471,-0.389334,13.2873,128.8830
472,-0.393388,13.2873,128.8880
473,-0.400290,13.2929,128.8930
474,-0.401080,13.2929,128.8980
475,-0.405906,13.2973,128.9030
476,-0.407641,13.2973,128.9080
477,-0.412654,13.3023,128.9130
478,-0.412322,13.3023,128.9180
479,-0.416100,13.3073,128.9230
480,-0.417975,13.3073,128.9280
481,-0.424218,13.3129,128.9330
482,-0.425485,13.3129,128.9380
483,-0.430320,13.3172,128.9430
484,-0.433163,13.3172,128.9480
485,-0.439397,13.3222,128.9530
486,-0.440608,13.3222,128.9580
487,-0.444667,13.3272,128.9630
488,-0.446790,13.3272,128.9680
489,-0.453093,13.3329,128.9730
490,-0.454122,13.3329,128.9780
491,-0.458391,13.3372,128.9830
492,-0.460865,13.3372,128.9880
493,-0.466743,13.3422,128.9930
494,-0.467940,13.3422,128.9980
495,-0.473117,13.3472,129.0030
496,-0.475623,13.3472,129.0080
497,-0.481758,13.3528,129.0130
498,-0.482881,13.3528,129.0180
499,-0.488604,13.3572,129.0230
500,-0.492574,13.3572,129.0280
501,-0.498920,13.3572,129.0330
502,-0.499818,13.3622,129.0380
503,-0.505448,13.3622,129.0430
504,-0.508950,13.3672,129.0480
505,-0.515600,13.3728,129.0530
506,-0.517288,13.3728,129.0580
507,-0.521777,13.3772,129.0630
508,-0.523820,13.3772,129.0680
509,-0.529123,13.3822,129.0730
510,-0.528875,13.3822,129.0780
511,-0.532775,13.3872,129.0830
512,-0.534202,13.3872,129.0880
513,-0.539570,13.3928,129.0930
514,-0.540019,13.3928,129.0980
515,-0.544798,13.3972,129.1030
516,-0.546869,13.3972,129.1080
517,-0.552775,13.4022,129.1130
518,-0.554024,13.4022,129.1180
519,-0.558635,13.4072,129.1230
520,-0.561136,13.4072,129.1280
521,-0.566921,13.4072,129.1330
522,-0.567767,13.4128,129.1380
523,-0.572364,13.4128,129.1430
524,-0.573860,13.4172,129.1480
525,-0.580309,13.4222,129.1530
526,-0.581552,13.4222,129.1580
527,-0.586159,13.4272,129.1630
528,-0.589147,13.4272,129.1680
529,-0.595057,13.4328,129.1730
530,-0.595834,13.4328,129.1780
531,-0.599654,13.4371,129.1830
532,-0.598779,13.4371,129.1880
533,-0.603428,13.4421,129.1930
534,-0.603058,13.4421,129.1980
535,-0.607061,13.4471,129.2030
536,-0.607842,13.4471,129.2080
537,-0.612565,13.4528,129.2130
538,-0.612766,13.4528,129.2180
539,-0.616684,13.4528,129.2230
540,-0.617040,13.4571,129.2280
541,-0.621567,13.4571,129.2330
542,-0.620033,13.4628,129.2380
543,-0.623175,13.4628,129.2430
544,-0.623035,13.4671,129.2480
545,-0.628179,13.4728,129.2530
546,-0.628815,13.4728,129.2580
547,-0.633407,13.4771,129.2630
548,-0.634702,13.4771,129.2680
549,-0.639327,13.4821,129.2730
550,-0.639177,13.4821,129.2780
551,-0.643110,13.4871,129.2830
552,-0.645317,13.4871,129.2880
553,-0.650966,13.4927,129.2930
554,-0.650751,13.4927,129.2980
555,-0.654795,13.4971,129.3030
556,-0.656572,13.4971,129.3080
557,-0.662301,13.4971,129.3130
558,-0.662745,13.5027,129.3180
559,-0.666687,13.5027,129.3230
560,-0.669030,13.5077,129.3280
561,-0.674052,13.5077,129.3330
562,-0.673000,13.5127,129.3380
563,-0.675745,13.5127,129.3430
564,-0.674660,13.5171,129.3480
565,-0.678354,13.5227,129.3530
566,-0.675557,13.5227,129.3580
567,-0.678274,13.5271,129.3630
568,-0.677970,13.5271,129.3680
569,-0.681992,13.5327,129.3730
570,-0.681206,13.5327,129.3780
571,-0.683905,13.5371,129.3830
572,-0.683582,13.5371,129.3880
573,-0.688123,13.5427,129.3930
574,-0.687505,13.5427,129.3980
575,-0.691574,13.5471,129.4030
576,-0.692944,13.5471,129.4080
577,-0.698256,13.5471,129.4130
578,-0.698074,13.5527,129.4180
579,-0.701412,13.5527,129.4230
580,-0.702324,13.5571,129.4280
581,-0.707515,13.5571,129.4330
582,-0.707290,13.5627,129.4380
583,-0.711307,13.5627,129.4430
584,-0.713089,13.5671,129.4480
585,-0.718985,13.5727,129.4530
586,-0.719009,13.5727,129.4580
587,-0.721735,13.5771,129.4630
588,-0.721258,13.5771,129.4680
589,-0.725345,13.5827,129.4730
590,-0.724293,13.5827,129.4780
591,-0.727332,13.5871,129.4830
592,-0.727711,13.5871,129.4880
593,-0.732518,13.5927,129.4930
594,-0.733425,13.5927,129.4980
595,-0.737437,13.5927,129.5030
596,-0.739032,13.5971,129.5080
597,-0.745130,13.5971,129.5130
598,-0.746556,13.6027,129.5180
599,-0.750367,13.6027,129.5230
600,-0.751452,13.6077,129.5280
601,-0.755965,13.6077,129.5330
602,-0.754777,13.6127,129.5380
603,-0.756909,13.6127,129.5430
604,-0.756727,13.6171,129.5480
605,-0.761945,13.6171,129.5530
606,-0.762591,13.6227,129.5580
607,-0.765985,13.6227,129.5630
608,-0.766495,13.6270,129.5680
609,-0.770891,13.6270,129.5730
610,-0.771167,13.6327,129.5780
611,-0.774117,13.6327,129.5830
612,-0.774805,13.6370,129.5880
613,-0.779659,13.6370,129.5930
614,-0.779654,13.6427,129.5980
615,-0.783011,13.6427,129.6030
616,-0.783446,13.6470,129.6080
617,-0.787856,13.6470,129.6130
618,-0.787772,13.6527,129.6180
619,-0.790339,13.6527,129.6230
620,-0.791199,13.6577,129.6280
621,-0.796049,13.6577,129.6330
622,-0.795469,13.6627,129.6380
623,-0.798663,13.6627,129.6430
624,-0.798826,13.6670,129.6480
625,-0.803091,13.6670,129.6530
626,-0.802338,13.6727,129.6580
627,-0.804606,13.6727,129.6630
628,-0.804367,13.6770,129.6680
629,-0.808464,13.6770,129.6730
630,-0.806285,13.6826,129.6780
631,-0.806977,13.6826,129.6830
632,-0.804868,13.6870,129.6880
633,-0.808165,13.6870,129.6930
634,-0.807150,13.6926,129.6980
635,-0.810091,13.6926,129.7030
636,-0.811330,13.6976,129.7080
637,-0.816114,13.6976,129.7130
638,-0.816834,13.7026,129.7180
639,-0.820276,13.7026,129.7230
