Point No.,Normal Force [N],Gap [mm],Time [s]
1,6.528787,11.6114,554.0540
2,6.529193,11.6114,554.0590
3,6.529960,11.6114,554.0640
4,6.529900,11.6114,554.0690
5,6.529109,11.6114,554.0740
6,6.527229,11.6120,554.0790
7,6.524466,11.6120,554.0840
8,6.522857,11.6126,554.0891
9,6.519500,11.6126,554.0930
10,6.513402,11.6138,554.0980
11,6.504653,11.6138,554.1030
12,6.481412,11.6176,554.1080
13,6.462451,11.6176,554.1130
14,6.427033,11.6219,554.1180
15,6.394632,11.6219,554.1230
16,6.349962,11.6269,554.1290
17,6.292551,11.6268,554.1340
18,6.257844,11.6324,554.1390
19,6.196764,11.6324,554.1440
20,6.161257,11.6368,554.1490
21,6.102778,11.6367,554.1541
22,6.067590,11.6417,554.1590
23,6.010727,11.6417,554.1640
24,5.977246,11.6467,554.1690
25,5.919781,11.6466,554.1740
26,5.887281,11.6516,554.1790
27,5.832346,11.6516,554.1840
28,5.802979,11.6565,554.1890
29,5.753197,11.6565,554.1940
30,5.724073,11.6615,554.1980
31,5.690325,11.6615,554.2030
32,5.646945,11.6665,554.2080
33,5.613865,11.6664,554.2130
34,5.570723,11.6720,554.2180
35,5.537354,11.6720,554.2230
36,5.494492,11.6764,554.2280
37,5.460361,11.6763,554.2330
38,5.417680,11.6813,554.2380
39,5.383905,11.6813,554.2430
40,5.341684,11.6863,554.2480
41,5.309348,11.6863,554.2531
42,5.268263,11.6912,554.2581
43,5.235726,11.6912,554.2630
44,5.194380,11.6962,554.2680
45,5.162038,11.6962,554.2730
46,5.122853,11.7011,554.2780
47,5.092622,11.7011,554.2830
48,5.054107,11.7061,554.2880
49,5.022507,11.7061,554.2930
50,4.983905,11.7111,554.2980
51,4.951897,11.7110,554.3030
52,4.912696,11.7160,554.3080
53,4.882254,11.7160,554.3130
54,4.845144,11.7210,554.3181
55,4.815521,11.7210,554.3230
56,4.778326,11.7259,554.3280
57,4.748529,11.7259,554.3330
58,4.712116,11.7309,554.3380
59,4.682932,11.7309,554.3430
60,4.646650,11.7359,554.3480
61,4.616750,11.7358,554.3530
62,4.578897,11.7408,554.3580
63,4.549272,11.7408,554.3630
64,4.513112,11.7452,554.3680
65,4.484845,11.7451,554.3730
66,4.448647,11.7508,554.3781
67,4.419706,11.7507,554.3831
68,4.383774,11.7557,554.3880
69,4.354679,11.7557,554.3930
70,4.318902,11.7607,554.3980
71,4.290596,11.7607,554.4030
72,4.256409,11.7656,554.4080
73,4.229175,11.7656,554.4130
74,4.195520,11.7706,554.4180
75,4.167149,11.7706,554.4230
76,4.131981,11.7756,554.4280
77,4.104364,11.7755,554.4330
78,4.070681,11.7799,554.4380
79,4.045167,11.7799,554.4431
80,4.013276,11.7849,554.4480
81,3.990096,11.7849,554.4530
82,3.961600,11.7898,554.4580
83,3.937816,11.7898,554.4630
84,3.909938,11.7954,554.4680
85,3.885855,11.7954,554.4730
86,3.855413,11.7998,554.4780
87,3.829114,11.7998,554.4830
88,3.796605,11.8047,554.4880
89,3.770914,11.8047,554.4930
90,3.739939,11.8103,554.4980
91,3.714389,11.8103,554.5031
92,3.682988,11.8153,554.5081
93,3.656339,11.8153,554.5130
94,3.623358,11.8203,554.5180
95,3.597083,11.8202,554.5230
96,3.566879,11.8246,554.5280
97,3.542441,11.8246,554.5330
98,3.511578,11.8296,554.5380
99,3.485462,11.8296,554.5430
100,3.454824,11.8345,554.5480
101,3.429572,11.8345,554.5530
102,3.398915,11.8395,554.5580
103,3.373397,11.8395,554.5630
104,3.343423,11.8445,554.5681
105,3.317788,11.8445,554.5730
106,3.287113,11.8494,554.5780
107,3.262067,11.8494,554.5830
108,3.232392,11.8550,554.5880
109,3.208141,11.8550,554.5930
110,3.178602,11.8600,554.5980
111,3.153584,11.8600,554.6030
112,3.123863,11.8643,554.6080
113,3.099560,11.8643,554.6130
114,3.070615,11.8693,554.6180
115,3.046688,11.8693,554.6230
116,3.018925,11.8743,554.6281
117,2.994927,11.8743,554.6331
118,2.964620,11.8792,554.6380
119,2.939364,11.8792,554.6430
120,2.909904,11.8842,554.6480
121,2.887042,11.8842,554.6530
122,2.860019,11.8892,554.6580
123,2.836105,11.8892,554.6630
124,2.806874,11.8942,554.6680
125,2.782465,11.8941,554.6730
126,2.753234,11.8991,554.6780
127,2.728871,11.8991,554.6830
128,2.700356,11.9041,554.6880
129,2.676797,11.9041,554.6931
130,2.648221,11.9091,554.6980
131,2.623535,11.9090,554.7030
132,2.595016,11.9140,554.7080
133,2.572364,11.9140,554.7130
134,2.545322,11.9190,554.7180
135,2.522628,11.9190,554.7230
136,2.495516,11.9240,554.7280
137,2.472364,11.9240,554.7330
138,2.443806,11.9289,554.7380
139,2.419585,11.9289,554.7430
140,2.391499,11.9339,554.7480
141,2.368263,11.9339,554.7531
142,2.341043,11.9389,554.7581
143,2.318934,11.9389,554.7630
144,2.291163,11.9439,554.7680
145,2.269815,11.9438,554.7730
146,2.245340,11.9495,554.7780
147,2.226383,11.9494,554.7830
148,2.205041,11.9544,554.7880
149,2.185677,11.9544,554.7930
150,2.161843,11.9588,554.7980
151,2.140809,11.9588,554.8030
152,2.115862,11.9637,554.8080
153,2.095081,11.9637,554.8130
154,2.069324,11.9687,554.8181
155,2.045981,11.9687,554.8230
156,2.018644,11.9737,554.8280
157,1.995390,11.9737,554.8330
158,1.967005,11.9787,554.8380
159,1.943746,11.9786,554.8430
160,1.917363,11.9836,554.8480
161,1.895567,11.9836,554.8530
162,1.869951,11.9886,554.8580
163,1.846813,11.9886,554.8630
164,1.819060,11.9942,554.8680
165,1.796558,11.9942,554.8730
166,1.769362,11.9985,554.8781
167,1.746621,11.9985,554.8831
168,1.719074,12.0035,554.8880
169,1.696900,12.0035,554.8930
170,1.670980,12.0085,554.8980
171,1.649086,12.0085,554.9030
172,1.623166,12.0135,554.9080
173,1.601080,12.0134,554.9130
174,1.573617,12.0184,554.9180
175,1.550587,12.0184,554.9230
176,1.524695,12.0234,554.9280
177,1.504204,12.0234,554.9330
178,1.479602,12.0284,554.9380
179,1.460140,12.0284,554.9431
180,1.436250,12.0333,554.9480
181,1.414856,12.0333,554.9530
182,1.389693,12.0383,554.9580
183,1.368230,12.0383,554.9630
184,1.342235,12.0433,554.9680
185,1.320828,12.0433,554.9730
186,1.295151,12.0483,554.9780
187,1.272813,12.0483,554.9830
188,1.247571,12.0532,554.9880
189,1.226977,12.0532,554.9930
190,1.202530,12.0582,554.9980
191,1.181936,12.0582,555.0031
192,1.158078,12.0632,555.0081
193,1.138204,12.0632,555.0130
194,1.113949,12.0682,555.0180
195,1.092939,12.0681,555.0230
196,1.068109,12.0731,555.0280
197,1.048403,12.0731,555.0330
198,1.024560,12.0781,555.0380
199,1.004405,12.0781,555.0430
200,0.979565,12.0831,555.0480
201,0.959013,12.0831,555.0530
202,0.934160,12.0881,555.0580
203,0.914435,12.0880,555.0630
204,0.890428,12.0930,555.0681
205,0.871298,12.0930,555.0730
206,0.848239,12.0980,555.0780
207,0.829006,12.0980,555.0830
208,0.806551,12.1030,555.0880
209,0.787973,12.1030,555.0930
210,0.764279,12.1080,555.0980
211,0.745144,12.1079,555.1030
212,0.721777,12.1129,555.1080
213,0.702371,12.1129,555.1130
214,0.678929,12.1179,555.1180
215,0.660080,12.1179,555.1230
216,0.638377,12.1229,555.1281
217,0.620772,12.1229,555.1331
218,0.598312,12.1279,555.1380
219,0.578770,12.1278,555.1430
220,0.555618,12.1335,555.1480
221,0.534267,12.1334,555.1530
222,0.508674,12.1378,555.1580
223,0.489165,12.1378,555.1630
224,0.466444,12.1428,555.1680
225,0.448515,12.1428,555.1730
226,0.425597,12.1478,555.1780
227,0.408141,12.1477,555.1830
228,0.387828,12.1527,555.1880
229,0.371059,12.1527,555.1931
230,0.350676,12.1577,555.1980
231,0.332808,12.1577,555.2030
232,0.315244,12.1627,555.2080
233,0.300533,12.1627,555.2130
234,0.282198,12.1677,555.2180
235,0.266846,12.1677,555.2230
236,0.248408,12.1726,555.2280
237,0.233444,12.1726,555.2330
238,0.213580,12.1776,555.2380
239,0.197540,12.1776,555.2430
240,0.178326,12.1826,555.2480
241,0.163624,12.1826,555.2531
242,0.145373,12.1882,555.2581
243,0.130390,12.1882,555.2630
244,0.112429,12.1926,555.2680
245,0.097437,12.1926,555.2730
246,0.078106,12.1975,555.2780
247,0.061842,12.1975,555.2830
248,0.043049,12.2025,555.2880
249,0.029310,12.2025,555.2930
250,0.011976,12.2075,555.2980
251,-0.003180,12.2075,555.3030
252,-0.021941,12.2125,555.3080
253,-0.036296,12.2125,555.3130
254,-0.054421,12.2175,555.3181
255,-0.068847,12.2175,555.3230
256,-0.086837,12.2218,555.3280
257,-0.101464,12.2218,555.3330
258,-0.119682,12.2274,555.3380
259,-0.134375,12.2274,555.3430
260,-0.152803,12.2330,555.3480
261,-0.166261,12.2330,555.3530
262,-0.184723,12.2374,555.3580
263,-0.199448,12.2374,555.3630
264,-0.217947,12.2424,555.3680
265,-0.232069,12.2424,555.3730
266,-0.250222,12.2474,555.3781
267,-0.264059,12.2473,555.3831
268,-0.280874,12.2523,555.3880
269,-0.294697,12.2523,555.3930
270,-0.313079,12.2573,555.3980
271,-0.327753,12.2573,555.4030
272,-0.345350,12.2623,555.4080
273,-0.358616,12.2623,555.4130
274,-0.375085,12.2673,555.4180
275,-0.388441,12.2673,555.4230
276,-0.406014,12.2723,555.4280
277,-0.419069,12.2723,555.4330
278,-0.436095,12.2772,555.4380
279,-0.449282,12.2772,555.4431
280,-0.464863,12.2822,555.4480
281,-0.477391,12.2822,555.4530
282,-0.493916,12.2872,555.4580
283,-0.507875,12.2872,555.4630
284,-0.525261,12.2922,555.4680
285,-0.537447,12.2922,555.4730
286,-0.553757,12.2972,555.4780
287,-0.566762,12.2972,555.4830
288,-0.583082,12.3022,555.4880
289,-0.595268,12.3021,555.4930
290,-0.611527,12.3071,555.4980
291,-0.624555,12.3071,555.5031
292,-0.641571,12.3121,555.5081
293,-0.654117,12.3121,555.5130
294,-0.670419,12.3171,555.5180
295,-0.683255,12.3171,555.5230
296,-0.699397,12.3221,555.5280
297,-0.712088,12.3221,555.5330
298,-0.728614,12.3271,555.5380
299,-0.741005,12.3271,555.5430
300,-0.757330,12.3321,555.5480
301,-0.768829,12.3320,555.5530
302,-0.785195,12.3370,555.5580
303,-0.797858,12.3370,555.5630
304,-0.813234,12.3420,555.5681
305,-0.825004,12.3420,555.5730
306,-0.840519,12.3470,555.5780
307,-0.852574,12.3470,555.5830
308,-0.868347,12.3520,555.5880
309,-0.879481,12.3520,555.5930
310,-0.895740,12.3570,555.5980
311,-0.908291,12.3570,555.6030
312,-0.923708,12.3620,555.6080
313,-0.934763,12.3619,555.6130
314,-0.949343,12.3669,555.6180
315,-0.960963,12.3669,555.6230
316,-0.976605,12.3725,555.6281
317,-0.987814,12.3725,555.6331
318,-1.004255,12.3769,555.6380
319,-1.016039,12.3769,555.6430
320,-1.031709,12.3819,555.6480
321,-1.042483,12.3819,555.6530
322,-1.057433,12.3869,555.6580
323,-1.068375,12.3869,555.6630
324,-1.082871,12.3919,555.6680
325,-1.092088,12.3919,555.6730
326,-1.105808,12.3968,555.6780
327,-1.116428,12.3968,555.6830
328,-1.130535,12.4012,555.6880
329,-1.140225,12.4012,555.6931
330,-1.153337,12.4068,555.6980
331,-1.162006,12.4068,555.7030
332,-1.173397,12.4068,555.7080
333,-1.180837,12.4118,555.7130
334,-1.192261,12.4118,555.7180
335,-1.200860,12.4168,555.7230
336,-1.212495,12.4218,555.7280
337,-1.220547,12.4218,555.7330
338,-1.231667,12.4268,555.7380
339,-1.239902,12.4268,555.7430
340,-1.250970,12.4318,555.7480
341,-1.258457,12.4318,555.7531
342,-1.271134,12.4368,555.7581
343,-1.281272,12.4367,555.7630
344,-1.294637,12.4411,555.7680
345,-1.303460,12.4411,555.7730
346,-1.316591,12.4461,555.7780
347,-1.326014,12.4461,555.7830
348,-1.339509,12.4517,555.7880
349,-1.348225,12.4517,555.7930
350,-1.361894,12.4561,555.7980
351,-1.371270,12.4561,555.8030
352,-1.383989,12.4561,555.8080
353,-1.392083,12.4611,555.8130
354,-1.404115,12.4610,555.8181
355,-1.412794,12.4667,555.8230
356,-1.424054,12.4717,555.8280
357,-1.430414,12.4717,555.8330
358,-1.441847,12.4766,555.8380
359,-1.450222,12.4766,555.8430
360,-1.462670,12.4810,555.8480
361,-1.470797,12.4810,555.8530
362,-1.483171,12.4860,555.8580
363,-1.492037,12.4860,555.8630
364,-1.505481,12.4916,555.8680
365,-1.513009,12.4916,555.8730
366,-1.524971,12.4960,555.8781
367,-1.533795,12.4960,555.8831
368,-1.546603,12.5010,555.8880
369,-1.554047,12.5010,555.8930
370,-1.565537,12.5010,555.8980
371,-1.574160,12.5059,555.9030
372,-1.586472,12.5059,555.9080
373,-1.592715,12.5116,555.9130
374,-1.603811,12.5116,555.9180
375,-1.611429,12.5165,555.9230
376,-1.622764,12.5215,555.9280
377,-1.629287,12.5215,555.9330
378,-1.639752,12.5259,555.9380
379,-1.647445,12.5259,555.9431
380,-1.657751,12.5315,555.9480
381,-1.662993,12.5315,555.9530
382,-1.670910,12.5359,555.9580
383,-1.675834,12.5359,555.9630
384,-1.683086,12.5409,555.9680
385,-1.687108,12.5409,555.9730
386,-1.695665,12.5459,555.9780
387,-1.702291,12.5459,555.9830
388,-1.712846,12.5459,555.9880
389,-1.718064,12.5509,555.9930
390,-1.728347,12.5509,555.9980
391,-1.735043,12.5565,556.0031
392,-1.746159,12.5565,556.0081
393,-1.752106,12.5615,556.0130
394,-1.760510,12.5615,556.0180
395,-1.764709,12.5665,556.0230
396,-1.771555,12.5715,556.0280
397,-1.773627,12.5715,556.0330
398,-1.779046,12.5758,556.0380
399,-1.782245,12.5758,556.0430
400,-1.789025,12.5808,556.0480
401,-1.792462,12.5808,556.0530
402,-1.801094,12.5858,556.0580
403,-1.806884,12.5858,556.0630
404,-1.817770,12.5908,556.0681
405,-1.823133,12.5908,556.0730
406,-1.833875,12.5958,556.0780
407,-1.840356,12.5958,556.0830
408,-1.851358,12.5958,556.0880
409,-1.857208,12.6008,556.0930
410,-1.868235,12.6008,556.0980
411,-1.875291,12.6064,556.1030
412,-1.887281,12.6064,556.1080
413,-1.892752,12.6114,556.1130
414,-1.903933,12.6114,556.1180
415,-1.909979,12.6157,556.1230
416,-1.920178,12.6207,556.1290
417,-1.930568,12.6207,556.1340
418,-1.935796,12.6257,556.1390
419,-1.947061,12.6257,556.1440
420,-1.951784,12.6307,556.1490
421,-1.960426,12.6307,556.1541
422,-1.965439,12.6357,556.1590
423,-1.977213,12.6357,556.1640
424,-1.983096,12.6407,556.1690
425,-1.993421,12.6407,556.1740
426,-1.998794,12.6407,556.1790
427,-2.009942,12.6457,556.1840
428,-2.016615,12.6457,556.1890
429,-2.027870,12.6513,556.1940
430,-2.033678,12.6513,556.1990
431,-2.044368,12.6563,556.2040
432,-2.049820,12.6563,556.2090
433,-2.059729,12.6607,556.2141
434,-2.065481,12.6607,556.2191
435,-2.077798,12.6656,556.2240
436,-2.084106,12.6706,556.2290
437,-2.094366,12.6706,556.2340
438,-2.099345,12.6756,556.2390
439,-2.110045,12.6756,556.2440
440,-2.115656,12.6806,556.2490
441,-2.126285,12.6806,556.2540
442,-2.132107,12.6806,556.2590
443,-2.143470,12.6856,556.2640
444,-2.148590,12.6856,556.2690
445,-2.156419,12.6906,556.2740
446,-2.160893,12.6906,556.2791
447,-2.167861,12.6962,556.2840
448,-2.169642,12.6962,556.2890
449,-2.173884,12.7006,556.2940
450,-2.176979,12.7006,556.2990
451,-2.185219,12.7056,556.3040
452,-2.190372,12.7056,556.3090
453,-2.198649,12.7106,556.3140
454,-2.204175,12.7106,556.3190
455,-2.215015,12.7156,556.3240
456,-2.221076,12.7156,556.3290
457,-2.230082,12.7206,556.3340
458,-2.235152,12.7206,556.3391
459,-2.245153,12.7256,556.3441
460,-2.250877,12.7255,556.3490
461,-2.259958,12.7305,556.3540
462,-2.265410,12.7305,556.3590
463,-2.274347,12.7355,556.3640
464,-2.278919,12.7355,556.3690
465,-2.288216,12.7405,556.3740
466,-2.295329,12.7405,556.3790
467,-2.307519,12.7455,556.3840
468,-2.313706,12.7455,556.3890
469,-2.321431,12.7505,556.3940
470,-2.326486,12.7505,556.3990
471,-2.335988,12.7555,556.4041
472,-2.341739,12.7555,556.4090
473,-2.350985,12.7605,556.4140
474,-2.357194,12.7605,556.4190
475,-2.367043,12.7655,556.4240
476,-2.372490,12.7655,556.4290
477,-2.379729,12.7705,556.4340
478,-2.384817,12.7705,556.4390
479,-2.391919,12.7755,556.4440
480,-2.392958,12.7755,556.4490
481,-2.394202,12.7798,556.4540
482,-2.396231,12.7798,556.4590
483,-2.402740,12.7855,556.4641
484,-2.407421,12.7855,556.4691
485,-2.414267,12.7911,556.4740
486,-2.419266,12.7911,556.4790
487,-2.427539,12.7954,556.4840
488,-2.432902,12.7954,556.4890
489,-2.441123,12.8004,556.4940
490,-2.446912,12.8004,556.4990
491,-2.457138,12.8054,556.5040
492,-2.463441,12.8054,556.5090
493,-2.470302,12.8104,556.5140
494,-2.474917,12.8104,556.5190
495,-2.483190,12.8154,556.5240
496,-2.489030,12.8154,556.5291
497,-2.497442,12.8204,556.5340
498,-2.503503,12.8204,556.5390
499,-2.512986,12.8254,556.5440
500,-2.518850,12.8254,556.5490
501,-2.525172,12.8304,556.5540
502,-2.531101,12.8304,556.5590
503,-2.541600,12.8348,556.5640
504,-2.547908,12.8347,556.5690
505,-2.555544,12.8397,556.5740
506,-2.560617,12.8397,556.5790
507,-2.568394,12.8447,556.5840
508,-2.573902,12.8447,556.5891
509,-2.581034,12.8504,556.5941
510,-2.586556,12.8503,556.5990
511,-2.595899,12.8553,556.6040
512,-2.601693,12.8553,556.6090
513,-2.608511,12.8603,556.6140
514,-2.614024,12.8603,556.6190
515,-2.623475,12.8647,556.6240
516,-2.629895,12.8647,556.6290
517,-2.636661,12.8697,556.6340
518,-2.642184,12.8697,556.6390
519,-2.650166,12.8747,556.6440
520,-2.656090,12.8747,556.6490
521,-2.663044,12.8797,556.6541
522,-2.668455,12.8797,556.6590
523,-2.676676,12.8847,556.6640
524,-2.682871,12.8847,556.6690
525,-2.688469,12.8897,556.6740
526,-2.692892,12.8897,556.6790
527,-2.700038,12.8947,556.6840
528,-2.705719,12.8947,556.6890
529,-2.712504,12.9003,556.6940
530,-2.717536,12.9003,556.6990
531,-2.719393,12.9053,556.7040
532,-2.715235,12.9053,556.7090
533,-2.702965,12.9103,556.7141
534,-2.699439,12.9103,556.7191
535,-2.698467,12.9147,556.7240
536,-2.701473,12.9147,556.7290
537,-2.706159,12.9197,556.7340
538,-2.710952,12.9197,556.7390
539,-2.717283,12.9246,556.7440
540,-2.722904,12.9246,556.7490
541,-2.728389,12.9296,556.7540
542,-2.733178,12.9296,556.7590
543,-2.735937,12.9346,556.7640
544,-2.736404,12.9346,556.7690
545,-2.734566,12.9396,556.7740
546,-2.735937,12.9396,556.7791
547,-2.738597,12.9453,556.7840
548,-2.743222,12.9453,556.7890
549,-2.747052,12.9503,556.7940
550,-2.748497,12.9503,556.7990
551,-2.747459,12.9546,556.8040
552,-2.748960,12.9546,556.8090
553,-2.751433,12.9596,556.8140
554,-2.755800,12.9596,556.8190
555,-2.762343,12.9646,556.8240
556,-2.768623,12.9646,556.8290
557,-2.773028,12.9696,556.8340
558,-2.777985,12.9696,556.8391
559,-2.784312,12.9746,556.8441
560,-2.790250,12.9746,556.8490
561,-2.796783,12.9796,556.8540
562,-2.803396,12.9796,556.8590
563,-2.810924,12.9846,556.8640
564,-2.816722,12.9846,556.8690
565,-2.819902,12.9902,556.8740
566,-2.824784,12.9902,556.8790
567,-2.830489,12.9952,556.8840
568,-2.836385,12.9952,556.8890
569,-2.842614,12.9996,556.8940
570,-2.848539,12.9996,556.8990
571,-2.854730,13.0046,556.9041
572,-2.860954,13.0046,556.9090
573,-2.865317,13.0096,556.9140
574,-2.871120,13.0096,556.9190
575,-2.877700,13.0146,556.9240
576,-2.883886,13.0145,556.9290
577,-2.889025,13.0195,556.9340
578,-2.895062,13.0195,556.9390
579,-2.902259,13.0245,556.9440
580,-2.909259,13.0245,556.9490
581,-2.913721,13.0295,556.9540
582,-2.919144,13.0295,556.9590
583,-2.925027,13.0345,556.9641
584,-2.931186,13.0345,556.9691
585,-2.937199,13.0395,556.9740
586,-2.943704,13.0395,556.9790
587,-2.949437,13.0445,556.9840
588,-2.954221,13.0445,556.9890
589,-2.955777,13.0495,556.9940
590,-2.960781,13.0495,556.9990
591,-2.963129,13.0545,557.0040
592,-2.964162,13.0545,557.0090
593,-2.961118,13.0595,557.0140
594,-2.963044,13.0595,557.0190
595,-2.964681,13.0645,557.0240
596,-2.969007,13.0645,557.0291
597,-2.970597,13.0695,557.0340
598,-2.975998,13.0695,557.0390
599,-2.981768,13.0745,557.0440
600,-2.987833,13.0745,557.0490
601,-2.991691,13.0795,557.0540
602,-2.997227,13.0795,557.0590
603,-3.002839,13.0845,557.0640
604,-3.009647,13.0845,557.0690
605,-3.013912,13.0895,557.0740
606,-3.020103,13.0895,557.0790
607,-3.025883,13.0945,557.0840
608,-3.031709,13.0945,557.0891
609,-3.035595,13.0995,557.0941
610,-3.042044,13.0995,557.0990
611,-3.048829,13.1045,557.1040
612,-3.056002,13.1044,557.1090
613,-3.056082,13.1094,557.1140
614,-3.055095,13.1094,557.1190
615,-3.048703,13.1145,557.1240
616,-3.050512,13.1145,557.1290
617,-3.051022,13.1195,557.1340
618,-3.056091,13.1194,557.1390
619,-3.059416,13.1244,557.1440
620,-3.064274,13.1244,557.1490
621,-3.062539,13.1301,557.1541
622,-3.063082,13.1301,557.1590
623,-3.060220,13.1344,557.1640
624,-3.062825,13.1344,557.1690
625,-3.062927,13.1394,557.1740
626,-3.067201,13.1394,557.1790
627,-3.069086,13.1444,557.1840
628,-3.074557,13.1444,557.1890
629,-3.077054,13.1494,557.1940
630,-3.083895,13.1494,557.1990
631,-3.089558,13.1544,557.2040
632,-3.096592,13.1544,557.2090
633,-3.100674,13.1594,557.2141
634,-3.106785,13.1594,557.2191
635,-3.110592,13.1644,557.2240
636,-3.117022,13.1644,557.2290
637,-3.119023,13.1694,557.2340
638,-3.124644,13.1694,557.2390
639,-3.127510,13.1744,557.2440
640,-3.133215,13.1744,557.2490
641,-3.135544,13.1794,557.2540
642,-3.141333,13.1794,557.2590
643,-3.144606,13.1844,557.2640
644,-3.146781,13.1844,557.2690
645,-3.137213,13.1894,557.2740
646,-3.131766,13.1894,557.2791
647,-3.119953,13.1944,557.2840
648,-3.119949,13.1944,557.2890
649,-3.114337,13.1994,557.2940
650,-3.112462,13.1994,557.2990
651,-3.104022,13.2044,557.3040
652,-3.104284,13.2044,557.3090
653,-3.099542,13.2094,557.3140
654,-3.103166,13.2094,557.3190
655,-3.105266,13.2144,557.3240
