Point No.,Normal Force [N],Gap [mm],Time [s]
1,6.482643,11.6138,808.5930
2,6.482572,11.6138,808.5980
3,6.482465,11.6138,808.6030
4,6.482536,11.6138,808.6080
5,6.482942,11.6138,808.6130
6,6.483129,11.6138,808.6180
7,6.483494,11.6138,808.6230
8,6.483222,11.6138,808.6281
9,6.482760,11.6145,808.6320
10,6.479500,11.6145,808.6370
11,6.472584,11.6169,808.6420
12,6.456091,11.6169,808.6470
13,6.439650,11.6194,808.6520
14,6.407272,11.6194,808.6570
15,6.381917,11.6238,808.6620
16,6.339378,11.6237,808.6680
17,6.286973,11.6281,808.6730
18,6.251307,11.6281,808.6780
19,6.191308,11.6337,808.6830
20,6.154150,11.6336,808.6880
21,6.096671,11.6380,808.6931
22,6.059466,11.6380,808.6981
23,6.004649,11.6435,808.7031
24,5.967964,11.6435,808.7081
25,5.915917,11.6479,808.7130
26,5.879977,11.6478,808.7180
27,5.828245,11.6534,808.7230
28,5.796731,11.6534,808.7280
29,5.749685,11.6578,808.7330
30,5.719075,11.6577,808.7371
31,5.687118,11.6634,808.7421
32,5.644446,11.6633,808.7470
33,5.612528,11.6677,808.7520
34,5.568076,11.6677,808.7570
35,5.535318,11.6733,808.7620
36,5.489007,11.6732,808.7670
37,5.455576,11.6776,808.7720
38,5.410737,11.6776,808.7770
39,5.378939,11.6832,808.7820
40,5.338435,11.6831,808.7870
41,5.308248,11.6875,808.7921
42,5.267141,11.6875,808.7971
43,5.235015,11.6931,808.8021
44,5.192935,11.6931,808.8071
45,5.161684,11.6974,808.8120
46,5.121352,11.6974,808.8170
47,5.091425,11.7030,808.8220
48,5.050970,11.7030,808.8270
49,5.020141,11.7073,808.8320
50,4.979949,11.7073,808.8370
51,4.949049,11.7129,808.8420
52,4.911508,11.7129,808.8470
53,4.882633,11.7173,808.8521
54,4.844948,11.7172,808.8571
55,4.815815,11.7222,808.8621
56,4.778569,11.7222,808.8671
57,4.750489,11.7272,808.8720
58,4.713023,11.7272,808.8770
59,4.684387,11.7328,808.8820
60,4.647263,11.7327,808.8870
61,4.618350,11.7371,808.8920
62,4.580647,11.7371,808.8970
63,4.551826,11.7421,808.9020
64,4.514776,11.7420,808.9070
65,4.485995,11.7470,808.9120
66,4.448155,11.7470,808.9171
67,4.419331,11.7526,808.9221
68,4.383362,11.7526,808.9271
69,4.356040,11.7569,808.9321
70,4.321908,11.7569,808.9370
71,4.295034,11.7619,808.9420
72,4.260646,11.7619,808.9470
73,4.233506,11.7669,808.9520
74,4.197924,11.7669,808.9570
75,4.170600,11.7725,808.9620
76,4.136675,11.7724,808.9670
77,4.109741,11.7768,808.9720
78,4.075512,11.7768,808.9771
79,4.049619,11.7818,808.9821
80,4.018579,11.7817,808.9871
81,3.996274,11.7867,808.9921
82,3.968076,11.7867,808.9970
83,3.945448,11.7923,809.0020
84,3.916577,11.7923,809.0070
85,3.892121,11.7967,809.0120
86,3.860617,11.7967,809.0170
87,3.836474,11.8016,809.0220
88,3.806318,11.8016,809.0270
89,3.781609,11.8066,809.0320
90,3.748749,11.8066,809.0370
91,3.721441,11.8122,809.0421
92,3.690218,11.8122,809.0471
93,3.665215,11.8165,809.0521
94,3.633650,11.8165,809.0571
95,3.607548,11.8215,809.0620
96,3.576058,11.8215,809.0670
97,3.552687,11.8265,809.0720
98,3.523713,11.8265,809.0770
99,3.498827,11.8321,809.0820
100,3.466285,11.8320,809.0870
101,3.438995,11.8364,809.0920
102,3.406674,11.8364,809.0970
103,3.382680,11.8414,809.1021
104,3.355366,11.8414,809.1071
105,3.332378,11.8463,809.1121
106,3.302128,11.8463,809.1171
107,3.275876,11.8519,809.1220
108,3.243619,11.8519,809.1270
109,3.218592,11.8563,809.1320
110,3.189385,11.8563,809.1370
111,3.165925,11.8612,809.1420
112,3.137475,11.8612,809.1470
113,3.113271,11.8662,809.1520
114,3.082221,11.8662,809.1570
115,3.056554,11.8718,809.1620
116,3.028852,11.8718,809.1671
117,3.006196,11.8761,809.1721
118,2.978036,11.8761,809.1771
119,2.953739,11.8811,809.1821
120,2.923250,11.8811,809.1870
121,2.898307,11.8861,809.1920
122,2.869413,11.8861,809.1970
123,2.846682,11.8917,809.2020
124,2.821178,11.8917,809.2070
125,2.797546,11.8960,809.2120
126,2.766837,11.8960,809.2170
127,2.741211,11.9010,809.2220
128,2.712219,11.9010,809.2271
129,2.690171,11.9060,809.2321
130,2.664129,11.9059,809.2371
131,2.641169,11.9116,809.2421
132,2.612009,11.9115,809.2470
133,2.586664,11.9159,809.2520
134,2.559425,11.9159,809.2570
135,2.538261,11.9209,809.2620
136,2.513224,11.9209,809.2670
137,2.490293,11.9258,809.2720
138,2.461202,11.9258,809.2770
139,2.436399,11.9314,809.2820
140,2.408904,11.9314,809.2870
141,2.386631,11.9358,809.2921
142,2.360832,11.9358,809.2971
143,2.337779,11.9408,809.3021
144,2.310073,11.9407,809.3071
145,2.288183,11.9457,809.3120
146,2.262390,11.9457,809.3170
147,2.242666,11.9513,809.3220
148,2.220838,11.9513,809.3270
149,2.201562,11.9557,809.3320
150,2.177882,11.9557,809.3370
151,2.156797,11.9606,809.3420
152,2.133626,11.9606,809.3470
153,2.113023,11.9656,809.3521
154,2.088983,11.9656,809.3571
155,2.066537,11.9706,809.3621
156,2.039505,11.9706,809.3671
157,2.015211,11.9756,809.3720
158,1.987421,11.9755,809.3770
159,1.965088,11.9805,809.3820
160,1.940613,11.9805,809.3870
161,1.919364,11.9855,809.3920
162,1.893458,11.9855,809.3970
163,1.868941,11.9905,809.4020
164,1.840491,11.9905,809.4070
165,1.817288,11.9954,809.4120
166,1.792256,11.9954,809.4171
167,1.770362,12.0004,809.4221
168,1.744709,12.0004,809.4271
169,1.721188,12.0054,809.4321
170,1.694248,12.0054,809.4370
171,1.671508,12.0104,809.4420
172,1.648141,12.0103,809.4470
173,1.626589,12.0153,809.4520
174,1.601814,12.0153,809.4570
175,1.579748,12.0203,809.4620
176,1.553210,12.0203,809.4670
177,1.530199,12.0253,809.4720
178,1.504770,12.0253,809.4771
179,1.483750,12.0309,809.4821
180,1.462708,12.0309,809.4871
181,1.440454,12.0352,809.4921
182,1.412485,12.0352,809.4970
183,1.388614,12.0402,809.5020
184,1.363891,12.0402,809.5070
185,1.342698,12.0452,809.5120
186,1.318307,12.0452,809.5170
187,1.296418,12.0501,809.5220
188,1.271719,12.0501,809.5270
189,1.250479,12.0551,809.5320
190,1.227276,12.0551,809.5370
191,1.206757,12.0601,809.5421
192,1.184302,12.0601,809.5471
193,1.163269,12.0651,809.5521
194,1.138831,12.0650,809.5571
195,1.116928,12.0700,809.5620
196,1.093785,12.0700,809.5670
197,1.072939,12.0750,809.5720
198,1.050180,12.0750,809.5770
199,1.029044,12.0800,809.5820
200,1.005855,12.0800,809.5870
201,0.984512,12.0850,809.5920
202,0.962221,12.0849,809.5970
203,0.942001,12.0899,809.6021
204,0.920360,12.0899,809.6071
205,0.899874,12.0949,809.6121
206,0.876932,12.0949,809.6171
207,0.856339,12.0999,809.6220
208,0.834094,12.0999,809.6270
209,0.813926,12.1049,809.6320
210,0.791901,12.1048,809.6370
211,0.771424,12.1098,809.6420
212,0.750059,12.1098,809.6470
213,0.729264,12.1148,809.6520
214,0.706631,12.1148,809.6570
215,0.686463,12.1198,809.6620
216,0.664508,12.1198,809.6671
217,0.644297,12.1248,809.6721
218,0.622544,12.1247,809.6771
219,0.602633,12.1304,809.6821
220,0.581810,12.1303,809.6870
221,0.561716,12.1347,809.6920
222,0.538433,12.1347,809.6970
223,0.516806,12.1397,809.7020
224,0.493234,12.1397,809.7070
225,0.472186,12.1447,809.7120
226,0.450110,12.1446,809.7170
227,0.432902,12.1503,809.7220
228,0.413888,12.1502,809.7271
229,0.396236,12.1546,809.7321
230,0.377003,12.1546,809.7371
231,0.358275,12.1596,809.7421
232,0.339285,12.1596,809.7470
233,0.321978,12.1646,809.7520
234,0.305654,12.1646,809.7570
235,0.289016,12.1702,809.7620
236,0.272822,12.1702,809.7670
237,0.256900,12.1745,809.7720
238,0.238840,12.1745,809.7770
239,0.221679,12.1795,809.7820
240,0.204269,12.1795,809.7870
241,0.187575,12.1845,809.7921
242,0.169624,12.1845,809.7971
243,0.152499,12.1901,809.8021
244,0.135880,12.1901,809.8071
245,0.118999,12.1944,809.8120
246,0.101735,12.1944,809.8170
247,0.085490,12.1994,809.8220
248,0.068791,12.1994,809.8270
249,0.052672,12.2044,809.8320
250,0.035656,12.2044,809.8370
251,0.018934,12.2100,809.8420
252,0.001613,12.2100,809.8470
253,-0.014622,12.2144,809.8521
254,-0.031718,12.2144,809.8571
255,-0.048080,12.2193,809.8621
256,-0.064283,12.2193,809.8671
257,-0.080238,12.2243,809.8720
258,-0.097007,12.2243,809.8770
259,-0.113159,12.2299,809.8820
260,-0.128557,12.2299,809.8870
261,-0.144162,12.2343,809.8920
262,-0.160776,12.2343,809.8970
263,-0.177227,12.2393,809.9020
264,-0.193697,12.2393,809.9070
265,-0.208969,12.2443,809.9120
266,-0.224573,12.2442,809.9171
267,-0.240659,12.2499,809.9221
268,-0.257031,12.2498,809.9271
269,-0.273290,12.2542,809.9321
270,-0.290601,12.2542,809.9370
271,-0.307150,12.2592,809.9420
272,-0.323503,12.2592,809.9470
273,-0.338859,12.2642,809.9520
274,-0.354024,12.2642,809.9570
275,-0.369689,12.2698,809.9620
276,-0.385705,12.2698,809.9670
277,-0.400669,12.2741,809.9720
278,-0.415801,12.2741,809.9771
279,-0.430779,12.2791,809.9821
280,-0.445869,12.2791,809.9871
281,-0.460697,12.2841,809.9921
282,-0.476016,12.2841,809.9970
283,-0.491214,12.2897,810.0020
284,-0.505565,12.2897,810.0070
285,-0.520533,12.2941,810.0120
286,-0.535338,12.2941,810.0170
287,-0.550377,12.2990,810.0220
288,-0.565536,12.2990,810.0270
289,-0.579925,12.3040,810.0320
290,-0.595006,12.3040,810.0370
291,-0.610157,12.3096,810.0421
292,-0.624363,12.3096,810.0471
293,-0.639037,12.3140,810.0521
294,-0.654557,12.3140,810.0571
295,-0.669212,12.3190,810.0620
296,-0.682712,12.3190,810.0670
297,-0.696769,12.3240,810.0720
298,-0.711368,12.3240,810.0770
299,-0.726215,12.3296,810.0820
300,-0.741038,12.3296,810.0870
301,-0.755328,12.3339,810.0920
302,-0.769638,12.3339,810.0970
303,-0.783559,12.3389,810.1021
304,-0.795908,12.3389,810.1071
305,-0.809282,12.3439,810.1121
306,-0.823479,12.3439,810.1171
307,-0.837980,12.3495,810.1220
308,-0.851204,12.3495,810.1270
309,-0.864311,12.3539,810.1320
310,-0.877087,12.3539,810.1370
311,-0.890564,12.3589,810.1420
312,-0.904181,12.3588,810.1470
313,-0.918008,12.3638,810.1520
314,-0.930844,12.3638,810.1570
315,-0.943914,12.3694,810.1620
316,-0.955525,12.3694,810.1671
317,-0.967739,12.3738,810.1721
318,-0.980398,12.3738,810.1771
319,-0.993449,12.3788,810.1821
320,-1.004919,12.3788,810.1870
321,-1.017419,12.3838,810.1920
322,-1.029727,12.3838,810.1970
323,-1.042768,12.3894,810.2020
324,-1.054347,12.3894,810.2070
325,-1.066762,12.3937,810.2120
326,-1.079210,12.3937,810.2170
327,-1.092598,12.3987,810.2220
328,-1.104447,12.3987,810.2271
329,-1.115600,12.4037,810.2321
330,-1.126804,12.4037,810.2371
331,-1.139355,12.4093,810.2421
332,-1.150339,12.4093,810.2470
333,-1.159878,12.4137,810.2520
334,-1.168674,12.4137,810.2570
335,-1.177910,12.4187,810.2620
336,-1.186851,12.4187,810.2670
337,-1.196554,12.4237,810.2720
338,-1.206318,12.4237,810.2770
339,-1.216507,12.4293,810.2820
340,-1.225448,12.4293,810.2870
341,-1.235160,12.4336,810.2921
342,-1.244480,12.4336,810.2971
343,-1.255502,12.4386,810.3021
344,-1.265027,12.4386,810.3071
345,-1.275829,12.4436,810.3120
346,-1.285915,12.4436,810.3170
347,-1.297180,12.4492,810.3220
348,-1.307557,12.4492,810.3270
349,-1.318270,12.4536,810.3320
350,-1.328974,12.4536,810.3370
351,-1.340865,12.4592,810.3420
352,-1.351171,12.4592,810.3470
353,-1.361291,12.4636,810.3521
354,-1.369834,12.4636,810.3571
355,-1.380744,12.4692,810.3621
356,-1.390732,12.4692,810.3671
357,-1.401188,12.4735,810.3720
358,-1.410302,12.4735,810.3770
359,-1.420164,12.4792,810.3820
360,-1.427515,12.4792,810.3870
361,-1.435763,12.4835,810.3920
362,-1.442254,12.4835,810.3970
363,-1.451078,12.4891,810.4020
364,-1.458415,12.4891,810.4070
365,-1.467660,12.4935,810.4120
366,-1.476179,12.4935,810.4171
367,-1.485953,12.4991,810.4221
368,-1.494295,12.4991,810.4271
369,-1.503334,12.5035,810.4321
370,-1.511447,12.5035,810.4370
371,-1.521819,12.5091,810.4420
372,-1.530610,12.5091,810.4470
373,-1.540211,12.5135,810.4520
374,-1.549918,12.5135,810.4570
375,-1.560734,12.5191,810.4620
376,-1.570372,12.5191,810.4670
377,-1.579968,12.5234,810.4720
378,-1.588506,12.5234,810.4771
379,-1.598153,12.5291,810.4821
380,-1.606018,12.5291,810.4871
381,-1.614852,12.5334,810.4921
382,-1.622483,12.5334,810.4970
383,-1.630811,12.5390,810.5020
384,-1.636909,12.5390,810.5070
385,-1.644859,12.5434,810.5120
386,-1.652046,12.5434,810.5170
387,-1.660234,12.5490,810.5220
388,-1.665092,12.5490,810.5270
389,-1.672860,12.5534,810.5320
390,-1.680996,12.5534,810.5370
391,-1.691270,12.5590,810.5421
392,-1.700664,12.5590,810.5471
393,-1.710597,12.5634,810.5521
394,-1.720379,12.5634,810.5571
395,-1.730896,12.5690,810.5620
396,-1.740187,12.5690,810.5670
397,-1.749151,12.5733,810.5720
398,-1.756947,12.5733,810.5770
399,-1.765728,12.5790,810.5820
400,-1.772846,12.5790,810.5870
401,-1.779953,12.5833,810.5920
402,-1.785532,12.5833,810.5970
403,-1.793678,12.5889,810.6021
404,-1.801403,12.5889,810.6071
405,-1.810003,12.5933,810.6121
406,-1.818513,12.5933,810.6171
407,-1.828684,12.5989,810.6220
408,-1.838307,12.5989,810.6270
409,-1.847463,12.6033,810.6320
410,-1.856423,12.6033,810.6370
411,-1.866247,12.6089,810.6420
412,-1.874169,12.6089,810.6470
413,-1.881581,12.6133,810.6520
414,-1.889871,12.6133,810.6570
415,-1.898817,12.6183,810.6620
416,-1.905602,12.6183,810.6680
417,-1.917755,12.6232,810.6730
418,-1.920968,12.6232,810.6780
419,-1.934539,12.6289,810.6830
420,-1.937643,12.6289,810.6880
421,-1.949310,12.6332,810.6931
422,-1.952846,12.6332,810.6981
423,-1.966398,12.6388,810.7031
424,-1.970288,12.6388,810.7081
425,-1.983713,12.6432,810.7130
426,-1.988160,12.6432,810.7180
427,-2.002740,12.6488,810.7230
428,-2.006532,12.6488,810.7280
429,-2.019476,12.6532,810.7330
430,-2.022913,12.6532,810.7380
431,-2.036241,12.6582,810.7430
432,-2.039013,12.6582,810.7480
433,-2.048366,12.6632,810.7531
434,-2.048750,12.6632,810.7581
435,-2.056189,12.6688,810.7631
436,-2.055960,12.6688,810.7681
437,-2.064882,12.6732,810.7730
438,-2.067501,12.6732,810.7780
439,-2.080042,12.6781,810.7830
440,-2.082955,12.6781,810.7880
441,-2.093435,12.6831,810.7930
442,-2.096129,12.6831,810.7980
443,-2.108595,12.6888,810.8030
444,-2.111546,12.6888,810.8080
445,-2.123222,12.6931,810.8130
446,-2.126248,12.6931,810.8181
447,-2.136539,12.6981,810.8231
448,-2.135904,12.6981,810.8281
449,-2.141557,12.7031,810.8331
450,-2.142109,12.7031,810.8380
451,-2.151251,12.7087,810.8430
452,-2.153009,12.7087,810.8480
453,-2.163423,12.7131,810.8530
454,-2.164980,12.7131,810.8580
455,-2.174075,12.7181,810.8630
456,-2.174220,12.7181,810.8680
457,-2.182231,12.7231,810.8730
458,-2.183844,12.7231,810.8781
459,-2.194510,12.7287,810.8831
460,-2.196366,12.7287,810.8881
461,-2.207641,12.7331,810.8931
462,-2.211471,12.7331,810.8980
463,-2.225415,12.7381,810.9030
464,-2.228446,12.7381,810.9080
465,-2.239481,12.7431,810.9130
466,-2.243105,12.7431,810.9180
467,-2.256138,12.7487,810.9230
468,-2.258775,12.7487,810.9280
469,-2.268623,12.7530,810.9330
470,-2.271330,12.7530,810.9380
471,-2.283124,12.7580,810.9431
472,-2.286262,12.7580,810.9481
473,-2.298757,12.7630,810.9531
474,-2.302993,12.7630,810.9581
475,-2.316573,12.7686,810.9630
476,-2.319612,12.7686,810.9680
477,-2.329899,12.7730,810.9730
478,-2.331803,12.7730,810.9780
479,-2.343133,12.7780,810.9830
480,-2.346640,12.7780,810.9880
481,-2.358214,12.7830,810.9930
482,-2.361945,12.7830,810.9980
483,-2.374080,12.7886,811.0031
484,-2.377012,12.7886,811.0081
485,-2.388379,12.7930,811.0131
486,-2.391382,12.7930,811.0181
487,-2.403778,12.7980,811.0230
488,-2.406636,12.7980,811.0280
489,-2.416784,12.8029,811.0330
490,-2.420192,12.8029,811.0380
491,-2.431345,12.8079,811.0430
492,-2.434248,12.8079,811.0480
493,-2.444415,12.8129,811.0530
494,-2.446967,12.8129,811.0580
495,-2.458134,12.8179,811.0630
496,-2.460411,12.8179,811.0681
497,-2.471247,12.8229,811.0731
498,-2.475095,12.8229,811.0781
499,-2.487178,12.8285,811.0831
500,-2.490578,12.8285,811.0880
501,-2.500585,12.8329,811.0930
502,-2.503217,12.8329,811.0980
503,-2.514880,12.8379,811.1030
504,-2.517666,12.8379,811.1080
505,-2.528183,12.8429,811.1130
506,-2.531695,12.8429,811.1180
507,-2.542567,12.8479,811.1230
508,-2.545238,12.8479,811.1281
509,-2.554862,12.8529,811.1331
510,-2.557952,12.8529,811.1381
511,-2.570026,12.8579,811.1431
512,-2.572953,12.8579,811.1480
513,-2.582142,12.8622,811.1530
514,-2.584513,12.8622,811.1580
515,-2.595858,12.8678,811.1630
516,-2.599107,12.8678,811.1680
517,-2.608745,12.8728,811.1730
518,-2.611256,12.8728,811.1780
519,-2.621557,12.8778,811.1830
520,-2.624274,12.8778,811.1880
521,-2.634263,12.8822,811.1931
522,-2.638415,12.8822,811.1981
523,-2.649783,12.8878,811.2031
524,-2.652252,12.8878,811.2081
525,-2.659973,12.8928,811.2130
526,-2.661796,12.8928,811.2180
527,-2.672228,12.8978,811.2230
528,-2.675217,12.8978,811.2280
529,-2.685022,12.9022,811.2330
530,-2.686238,12.9022,811.2380
531,-2.688848,12.9078,811.2430
532,-2.686238,12.9078,811.2480
533,-2.689811,12.9128,811.2531
534,-2.690723,12.9128,811.2581
535,-2.696769,12.9178,811.2631
536,-2.694225,12.9178,811.2681
537,-2.692701,12.9222,811.2730
538,-2.690419,12.9222,811.2780
539,-2.697232,12.9278,811.2830
540,-2.697821,12.9278,811.2880
541,-2.701754,12.9328,811.2930
542,-2.699313,12.9328,811.2980
543,-2.700056,12.9378,811.3030
544,-2.697522,12.9378,811.3080
545,-2.697746,12.9422,811.3130
546,-2.694983,12.9422,811.3181
547,-2.697685,12.9478,811.3231
548,-2.697007,12.9478,811.3281
549,-2.700823,12.9528,811.3331
550,-2.702104,12.9528,811.3380
551,-2.712299,12.9578,811.3430
552,-2.716316,12.9578,811.3480
553,-2.725897,12.9628,811.3530
554,-2.727875,12.9628,811.3580
555,-2.735895,12.9678,811.3630
556,-2.737985,12.9678,811.3680
557,-2.746715,12.9728,811.3730
558,-2.750690,12.9728,811.3781
559,-2.761319,12.9777,811.3831
560,-2.764400,12.9777,811.3881
561,-2.772009,12.9821,811.3931
562,-2.773809,12.9821,811.3980
563,-2.783844,12.9877,811.4030
564,-2.787697,12.9877,811.4080
565,-2.795689,12.9927,811.4130
566,-2.798218,12.9927,811.4180
567,-2.805860,12.9977,811.4230
568,-2.808702,12.9977,811.4280
569,-2.817246,13.0021,811.4330
570,-2.820472,13.0021,811.4380
571,-2.830764,13.0077,811.4431
572,-2.833556,13.0077,811.4481
573,-2.840089,13.0127,811.4531
574,-2.842558,13.0127,811.4581
575,-2.851929,13.0177,811.4630
576,-2.855001,13.0177,811.4680
577,-2.863386,13.0221,811.4730
578,-2.866851,13.0221,811.4780
579,-2.877152,13.0277,811.4830
580,-2.880215,13.0277,811.4880
581,-2.887342,13.0320,811.4930
582,-2.890185,13.0320,811.4980
583,-2.899827,13.0377,811.5031
584,-2.903554,13.0377,811.5081
585,-2.910980,13.0420,811.5131
586,-2.912944,13.0420,811.5181
587,-2.920842,13.0476,811.5230
588,-2.922418,13.0476,811.5280
589,-2.926912,13.0520,811.5330
590,-2.928782,13.0520,811.5380
591,-2.935156,13.0576,811.5430
592,-2.933065,13.0576,811.5480
593,-2.930358,13.0620,811.5530
594,-2.928067,13.0620,811.5580
595,-2.931728,13.0676,811.5630
596,-2.933398,13.0676,811.5681
597,-2.939004,13.0726,811.5731
598,-2.941847,13.0726,811.5781
599,-2.951069,13.0776,811.5831
600,-2.954169,13.0776,811.5880
601,-2.961375,13.0820,811.5930
602,-2.964896,13.0820,811.5980
603,-2.974085,13.0876,811.6030
604,-2.976124,13.0876,811.6080
605,-2.975722,13.0926,811.6130
606,-2.972233,13.0926,811.6180
607,-2.973089,13.0976,811.6230
608,-2.972766,13.0976,811.6281
609,-2.975941,13.1020,811.6331
610,-2.977545,13.1020,811.6381
611,-2.985373,13.1076,811.6431
612,-2.988675,13.1076,811.6480
613,-2.994786,13.1126,811.6530
614,-2.997050,13.1126,811.6580
615,-3.006042,13.1176,811.6630
616,-3.009928,13.1176,811.6680
617,-3.017246,13.1220,811.6730
618,-3.020453,13.1220,811.6780
619,-3.028071,13.1276,811.6830
620,-3.031060,13.1276,811.6880
621,-3.036867,13.1326,811.6931
622,-3.039664,13.1326,811.6981
623,-3.047075,13.1376,811.7031
624,-3.049409,13.1376,811.7081
625,-3.054497,13.1419,811.7130
626,-3.056877,13.1419,811.7180
627,-3.062451,13.1476,811.7230
628,-3.064695,13.1476,811.7280
629,-3.066804,13.1526,811.7330
630,-3.064789,13.1526,811.7380
631,-3.063680,13.1576,811.7430
632,-3.062090,13.1576,811.7480
633,-3.063807,13.1619,811.7531
634,-3.064821,13.1619,811.7581
635,-3.069848,13.1676,811.7631
636,-3.072518,13.1676,811.7681
637,-3.076156,13.1726,811.7730
638,-3.077606,13.1726,811.7780
639,-3.081141,13.1776,811.7830
640,-3.078616,13.1776,811.7880
641,-3.071990,13.1819,811.7930
642,-3.065303,13.1819,811.7980
643,-3.060005,13.1876,811.8030
644,-3.057040,13.1876,811.8080
645,-3.048932,13.1926,811.8130
646,-3.042979,13.1926,811.8181
647,-3.040636,13.1976,811.8231
648,-3.040243,13.1976,811.8281
649,-3.042951,13.2026,811.8331
650,-3.044793,13.2026,811.8380
651,-3.050457,13.2076,811.8430
652,-3.052588,13.2076,811.8480
653,-3.054197,13.2126,811.8530
654,-3.051541,13.2126,811.8580
655,-3.038500,13.2176,811.8630
