Point No.,Normal Force [N],Gap [mm],Time [s]
1,4.003470,12.0980,818.3810
2,4.003409,12.0980,818.3860
3,4.003213,12.0980,818.3911
4,4.003040,12.0980,818.3961
5,4.002792,12.0980,818.4011
6,4.002792,12.0980,818.4061
7,4.002404,12.0986,818.4110
8,4.000206,12.0986,818.4160
9,3.997428,12.1005,818.4200
10,3.992303,12.1005,818.4250
11,3.987604,12.1024,818.4301
12,3.979224,12.1023,818.4351
13,3.972373,12.1048,818.4401
14,3.961492,12.1048,818.4451
15,3.955474,12.1067,818.4500
16,3.942680,12.1067,818.4561
17,3.931737,12.1079,818.4611
18,3.922437,12.1079,818.4661
19,3.908956,12.1111,818.4711
20,3.902413,12.1111,818.4760
21,3.892649,12.1123,818.4810
22,3.885859,12.1123,818.4860
23,3.874146,12.1148,818.4910
24,3.866486,12.1148,818.4960
25,3.857396,12.1167,818.5010
26,3.850713,12.1166,818.5060
27,3.841590,12.1179,818.5110
28,3.833925,12.1179,818.5161
29,3.821885,12.1204,818.5211
30,3.815361,12.1204,818.5250
31,3.808169,12.1222,818.5300
32,3.798074,12.1222,818.5350
33,3.791425,12.1247,818.5400
34,3.781126,12.1247,818.5450
35,3.776334,12.1266,818.5500
36,3.765995,12.1266,818.5551
37,3.760248,12.1278,818.5601
38,3.750316,12.1278,818.5651
39,3.742273,12.1310,818.5701
40,3.733421,12.1310,818.5750
41,3.728754,12.1322,818.5800
42,3.719687,12.1322,818.5850
43,3.713435,12.1347,818.5900
44,3.702783,12.1347,818.5950
45,3.698073,12.1366,818.6000
46,3.686828,12.1365,818.6050
47,3.680800,12.1378,818.6100
48,3.672112,12.1378,818.6151
49,3.665098,12.1403,818.6201
50,3.656231,12.1403,818.6251
51,3.649526,12.1422,818.6301
52,3.639476,12.1421,818.6350
53,3.633313,12.1446,818.6400
54,3.624008,12.1446,818.6450
55,3.620379,12.1465,818.6500
56,3.610830,12.1465,818.6550
57,3.604803,12.1478,818.6600
58,3.593739,12.1477,818.6650
59,3.585607,12.1509,818.6700
60,3.576680,12.1509,818.6750
61,3.571218,12.1521,818.6801
62,3.563040,12.1521,818.6851
63,3.557863,12.1546,818.6901
64,3.549937,12.1546,818.6951
65,3.546416,12.1565,818.7000
66,3.537975,12.1565,818.7050
67,3.532944,12.1577,818.7100
68,3.524527,12.1577,818.7150
69,3.517802,12.1602,818.7200
70,3.509792,12.1602,818.7250
71,3.504143,12.1621,818.7300
72,3.496081,12.1621,818.7350
73,3.490826,12.1639,818.7401
74,3.480716,12.1639,818.7451
75,3.476844,12.1664,818.7501
76,3.467743,12.1664,818.7551
77,3.463119,12.1677,818.7600
78,3.454702,12.1677,818.7650
79,3.447837,12.1708,818.7700
80,3.439350,12.1708,818.7750
81,3.433281,12.1720,818.7800
82,3.423517,12.1720,818.7850
83,3.417639,12.1745,818.7900
84,3.407907,12.1745,818.7950
85,3.404648,12.1764,818.8000
86,3.396091,12.1764,818.8051
87,3.390928,12.1776,818.8101
88,3.381913,12.1776,818.8151
89,3.373972,12.1801,818.8201
90,3.365509,12.1801,818.8250
91,3.360594,12.1820,818.8300
92,3.353510,12.1820,818.8350
93,3.349086,12.1839,818.8400
94,3.339977,12.1838,818.8450
95,3.335866,12.1863,818.8500
96,3.327286,12.1863,818.8550
97,3.322656,12.1876,818.8600
98,3.313702,12.1876,818.8651
99,3.306304,12.1901,818.8701
100,3.298237,12.1901,818.8751
101,3.293239,12.1919,818.8801
102,3.284892,12.1919,818.8850
103,3.279916,12.1944,818.8900
104,3.271091,12.1944,818.8950
105,3.268239,12.1963,818.9000
106,3.259916,12.1963,818.9050
107,3.255090,12.1975,818.9100
108,3.246683,12.1975,818.9150
109,3.240496,12.2000,818.9200
110,3.233188,12.2000,818.9250
111,3.228281,12.2019,818.9301
112,3.221520,12.2019,818.9351
113,3.217035,12.2038,818.9401
114,3.207047,12.2038,818.9451
115,3.202806,12.2063,818.9500
116,3.193814,12.2063,818.9550
117,3.189343,12.2075,818.9600
118,3.182147,12.2075,818.9650
119,3.175927,12.2100,818.9700
120,3.168165,12.2100,818.9750
121,3.162666,12.2119,818.9800
122,3.153897,12.2119,818.9850
123,3.148529,12.2144,818.9901
124,3.139654,12.2144,818.9951
125,3.136796,12.2162,819.0001
126,3.129919,12.2162,819.0051
127,3.125518,12.2175,819.0100
128,3.118036,12.2175,819.0150
129,3.111882,12.2200,819.0200
130,3.104032,12.2200,819.0250
131,3.099383,12.2218,819.0300
132,3.092902,12.2218,819.0350
133,3.088623,12.2237,819.0400
134,3.079486,12.2237,819.0450
135,3.076502,12.2262,819.0500
136,3.068964,12.2262,819.0551
137,3.065036,12.2274,819.0601
138,3.058859,12.2274,819.0651
139,3.053323,12.2299,819.0701
140,3.046991,12.2299,819.0750
141,3.043559,12.2318,819.0800
142,3.036727,12.2318,819.0850
143,3.032486,12.2343,819.0900
144,3.027061,12.2343,819.0950
145,3.020318,12.2362,819.1000
146,2.994955,12.2361,819.1050
147,2.977419,12.2374,819.1100
148,2.959219,12.2374,819.1151
149,2.956058,12.2399,819.1201
150,2.971681,12.2399,819.1251
151,2.985995,12.2418,819.1301
152,2.994973,12.2418,819.1350
153,2.994417,12.2436,819.1400
154,2.987627,12.2436,819.1450
155,2.982385,12.2455,819.1500
156,2.964878,12.2455,819.1550
157,2.951190,12.2474,819.1600
158,2.927019,12.2474,819.1650
159,2.910035,12.2505,819.1700
160,2.900318,12.2505,819.1750
161,2.900856,12.2517,819.1801
162,2.900080,12.2517,819.1851
163,2.897223,12.2542,819.1901
164,2.890615,12.2542,819.1951
165,2.890190,12.2561,819.2000
166,2.888992,12.2561,819.2050
167,2.893795,12.2573,819.2100
168,2.895899,12.2573,819.2150
169,2.889900,12.2598,819.2200
170,2.874192,12.2598,819.2250
171,2.861506,12.2617,819.2300
172,2.838415,12.2617,819.2350
173,2.824681,12.2635,819.2401
174,2.812831,12.2635,819.2451
175,2.815067,12.2660,819.2501
176,2.820673,12.2660,819.2551
177,2.827693,12.2673,819.2600
178,2.833224,12.2673,819.2650
179,2.827341,12.2704,819.2700
180,2.816596,12.2704,819.2750
181,2.812298,12.2717,819.2800
182,2.807501,12.2717,819.2850
183,2.803316,12.2742,819.2900
184,2.791461,12.2741,819.2950
185,2.781787,12.2760,819.3000
186,2.760926,12.2760,819.3051
187,2.752415,12.2772,819.3101
188,2.748918,12.2772,819.3151
189,2.750335,12.2797,819.3201
190,2.756484,12.2797,819.3250
191,2.759481,12.2816,819.3300
192,2.755268,12.2816,819.3350
193,2.746678,12.2835,819.3400
194,2.730821,12.2835,819.3450
195,2.724802,12.2860,819.3500
196,2.714084,12.2860,819.3550
197,2.709030,12.2872,819.3600
198,2.700851,12.2872,819.3651
199,2.692551,12.2903,819.3701
200,2.680613,12.2903,819.3751
201,2.674870,12.2916,819.3801
202,2.673220,12.2916,819.3850
203,2.675932,12.2941,819.3900
204,2.679771,12.2941,819.3950
205,2.682250,12.2960,819.4000
206,2.674240,12.2960,819.4050
207,2.664953,12.2972,819.4100
208,2.650540,12.2972,819.4150
209,2.643044,12.2997,819.4200
210,2.638658,12.2997,819.4250
211,2.638073,12.3016,819.4301
212,2.636199,12.3016,819.4351
213,2.632041,12.3034,819.4401
214,2.621273,12.3034,819.4451
215,2.616666,12.3059,819.4500
216,2.610288,12.3059,819.4550
217,2.609334,12.3078,819.4600
218,2.609919,12.3078,819.4650
219,2.606874,12.3103,819.4700
220,2.596619,12.3103,819.4750
221,2.586921,12.3115,819.4800
222,2.572958,12.3115,819.4850
223,2.565424,12.3140,819.4901
224,2.556787,12.3140,819.4951
225,2.557186,12.3159,819.5001
226,2.557092,12.3159,819.5051
227,2.556142,12.3171,819.5100
228,2.550512,12.3171,819.5150
229,2.545565,12.3196,819.5200
230,2.538350,12.3196,819.5250
231,2.533903,12.3215,819.5300
232,2.528426,12.3215,819.5350
233,2.525284,12.3215,819.5400
234,2.517718,12.3234,819.5450
235,2.513795,12.3234,819.5500
236,2.504498,12.3259,819.5551
237,2.499378,12.3277,819.5601
238,2.493842,12.3277,819.5651
239,2.491887,12.3302,819.5701
240,2.490877,12.3302,819.5750
241,2.488773,12.3315,819.5800
242,2.482713,12.3315,819.5850
243,2.476947,12.3340,819.5900
244,2.465228,12.3340,819.5950
245,2.460856,12.3358,819.6000
246,2.453753,12.3358,819.6050
247,2.450110,12.3371,819.6100
248,2.444227,12.3371,819.6151
249,2.439233,12.3396,819.6201
250,2.430704,12.3396,819.6251
251,2.424835,12.3414,819.6301
252,2.419635,12.3414,819.6350
253,2.418822,12.3414,819.6400
254,2.416577,12.3433,819.6450
255,2.416839,12.3433,819.6500
256,2.412476,12.3458,819.6550
257,2.406673,12.3470,819.6600
258,2.395941,12.3470,819.6650
259,2.389035,12.3502,819.6700
260,2.383497,12.3502,819.6750
261,2.381749,12.3514,819.6801
262,2.379079,12.3514,819.6851
263,2.376138,12.3539,819.6901
264,2.367847,12.3539,819.6951
265,2.365060,12.3558,819.7000
266,2.359888,12.3558,819.7050
267,2.357994,12.3570,819.7100
268,2.354516,12.3570,819.7150
269,2.350747,12.3595,819.7200
270,2.343352,12.3595,819.7250
271,2.336671,12.3595,819.7300
272,2.326205,12.3614,819.7350
273,2.319953,12.3614,819.7401
274,2.311209,12.3632,819.7451
275,2.308604,12.3632,819.7501
276,2.304877,12.3657,819.7551
277,2.302502,12.3670,819.7600
278,2.297676,12.3670,819.7650
279,2.293659,12.3701,819.7700
280,2.290078,12.3701,819.7750
281,2.287814,12.3713,819.7800
282,2.284251,12.3713,819.7850
283,2.281623,12.3738,819.7900
284,2.275202,12.3738,819.7950
285,2.271892,12.3757,819.8000
286,2.265602,12.3757,819.8051
287,2.262843,12.3770,819.8101
288,2.259930,12.3770,819.8151
289,2.259013,12.3795,819.8201
290,2.258723,12.3795,819.8250
291,2.257802,12.3795,819.8300
292,2.255319,12.3813,819.8350
293,2.252584,12.3813,819.8400
294,2.247056,12.3832,819.8450
295,2.244555,12.3832,819.8500
296,2.240388,12.3857,819.8550
297,2.237882,12.3869,819.8600
298,2.233290,12.3869,819.8651
299,2.228469,12.3901,819.8701
300,2.221272,12.3901,819.8751
301,2.216516,12.3913,819.8801
302,2.211728,12.3913,819.8850
303,2.209488,12.3938,819.8900
304,2.204695,12.3938,819.8950
305,2.203928,12.3957,819.9000
306,2.200819,12.3957,819.9050
307,2.197868,12.3969,819.9100
308,2.191433,12.3969,819.9150
309,2.186163,12.3994,819.9200
310,2.178953,12.3994,819.9250
311,2.175450,12.3994,819.9301
312,2.172205,12.4013,819.9351
313,2.170087,12.4013,819.9401
314,2.164980,12.4032,819.9451
315,2.162352,12.4032,819.9500
316,2.157073,12.4056,819.9550
317,2.154281,12.4056,819.9600
318,2.149792,12.4069,819.9650
319,2.146093,12.4100,819.9700
320,2.140543,12.4100,819.9750
321,2.136278,12.4113,819.9800
322,2.128417,12.4113,819.9850
323,2.123353,12.4138,819.9901
324,2.115146,12.4137,819.9951
325,2.112243,12.4156,820.0001
326,2.107258,12.4156,820.0051
327,2.104868,12.4169,820.0100
328,2.100454,12.4169,820.0150
329,2.096863,12.4169,820.0200
330,2.091195,12.4194,820.0250
331,2.088029,12.4194,820.0300
332,2.082497,12.4212,820.0350
333,2.078635,12.4212,820.0400
334,2.071723,12.4231,820.0450
335,2.068202,12.4231,820.0500
336,2.063297,12.4256,820.0551
337,2.060384,12.4256,820.0601
338,2.056624,12.4268,820.0651
339,2.052462,12.4268,820.0701
340,2.047155,12.4300,820.0750
341,2.044462,12.4300,820.0800
342,2.040580,12.4312,820.0850
343,2.037522,12.4312,820.0900
344,2.030105,12.4337,820.0950
345,2.027257,12.4337,820.1000
346,2.022114,12.4356,820.1050
347,2.019425,12.4356,820.1100
348,2.014538,12.4368,820.1151
349,2.011092,12.4368,820.1201
350,2.006065,12.4399,820.1251
351,2.002778,12.4399,820.1301
352,1.997975,12.4412,820.1350
353,1.995305,12.4412,820.1400
354,1.988894,12.4430,820.1450
355,1.985396,12.4430,820.1500
356,1.980164,12.4449,820.1550
357,1.976166,12.4449,820.1600
358,1.969689,12.4468,820.1650
359,1.964662,12.4468,820.1700
360,1.959243,12.4499,820.1750
361,1.956479,12.4499,820.1801
362,1.953042,12.4512,820.1851
363,1.950620,12.4512,820.1901
364,1.945480,12.4536,820.1951
365,1.943399,12.4536,820.2000
366,1.938541,12.4555,820.2050
367,1.935979,12.4555,820.2100
368,1.932920,12.4568,820.2150
369,1.930068,12.4568,820.2200
370,1.924569,12.4599,820.2250
371,1.921225,12.4599,820.2300
372,1.914959,12.4611,820.2350
373,1.910180,12.4611,820.2401
374,1.902829,12.4630,820.2451
375,1.900164,12.4630,820.2501
376,1.897863,12.4649,820.2551
377,1.895231,12.4649,820.2600
378,1.890245,12.4667,820.2650
379,1.885368,12.4667,820.2700
380,1.879037,12.4699,820.2750
381,1.875188,12.4699,820.2800
382,1.869750,12.4711,820.2850
383,1.866304,12.4711,820.2900
384,1.858742,12.4736,820.2950
385,1.855474,12.4736,820.3000
386,1.850629,12.4755,820.3051
387,1.847833,12.4755,820.3101
388,1.843788,12.4773,820.3151
389,1.841179,12.4773,820.3201
390,1.837007,12.4798,820.3250
391,1.834940,12.4798,820.3300
392,1.831546,12.4811,820.3350
393,1.827692,12.4811,820.3400
394,1.820318,12.4829,820.3450
395,1.816853,12.4829,820.3500
396,1.813898,12.4848,820.3550
397,1.811242,12.4848,820.3600
398,1.806851,12.4867,820.3651
399,1.802011,12.4867,820.3701
400,1.795889,12.4898,820.3751
401,1.793725,12.4898,820.3801
402,1.790227,12.4911,820.3850
403,1.787725,12.4911,820.3900
404,1.782572,12.4936,820.3950
405,1.780529,12.4936,820.4000
406,1.775829,12.4954,820.4050
407,1.771882,12.4954,820.4100
408,1.765742,12.4973,820.4150
409,1.761889,12.4973,820.4200
410,1.756109,12.4998,820.4250
411,1.754277,12.4998,820.4301
412,1.751994,12.5010,820.4351
413,1.749633,12.5010,820.4401
414,1.744274,12.5029,820.4451
415,1.740814,12.5029,820.4500
416,1.737344,12.5048,820.4561
417,1.731723,12.5066,820.4611
418,1.728440,12.5066,820.4661
419,1.722175,12.5098,820.4711
420,1.719537,12.5098,820.4760
421,1.716708,12.5110,820.4810
422,1.714721,12.5110,820.4860
423,1.709989,12.5135,820.4910
424,1.704578,12.5135,820.4960
425,1.700416,12.5154,820.5010
426,1.696876,12.5154,820.5060
427,1.692411,12.5172,820.5110
428,1.689675,12.5172,820.5161
429,1.684274,12.5197,820.5211
430,1.681328,12.5197,820.5261
431,1.677639,12.5210,820.5311
432,1.674730,12.5210,820.5360
433,1.669582,12.5229,820.5410
434,1.664919,12.5229,820.5460
435,1.661286,12.5247,820.5510
436,1.658667,12.5247,820.5560
437,1.654225,12.5266,820.5610
438,1.650769,12.5266,820.5660
439,1.644662,12.5297,820.5710
440,1.641880,12.5297,820.5760
441,1.638999,12.5310,820.5811
442,1.636268,12.5310,820.5861
443,1.631082,12.5335,820.5911
444,1.626388,12.5335,820.5961
445,1.623021,12.5353,820.6010
446,1.619930,12.5353,820.6060
447,1.616385,12.5372,820.6110
448,1.613575,12.5372,820.6160
449,1.607776,12.5397,820.6210
450,1.604283,12.5397,820.6260
451,1.600089,12.5409,820.6310
452,1.597901,12.5409,820.6360
453,1.593804,12.5428,820.6411
454,1.590138,12.5428,820.6461
455,1.586631,12.5447,820.6511
456,1.583830,12.5447,820.6561
457,1.578373,12.5466,820.6610
458,1.574197,12.5466,820.6660
459,1.566093,12.5497,820.6710
460,1.562175,12.5497,820.6760
461,1.558265,12.5509,820.6810
462,1.556166,12.5509,820.6860
463,1.552013,12.5534,820.6910
464,1.547744,12.5534,820.6960
465,1.545279,12.5553,820.7010
466,1.542436,12.5553,820.7061
467,1.538789,12.5565,820.7111
468,1.536442,12.5565,820.7161
469,1.532303,12.5597,820.7211
470,1.529862,12.5597,820.7260
471,1.526112,12.5609,820.7310
472,1.523199,12.5609,820.7360
473,1.517933,12.5628,820.7410
474,1.513374,12.5628,820.7460
475,1.509132,12.5646,820.7510
476,1.506939,12.5646,820.7560
477,1.502806,12.5665,820.7610
478,1.500370,12.5665,820.7661
479,1.495188,12.5696,820.7711
480,1.492327,12.5696,820.7761
481,1.488408,12.5709,820.7811
482,1.485621,12.5709,820.7860
483,1.481099,12.5734,820.7910
484,1.476077,12.5734,820.7960
485,1.472116,12.5752,820.8010
486,1.468310,12.5752,820.8060
487,1.463526,12.5765,820.8110
488,1.460108,12.5765,820.8160
489,1.453771,12.5796,820.8210
490,1.450418,12.5796,820.8260
491,1.447870,12.5809,820.8311
492,1.446093,12.5809,820.8361
493,1.441758,12.5827,820.8411
494,1.437886,12.5827,820.8461
495,1.434024,12.5846,820.8510
496,1.431878,12.5846,820.8560
497,1.427637,12.5865,820.8610
498,1.425687,12.5865,820.8660
499,1.419598,12.5896,820.8710
500,1.415731,12.5896,820.8760
501,1.412588,12.5908,820.8810
502,1.410928,12.5908,820.8860
503,1.406940,12.5933,820.8911
504,1.402044,12.5933,820.8961
505,1.398312,12.5952,820.9011
506,1.395913,12.5952,820.9061
507,1.391840,12.5964,820.9110
508,1.388174,12.5964,820.9160
509,1.382310,12.5996,820.9210
510,1.378999,12.5996,820.9260
511,1.375478,12.6008,820.9310
512,1.372598,12.6008,820.9360
513,1.367753,12.6027,820.9410
514,1.363395,12.6027,820.9460
515,1.358957,12.6046,820.9510
516,1.356993,12.6046,820.9561
517,1.352406,12.6064,820.9611
518,1.348679,12.6064,820.9661
519,1.342474,12.6095,820.9711
520,1.339696,12.6095,820.9760
521,1.337620,12.6108,820.9810
522,1.336769,12.6108,820.9860
523,1.333603,12.6133,820.9910
524,1.330255,12.6133,820.9960
525,1.326968,12.6152,821.0010
526,1.324512,12.6152,821.0060
527,1.320814,12.6164,821.0110
528,1.318593,12.6164,821.0161
529,1.314735,12.6189,821.0211
530,1.311564,12.6189,821.0261
531,1.308871,12.6208,821.0311
532,1.307201,12.6208,821.0360
533,1.303086,12.6226,821.0410
534,1.299130,12.6226,821.0460
535,1.295080,12.6245,821.0510
536,1.293720,12.6245,821.0560
537,1.290433,12.6264,821.0610
538,1.287749,12.6264,821.0660
539,1.281618,12.6295,821.0710
540,1.277381,12.6295,821.0760
541,1.273636,12.6308,821.0811
542,1.271527,12.6308,821.0861
543,1.267744,12.6332,821.0911
544,1.264283,12.6332,821.0961
545,1.261253,12.6351,821.1010
546,1.258887,12.6351,821.1060
547,1.254697,12.6364,821.1110
548,1.252499,12.6364,821.1160
549,1.248221,12.6395,821.1210
550,1.245050,12.6395,821.1260
551,1.242091,12.6407,821.1310
552,1.239299,12.6407,821.1360
553,1.233692,12.6426,821.1411
554,1.229170,12.6426,821.1461
555,1.225158,12.6445,821.1511
556,1.223848,12.6445,821.1561
557,1.220323,12.6463,821.1610
558,1.218265,12.6463,821.1660
559,1.212673,12.6495,821.1710
560,1.208745,12.6495,821.1760
561,1.205027,12.6507,821.1810
562,1.202796,12.6507,821.1860
563,1.198382,12.6532,821.1910
564,1.194496,12.6532,821.1960
565,1.189960,12.6551,821.2010
566,1.187529,12.6551,821.2061
567,1.183629,12.6563,821.2111
568,1.180585,12.6563,821.2161
569,1.175792,12.6588,821.2211
570,1.172682,12.6588,821.2260
571,1.170377,12.6607,821.2310
572,1.168370,12.6607,821.2360
573,1.163951,12.6626,821.2410
574,1.160019,12.6626,821.2460
575,1.156096,12.6644,821.2510
576,1.154323,12.6644,821.2560
577,1.150236,12.6663,821.2610
578,1.148212,12.6663,821.2661
579,1.143554,12.6694,821.2711
580,1.140038,12.6694,821.2761
581,1.136671,12.6707,821.2811
582,1.134767,12.6707,821.2860
583,1.130391,12.6732,821.2910
584,1.126636,12.6732,821.2960
585,1.122432,12.6750,821.3010
586,1.120210,12.6750,821.3060
587,1.116343,12.6763,821.3110
588,1.113701,12.6763,821.3160
589,1.108800,12.6794,821.3210
590,1.105167,12.6794,821.3260
591,1.101936,12.6807,821.3311
592,1.100262,12.6807,821.3361
593,1.097419,12.6825,821.3411
594,1.094786,12.6825,821.3461
595,1.090961,12.6850,821.3510
596,1.089703,12.6850,821.3560
597,1.086229,12.6863,821.3610
598,1.083264,12.6863,821.3660
599,1.077466,12.6894,821.3710
600,1.073893,12.6894,821.3760
601,1.071209,12.6906,821.3810
602,1.069525,12.6906,821.3860
603,1.065149,12.6925,821.3911
604,1.061286,12.6925,821.3961
605,1.057087,12.6950,821.4011
606,1.054922,12.6950,821.4061
607,1.050442,12.6962,821.4110
608,1.048197,12.6962,821.4160
609,1.044265,12.6994,821.4210
610,1.040117,12.6994,821.4260
611,1.036095,12.7006,821.4310
612,1.033720,12.7006,821.4360
613,1.029717,12.7025,821.4410
614,1.026916,12.7025,821.4460
615,1.022371,12.7044,821.4510
616,1.020641,12.7044,821.4561
617,1.015852,12.7062,821.4611
618,1.012953,12.7062,821.4661
619,1.007501,12.7093,821.4711
620,1.003577,12.7093,821.4760
621,1.000145,12.7106,821.4810
622,0.998317,12.7106,821.4860
623,0.993617,12.7125,821.4910
624,0.989600,12.7125,821.4960
625,0.985686,12.7150,821.5010
626,0.984129,12.7150,821.5060
627,0.980921,12.7162,821.5110
628,0.978990,12.7162,821.5161
629,0.975806,12.7187,821.5211
630,0.972827,12.7187,821.5261
631,0.969839,12.7206,821.5311
632,0.967285,12.7206,821.5360
633,0.962455,12.7224,821.5410
634,0.958396,12.7224,821.5460
635,0.952967,12.7243,821.5510
636,0.951653,12.7243,821.5560
637,0.947463,12.7262,821.5610
638,0.945064,12.7262,821.5660
639,0.940248,12.7293,821.5710
640,0.936788,12.7293,821.5760
641,0.935202,12.7306,821.5811
642,0.933799,12.7306,821.5861
643,0.928955,12.7324,821.5911
644,0.924293,12.7324,821.5961
645,0.918410,12.7349,821.6010
646,0.916484,12.7349,821.6060
647,0.912499,12.7362,821.6110
648,0.910390,12.7362,821.6160
649,0.906112,12.7362,821.6210
650,0.902221,12.7387,821.6260
651,0.899280,12.7387,821.6310
652,0.897882,12.7405,821.6360
653,0.894973,12.7424,821.6411
654,0.892167,12.7424,821.6461
655,0.888483,12.7443,821.6511
656,0.888155,12.7443,821.6561
657,0.883138,12.7461,821.6610
658,0.880809,12.7461,821.6660
659,0.875965,12.7493,821.6710
660,0.871980,12.7493,821.6760
661,0.869395,12.7505,821.6810
662,0.867926,12.7505,821.6860
663,0.864110,12.7524,821.6910
664,0.860828,12.7524,821.6960
665,0.855184,12.7543,821.7010
666,0.853668,12.7543,821.7061
667,0.850227,12.7561,821.7111
668,0.848104,12.7561,821.7161
