Data stamp = , 01-04-2022 11:32:45 732

Calibration Values: 
Slope = , 26.54 , g/V 
Offset Voltage at no contact = , -0.501760 , V 

No , Time , Stage Position ,   Mass , Force 
   ,  (s) ,      (mm)      ,   (g)  , (mN)  

1 ,0.0000 ,0.64940 ,5.15479 ,50.57876 
2 ,0.2184 ,0.64949 ,5.16505 ,50.67950 
3 ,0.5225 ,0.65024 ,5.14452 ,50.47803 
4 ,0.6987 ,0.65154 ,5.15821 ,50.61234 
5 ,0.8745 ,0.65300 ,5.16505 ,50.67950 
6 ,1.0508 ,0.65468 ,5.15136 ,50.54519 
7 ,1.2430 ,0.65648 ,5.16163 ,50.64592 
8 ,1.4350 ,0.65839 ,5.16505 ,50.67950 
9 ,1.6110 ,0.66030 ,5.16163 ,50.64592 
10 ,1.7871 ,0.66202 ,5.16848 ,50.71308 
11 ,1.9951 ,0.66398 ,5.14452 ,50.47803 
12 ,2.1708 ,0.66586 ,5.15479 ,50.57876 
13 ,2.3476 ,0.66762 ,5.15821 ,50.61234 
14 ,2.5234 ,0.66938 ,5.13425 ,50.37729 
15 ,2.6996 ,0.67116 ,5.12056 ,50.24298 
16 ,2.8754 ,0.67290 ,5.11030 ,50.14225 
17 ,3.0516 ,0.67467 ,5.10345 ,50.07509 
18 ,3.2277 ,0.67641 ,5.08977 ,49.94078 
19 ,3.4037 ,0.67816 ,5.09319 ,49.97436 
20 ,3.5799 ,0.67995 ,5.06581 ,49.70573 
21 ,3.7719 ,0.68186 ,5.03843 ,49.43710 
22 ,3.9482 ,0.68364 ,5.03501 ,49.40352 
23 ,4.1400 ,0.68555 ,5.00421 ,49.10132 
24 ,4.3001 ,0.68724 ,4.98368 ,48.89985 
25 ,4.4761 ,0.68893 ,4.98026 ,48.86627 
26 ,4.6682 ,0.69079 ,4.96999 ,48.76554 
27 ,4.8442 ,0.69256 ,4.95972 ,48.66480 
28 ,5.0203 ,0.69435 ,4.91866 ,48.26186 
29 ,5.1963 ,0.69607 ,4.90839 ,48.16113 
30 ,5.3725 ,0.69786 ,4.89812 ,48.06039 
31 ,5.5647 ,0.69977 ,4.87075 ,47.79177 
32 ,5.7407 ,0.70157 ,4.85364 ,47.62387 
33 ,5.9167 ,0.70333 ,4.83652 ,47.45598 
34 ,6.0927 ,0.70506 ,4.82968 ,47.38883 
35 ,6.2689 ,0.70681 ,4.82284 ,47.32167 
36 ,6.4606 ,0.70872 ,4.80230 ,47.12020 
37 ,6.6370 ,0.71051 ,4.77150 ,46.81800 
38 ,6.8290 ,0.71234 ,4.75782 ,46.68368 
39 ,7.0051 ,0.71413 ,4.74755 ,46.58295 
40 ,7.1812 ,0.71591 ,4.72017 ,46.31432 
41 ,7.3572 ,0.71770 ,4.69964 ,46.11285 
42 ,7.5333 ,0.71944 ,4.69279 ,46.04569 
43 ,7.7255 ,0.72127 ,4.68253 ,45.94496 
44 ,7.9016 ,0.72315 ,4.66542 ,45.77707 
45 ,8.0777 ,0.72490 ,4.63462 ,45.47486 
46 ,8.2536 ,0.72662 ,4.63462 ,45.47486 
47 ,8.4295 ,0.72838 ,4.62093 ,45.34055 
48 ,8.6057 ,0.73024 ,4.61408 ,45.27339 
49 ,8.7979 ,0.73207 ,4.58328 ,44.97119 
50 ,8.9741 ,0.73385 ,4.56960 ,44.83688 
51 ,9.1502 ,0.73566 ,4.55249 ,44.66898 
52 ,9.3421 ,0.73754 ,4.53537 ,44.50109 
53 ,9.5181 ,0.73929 ,4.51826 ,44.33320 
54 ,9.6944 ,0.74104 ,4.51142 ,44.26604 
55 ,9.8861 ,0.74296 ,4.49431 ,44.09815 
56 ,10.0625 ,0.74477 ,4.46693 ,43.82953 
57 ,10.2704 ,0.74681 ,4.46693 ,43.82953 
58 ,10.4624 ,0.74876 ,4.41902 ,43.35943 
59 ,10.6387 ,0.75050 ,4.40875 ,43.25870 
60 ,10.8308 ,0.75242 ,4.41902 ,43.35943 
61 ,11.0066 ,0.75420 ,4.40191 ,43.19154 
62 ,11.1830 ,0.75598 ,4.37453 ,42.92291 
63 ,11.3590 ,0.75773 ,4.35058 ,42.68786 
64 ,11.5350 ,0.75943 ,4.33689 ,42.55355 
65 ,11.7110 ,0.76121 ,4.34031 ,42.58713 
66 ,11.9032 ,0.76312 ,4.30609 ,42.25135 
67 ,12.0794 ,0.76490 ,4.28556 ,42.04988 
68 ,12.2554 ,0.76667 ,4.26845 ,41.88198 
69 ,12.4476 ,0.76847 ,4.26845 ,41.88198 
70 ,12.6392 ,0.77052 ,4.23765 ,41.57978 
71 ,12.8157 ,0.77229 ,4.21711 ,41.37831 
72 ,12.9914 ,0.77399 ,4.22053 ,41.41189 
73 ,13.1678 ,0.77578 ,4.20000 ,41.21042 
74 ,13.3596 ,0.77772 ,4.16236 ,40.84106 
75 ,13.5360 ,0.77944 ,4.15894 ,40.80748 
76 ,13.7280 ,0.78140 ,4.14183 ,40.63959 
77 ,13.9039 ,0.78316 ,4.12814 ,40.50527 
78 ,14.0802 ,0.78486 ,4.11445 ,40.37096 
79 ,14.2559 ,0.78674 ,4.11445 ,40.37096 
80 ,14.4319 ,0.78841 ,4.09049 ,40.13591 
81 ,14.6083 ,0.79014 ,4.06996 ,39.93444 
82 ,14.8004 ,0.79212 ,4.04943 ,39.73297 
83 ,14.9765 ,0.79386 ,4.03574 ,39.59866 
84 ,15.1685 ,0.79569 ,4.02205 ,39.46435 
85 ,15.3607 ,0.79771 ,4.00152 ,39.26288 
86 ,15.5368 ,0.79950 ,3.98441 ,39.09499 
87 ,15.7128 ,0.80125 ,3.98098 ,39.06141 
88 ,15.8888 ,0.80291 ,3.97756 ,39.02783 
89 ,16.0647 ,0.80476 ,3.94676 ,38.72562 
90 ,16.2408 ,0.80651 ,3.92623 ,38.52415 
91 ,16.4330 ,0.80838 ,3.92281 ,38.49058 
92 ,16.6092 ,0.81017 ,3.88516 ,38.12122 
93 ,16.7853 ,0.81193 ,3.86805 ,37.95332 
94 ,16.9933 ,0.81403 ,3.85094 ,37.78543 
95 ,17.1694 ,0.81576 ,3.84752 ,37.75185 
96 ,17.3455 ,0.81757 ,3.82356 ,37.51681 
97 ,17.5214 ,0.81928 ,3.80987 ,37.38249 
98 ,17.6974 ,0.82111 ,3.79961 ,37.28176 
99 ,17.8896 ,0.82304 ,3.78934 ,37.18102 
100 ,18.0814 ,0.82489 ,3.75170 ,36.81166 
101 ,18.2575 ,0.82668 ,3.73459 ,36.64377 
102 ,18.4335 ,0.82843 ,3.71748 ,36.47588 
103 ,18.6095 ,0.83017 ,3.72090 ,36.50946 
104 ,18.7860 ,0.83196 ,3.70379 ,36.34157 
105 ,19.0097 ,0.83403 ,3.66957 ,36.00578 
106 ,19.1862 ,0.83597 ,3.67641 ,36.07294 
107 ,19.3624 ,0.83772 ,3.63877 ,35.70358 
108 ,19.5380 ,0.83951 ,3.61139 ,35.43495 
109 ,19.7145 ,0.84124 ,3.63192 ,35.63642 
110 ,19.9064 ,0.84314 ,3.59428 ,35.26706 
111 ,20.0822 ,0.84489 ,3.58059 ,35.13275 
112 ,20.2585 ,0.84667 ,3.57032 ,35.03201 
113 ,20.4511 ,0.84850 ,3.55321 ,34.86412 
114 ,20.6269 ,0.85037 ,3.53268 ,34.66265 
115 ,20.8029 ,0.85216 ,3.49846 ,34.32687 
116 ,20.9789 ,0.85388 ,3.49504 ,34.29329 
117 ,21.1867 ,0.85594 ,3.48477 ,34.19255 
118 ,21.3632 ,0.85767 ,3.45397 ,33.89035 
119 ,21.5393 ,0.85951 ,3.44370 ,33.78961 
120 ,21.7473 ,0.86150 ,3.42317 ,33.58814 
121 ,21.9233 ,0.86325 ,3.39237 ,33.28594 
122 ,22.0995 ,0.86504 ,3.40606 ,33.42025 
123 ,22.2755 ,0.86684 ,3.38210 ,33.18520 
124 ,22.4677 ,0.86873 ,3.36499 ,33.01731 
125 ,22.6598 ,0.87064 ,3.36157 ,32.98374 
126 ,22.8517 ,0.87255 ,3.34446 ,32.81584 
127 ,23.0278 ,0.87436 ,3.30682 ,32.44648 
128 ,23.2035 ,0.87608 ,3.29997 ,32.37933 
129 ,23.3797 ,0.87789 ,3.27944 ,32.17786 
130 ,23.5881 ,0.87993 ,3.26917 ,32.07712 
131 ,23.7640 ,0.88169 ,3.24180 ,31.80849 
132 ,23.9403 ,0.88345 ,3.22811 ,31.67418 
133 ,24.1163 ,0.88519 ,3.22468 ,31.64060 
134 ,24.3079 ,0.88723 ,3.19731 ,31.37198 
135 ,24.4845 ,0.88891 ,3.19046 ,31.30482 
136 ,24.6764 ,0.89079 ,3.18020 ,31.20409 
137 ,24.8526 ,0.89255 ,3.17677 ,31.17051 
138 ,25.0287 ,0.89430 ,3.13913 ,30.80115 
139 ,25.2046 ,0.89612 ,3.12544 ,30.66683 
140 ,25.3807 ,0.89785 ,3.10149 ,30.43178 
141 ,25.5566 ,0.89959 ,3.10833 ,30.49894 
142 ,25.7328 ,0.90135 ,3.09464 ,30.36463 
143 ,25.9085 ,0.90312 ,3.07411 ,30.16316 
144 ,26.1009 ,0.90492 ,3.07069 ,30.12958 
145 ,26.2770 ,0.90682 ,3.02962 ,29.72664 
146 ,26.4531 ,0.90855 ,3.03647 ,29.79380 
147 ,26.6293 ,0.91032 ,3.01251 ,29.55875 
148 ,26.8214 ,0.91218 ,2.98855 ,29.32370 
149 ,27.0134 ,0.91419 ,2.98171 ,29.25654 
150 ,27.1895 ,0.91591 ,2.95091 ,28.95434 
151 ,27.3656 ,0.91774 ,2.93038 ,28.75287 
152 ,27.5574 ,0.91962 ,2.94407 ,28.88718 
153 ,27.7332 ,0.92148 ,2.90985 ,28.55140 
154 ,27.8932 ,0.92310 ,2.89958 ,28.45066 
155 ,28.0534 ,0.92469 ,2.88589 ,28.31635 
156 ,28.2620 ,0.92655 ,2.85851 ,28.04772 
157 ,28.4541 ,0.92862 ,2.86193 ,28.08130 
158 ,28.6301 ,0.93037 ,2.84482 ,27.91341 
159 ,28.8381 ,0.93237 ,2.82429 ,27.71194 
160 ,29.0142 ,0.93419 ,2.80376 ,27.51047 
161 ,29.1899 ,0.93594 ,2.79691 ,27.44332 
162 ,29.3663 ,0.93769 ,2.75585 ,27.04038 
163 ,29.5741 ,0.93977 ,2.75927 ,27.07395 
164 ,29.7507 ,0.94151 ,2.75243 ,27.00680 
165 ,29.9265 ,0.94329 ,2.72163 ,26.70459 
166 ,30.1027 ,0.94509 ,2.70109 ,26.50312 
167 ,30.2788 ,0.94680 ,2.70452 ,26.53670 
168 ,30.4549 ,0.94861 ,2.68740 ,26.36881 
169 ,30.6468 ,0.95050 ,2.67029 ,26.20092 
170 ,30.8228 ,0.95224 ,2.63949 ,25.89871 
171 ,30.9990 ,0.95398 ,2.64292 ,25.93229 
172 ,31.1748 ,0.95578 ,2.62238 ,25.73082 
173 ,31.3514 ,0.95757 ,2.60527 ,25.56293 
174 ,31.5274 ,0.95931 ,2.58816 ,25.39504 
175 ,31.7032 ,0.96107 ,2.56763 ,25.19357 
176 ,31.8793 ,0.96279 ,2.56421 ,25.15999 
177 ,32.0553 ,0.96455 ,2.55736 ,25.09283 
178 ,32.2314 ,0.96632 ,2.54025 ,24.92494 
179 ,32.4075 ,0.96809 ,2.50945 ,24.62274 
180 ,32.5836 ,0.96986 ,2.50945 ,24.62274 
181 ,32.7598 ,0.97162 ,2.49234 ,24.45485 
182 ,32.9358 ,0.97337 ,2.47865 ,24.32053 
183 ,33.1118 ,0.97518 ,2.46839 ,24.21980 
184 ,33.2878 ,0.97691 ,2.43416 ,23.88402 
185 ,33.4640 ,0.97868 ,2.43074 ,23.85044 
186 ,33.6400 ,0.98043 ,2.41021 ,23.64897 
187 ,33.8158 ,0.98214 ,2.41705 ,23.71612 
188 ,33.9923 ,0.98389 ,2.38968 ,23.44750 
189 ,34.1841 ,0.98591 ,2.36572 ,23.21245 
190 ,34.3601 ,0.98764 ,2.35545 ,23.11171 
191 ,34.5683 ,0.98964 ,2.33150 ,22.87667 
192 ,34.7446 ,0.99149 ,2.32123 ,22.77593 
193 ,34.9204 ,0.99322 ,2.31781 ,22.74235 
194 ,35.0967 ,0.99500 ,2.31097 ,22.67520 
195 ,35.2727 ,0.99674 ,2.28701 ,22.44015 
196 ,35.4489 ,0.99850 ,2.26306 ,22.20510 
197 ,35.6409 ,1.00048 ,2.25621 ,22.13794 
198 ,35.8490 ,1.00246 ,2.23568 ,21.93647 
199 ,36.0248 ,1.00430 ,2.20830 ,21.66785 
200 ,36.2170 ,1.00621 ,2.21172 ,21.70143 
201 ,36.4092 ,1.00812 ,2.18435 ,21.43280 
202 ,36.5852 ,1.00987 ,2.16723 ,21.26491 
203 ,36.7612 ,1.01163 ,2.16381 ,21.23133 
204 ,36.9369 ,1.01337 ,2.15012 ,21.09702 
205 ,37.1294 ,1.01517 ,2.13644 ,20.96270 
206 ,37.3056 ,1.01705 ,2.10564 ,20.66050 
207 ,37.4974 ,1.01892 ,2.10221 ,20.62692 
208 ,37.6896 ,1.02084 ,2.08168 ,20.42545 
209 ,37.8977 ,1.02291 ,2.07826 ,20.39187 
210 ,38.0736 ,1.02469 ,2.05773 ,20.19040 
211 ,38.2658 ,1.02664 ,2.03035 ,19.92178 
212 ,38.4419 ,1.02844 ,2.03035 ,19.92178 
213 ,38.6019 ,1.03017 ,2.02693 ,19.88820 
214 ,38.7780 ,1.03177 ,2.00982 ,19.72031 
215 ,38.9702 ,1.03376 ,1.97217 ,19.35094 
216 ,39.1461 ,1.03552 ,1.97559 ,19.38452 
217 ,39.3381 ,1.03740 ,1.97217 ,19.35094 
218 ,39.5144 ,1.03915 ,1.93453 ,18.98158 
219 ,39.6905 ,1.04096 ,1.92426 ,18.88085 
220 ,39.8985 ,1.04291 ,1.90715 ,18.71296 
221 ,40.0742 ,1.04475 ,1.90031 ,18.64580 
222 ,40.2508 ,1.04657 ,1.87293 ,18.37717 
223 ,40.4586 ,1.04849 ,1.86266 ,18.27644 
224 ,40.6185 ,1.05031 ,1.85240 ,18.17570 
225 ,40.7948 ,1.05193 ,1.83528 ,18.00781 
226 ,40.9707 ,1.05377 ,1.82502 ,17.90708 
227 ,41.1629 ,1.05563 ,1.81133 ,17.77276 
228 ,41.3389 ,1.05738 ,1.80106 ,17.67203 
229 ,41.5151 ,1.05918 ,1.78053 ,17.47056 
230 ,41.6912 ,1.06094 ,1.77026 ,17.36983 
231 ,41.8833 ,1.06286 ,1.75315 ,17.20193 
232 ,42.0753 ,1.06464 ,1.72920 ,16.96689 
233 ,42.2514 ,1.06651 ,1.72235 ,16.89973 
234 ,42.4275 ,1.06833 ,1.68813 ,16.56395 
235 ,42.6035 ,1.07002 ,1.70182 ,16.69826 
236 ,42.7958 ,1.07183 ,1.69155 ,16.59752 
237 ,42.9878 ,1.07390 ,1.65049 ,16.19458 
238 ,43.1638 ,1.07562 ,1.64022 ,16.09385 
239 ,43.3238 ,1.07731 ,1.63338 ,16.02669 
240 ,43.4999 ,1.07894 ,1.63680 ,16.06027 
241 ,43.6761 ,1.08076 ,1.60600 ,15.75807 
242 ,43.8522 ,1.08253 ,1.59231 ,15.62375 
243 ,44.0441 ,1.08445 ,1.57520 ,15.45586 
244 ,44.2202 ,1.08617 ,1.57178 ,15.42228 
245 ,44.3964 ,1.08799 ,1.54440 ,15.15366 
246 ,44.6042 ,1.08997 ,1.52729 ,14.98577 
247 ,44.7804 ,1.09177 ,1.52729 ,14.98577 
248 ,44.9565 ,1.09353 ,1.51360 ,14.85145 
249 ,45.1327 ,1.09532 ,1.49307 ,14.64998 
250 ,45.3084 ,1.09712 ,1.47253 ,14.44851 
251 ,45.5008 ,1.09891 ,1.47253 ,14.44851 
252 ,45.6928 ,1.10094 ,1.44858 ,14.21346 
253 ,45.8690 ,1.10271 ,1.41436 ,13.87768 
254 ,46.0451 ,1.10445 ,1.41778 ,13.91126 
255 ,46.2211 ,1.10620 ,1.40067 ,13.74337 
256 ,46.4288 ,1.10818 ,1.38014 ,13.54190 
257 ,46.6050 ,1.11005 ,1.36987 ,13.44116 
258 ,46.8134 ,1.11201 ,1.35618 ,13.30685 
259 ,47.0053 ,1.11401 ,1.32880 ,13.03822 
260 ,47.1815 ,1.11580 ,1.33907 ,13.13896 
261 ,47.3735 ,1.11765 ,1.32196 ,12.97107 
262 ,47.5335 ,1.11942 ,1.29800 ,12.73602 
263 ,47.7095 ,1.12105 ,1.27747 ,12.53455 
264 ,47.8857 ,1.12284 ,1.26720 ,12.43381 
265 ,48.0776 ,1.12480 ,1.27747 ,12.53455 
266 ,48.2539 ,1.12655 ,1.23983 ,12.16519 
267 ,48.4459 ,1.12843 ,1.22956 ,12.06445 
268 ,48.6380 ,1.13038 ,1.22614 ,12.03088 
269 ,48.8301 ,1.13226 ,1.20218 ,11.79583 
270 ,49.0062 ,1.13407 ,1.18507 ,11.62794 
271 ,49.2142 ,1.13603 ,1.18165 ,11.59436 
272 ,49.3902 ,1.13787 ,1.14401 ,11.22500 
273 ,49.5662 ,1.13968 ,1.13374 ,11.12426 
274 ,49.7585 ,1.14153 ,1.13716 ,11.15784 
275 ,49.9345 ,1.14331 ,1.12347 ,11.02353 
276 ,50.1106 ,1.14506 ,1.10294 ,10.82206 
277 ,50.2866 ,1.14681 ,1.07899 ,10.58701 
278 ,50.4628 ,1.14861 ,1.08925 ,10.68774 
279 ,50.6544 ,1.15057 ,1.05503 ,10.35196 
280 ,50.8310 ,1.15230 ,1.03450 ,10.15049 
281 ,51.0229 ,1.15419 ,1.04476 ,10.25123 
282 ,51.2311 ,1.15624 ,1.01054 ,9.91544 
283 ,51.4072 ,1.15804 ,1.00712 ,9.88186 
284 ,51.5992 ,1.15994 ,0.99685 ,9.78113 
285 ,51.7913 ,1.16183 ,0.96605 ,9.47892 
286 ,51.9834 ,1.16381 ,0.95921 ,9.41177 
287 ,52.1595 ,1.16558 ,0.94552 ,9.27745 
288 ,52.3354 ,1.16736 ,0.93525 ,9.17672 
289 ,52.5117 ,1.16905 ,0.91472 ,8.97525 
290 ,52.6876 ,1.17087 ,0.90103 ,8.84094 
291 ,52.8638 ,1.17260 ,0.89761 ,8.80736 
292 ,53.0558 ,1.17451 ,0.87708 ,8.60589 
293 ,53.2319 ,1.17628 ,0.86339 ,8.47158 
294 ,53.4079 ,1.17807 ,0.84286 ,8.27011 
295 ,53.5999 ,1.17992 ,0.84970 ,8.33726 
296 ,53.7757 ,1.18171 ,0.82575 ,8.10221 
297 ,53.9522 ,1.18351 ,0.81206 ,7.96790 
298 ,54.1443 ,1.18542 ,0.79495 ,7.80001 
299 ,54.3362 ,1.18728 ,0.77784 ,7.63212 
300 ,54.5124 ,1.18907 ,0.75730 ,7.43065 
301 ,54.7045 ,1.19097 ,0.76757 ,7.53138 
302 ,54.8966 ,1.19289 ,0.74361 ,7.29633 
303 ,55.0726 ,1.19464 ,0.72650 ,7.12844 
304 ,55.2489 ,1.19641 ,0.70255 ,6.89340 
305 ,55.4244 ,1.19821 ,0.69913 ,6.85982 
306 ,55.6167 ,1.20003 ,0.69228 ,6.79266 
307 ,55.8087 ,1.20200 ,0.67175 ,6.59119 
308 ,55.9850 ,1.20390 ,0.66833 ,6.55761 
309 ,56.1611 ,1.20559 ,0.65121 ,6.38972 
310 ,56.3372 ,1.20734 ,0.63753 ,6.25541 
311 ,56.4972 ,1.20903 ,0.61699 ,6.05394 
312 ,56.6732 ,1.21065 ,0.61357 ,6.02036 
313 ,56.8495 ,1.21241 ,0.58962 ,5.78531 
314 ,57.0415 ,1.21435 ,0.59646 ,5.85247 
315 ,57.2335 ,1.21617 ,0.56566 ,5.55026 
316 ,57.4096 ,1.21802 ,0.55882 ,5.48311 
317 ,57.5857 ,1.21984 ,0.54855 ,5.38237 
318 ,57.7618 ,1.22155 ,0.54513 ,5.34879 
319 ,57.9538 ,1.22346 ,0.51433 ,5.04659 
320 ,58.1295 ,1.22522 ,0.50748 ,4.97943 
321 ,58.3059 ,1.22699 ,0.49722 ,4.87870 
322 ,58.4979 ,1.22887 ,0.47326 ,4.64365 
323 ,58.6741 ,1.23064 ,0.46300 ,4.54291 
324 ,58.8504 ,1.23242 ,0.45957 ,4.50934 
325 ,59.0420 ,1.23435 ,0.45957 ,4.50934 
326 ,59.2184 ,1.23609 ,0.43220 ,4.24071 
327 ,59.4104 ,1.23808 ,0.41509 ,4.07282 
328 ,59.5865 ,1.23980 ,0.40482 ,3.97208 
329 ,59.7626 ,1.24155 ,0.41166 ,4.03924 
330 ,59.9386 ,1.24332 ,0.38086 ,3.73703 
331 ,60.1142 ,1.24500 ,0.36375 ,3.56914 
332 ,60.2908 ,1.24682 ,0.36375 ,3.56914 
333 ,60.4828 ,1.24883 ,0.33638 ,3.30052 
334 ,60.6590 ,1.25052 ,0.33638 ,3.30052 
335 ,60.8511 ,1.25236 ,0.32611 ,3.19978 
336 ,61.0428 ,1.25437 ,0.32269 ,3.16620 
337 ,61.2186 ,1.25612 ,0.30900 ,3.03189 
338 ,61.3948 ,1.25784 ,0.28847 ,2.83042 
339 ,61.5709 ,1.25965 ,0.26109 ,2.56179 
340 ,61.7470 ,1.26141 ,0.27478 ,2.69611 
341 ,61.9229 ,1.26315 ,0.25424 ,2.49464 
342 ,62.0994 ,1.26493 ,0.23029 ,2.25959 
343 ,62.2915 ,1.26683 ,0.22344 ,2.19243 
344 ,62.4834 ,1.26874 ,0.22687 ,2.22601 
345 ,62.6596 ,1.27051 ,0.20633 ,2.02454 
346 ,62.8358 ,1.27229 ,0.18580 ,1.82307 
347 ,63.0118 ,1.27414 ,0.18922 ,1.85665 
348 ,63.2038 ,1.27590 ,0.18238 ,1.78949 
349 ,63.3800 ,1.27766 ,0.17211 ,1.68876 
350 ,63.5721 ,1.27956 ,0.14473 ,1.42013 
351 ,63.7482 ,1.28140 ,0.14131 ,1.38655 
352 ,63.9403 ,1.28336 ,0.14131 ,1.38655 
353 ,64.1164 ,1.28504 ,0.11051 ,1.08435 
354 ,64.2922 ,1.28688 ,0.09340 ,0.91646 
355 ,64.4845 ,1.28873 ,0.10709 ,1.05077 
356 ,64.6763 ,1.29067 ,0.06945 ,0.68141 
357 ,64.8528 ,1.29244 ,0.06945 ,0.68141 
358 ,65.0605 ,1.29443 ,0.06602 ,0.64783 
359 ,65.2527 ,1.29645 ,0.03180 ,0.31205 
360 ,65.4288 ,1.29820 ,0.05576 ,0.54710 
361 ,65.6051 ,1.29997 ,0.03180 ,0.31205 
362 ,65.7969 ,1.30177 ,0.02838 ,0.27847 
363 ,65.9728 ,1.30370 ,0.01127 ,0.11058 
364 ,66.1650 ,1.30549 ,0.00443 ,0.04342 
365 ,66.3407 ,1.30734 ,-0.01611 ,-0.15805 
366 ,66.5011 ,1.30902 ,-0.02637 ,-0.25878 
367 ,66.6771 ,1.31068 ,-0.04006 ,-0.39310 
368 ,66.8535 ,1.31241 ,-0.05375 ,-0.52741 
369 ,67.0455 ,1.31439 ,-0.05375 ,-0.52741 
370 ,67.2216 ,1.31611 ,-0.05717 ,-0.56099 
371 ,67.4296 ,1.31814 ,-0.07086 ,-0.69530 
372 ,67.6056 ,1.31993 ,-0.09140 ,-0.89677 
373 ,67.7817 ,1.32173 ,-0.09482 ,-0.93035 
374 ,67.9739 ,1.32362 ,-0.10851 ,-1.06466 
375 ,68.1498 ,1.32541 ,-0.12219 ,-1.19898 
376 ,68.3259 ,1.32712 ,-0.10508 ,-1.03108 
377 ,68.5179 ,1.32898 ,-0.12904 ,-1.26613 
378 ,68.6940 ,1.33087 ,-0.15984 ,-1.56834 
379 ,68.8861 ,1.33273 ,-0.14615 ,-1.43402 
380 ,69.0777 ,1.33470 ,-0.17353 ,-1.70265 
381 ,69.2545 ,1.33645 ,-0.18037 ,-1.76981 
382 ,69.4304 ,1.33818 ,-0.19064 ,-1.87054 
383 ,69.6063 ,1.33995 ,-0.18722 ,-1.83696 
384 ,69.7827 ,1.34172 ,-0.20433 ,-2.00485 
385 ,69.9746 ,1.34365 ,-0.22486 ,-2.20632 
386 ,70.1507 ,1.34535 ,-0.22144 ,-2.17275 
387 ,70.3267 ,1.34713 ,-0.23513 ,-2.30706 
388 ,70.5030 ,1.34894 ,-0.23513 ,-2.30706 
389 ,70.6786 ,1.35070 ,-0.25566 ,-2.50853 
390 ,70.8551 ,1.35242 ,-0.26250 ,-2.57569 
391 ,71.0632 ,1.35448 ,-0.27277 ,-2.67642 
392 ,71.2391 ,1.35628 ,-0.27619 ,-2.71000 
393 ,71.4153 ,1.35800 ,-0.29673 ,-2.91147 
394 ,71.5913 ,1.35980 ,-0.30357 ,-2.97863 
395 ,71.7510 ,1.36150 ,-0.30699 ,-3.01220 
396 ,71.9274 ,1.36315 ,-0.31041 ,-3.04578 
397 ,72.1192 ,1.36510 ,-0.31384 ,-3.07936 
398 ,72.3117 ,1.36698 ,-0.33437 ,-3.28083 
399 ,72.4877 ,1.36881 ,-0.33779 ,-3.31441 
400 ,72.6638 ,1.37054 ,-0.34464 ,-3.38156 
401 ,72.8398 ,1.37233 ,-0.35148 ,-3.44872 
402 ,73.0158 ,1.37401 ,-0.37544 ,-3.68377 
403 ,73.2079 ,1.37587 ,-0.38912 ,-3.81808 
404 ,73.4161 ,1.37802 ,-0.40623 ,-3.98597 
405 ,73.5921 ,1.37981 ,-0.40966 ,-4.01955 
406 ,73.7679 ,1.38153 ,-0.40966 ,-4.01955 
407 ,73.9600 ,1.38345 ,-0.43703 ,-4.28818 
408 ,74.1680 ,1.38549 ,-0.41992 ,-4.12029 
409 ,74.3281 ,1.38726 ,-0.42677 ,-4.18744 
410 ,74.5042 ,1.38888 ,-0.44046 ,-4.32176 
411 ,74.6966 ,1.39084 ,-0.46783 ,-4.59038 
412 ,74.8727 ,1.39261 ,-0.46441 ,-4.55681 
413 ,75.0647 ,1.39443 ,-0.46099 ,-4.52323 
414 ,75.2886 ,1.39660 ,-0.49521 ,-4.85901 
415 ,75.4648 ,1.39845 ,-0.48152 ,-4.72470 
416 ,75.6410 ,1.40030 ,-0.51574 ,-5.06048 
417 ,75.8170 ,1.40199 ,-0.51574 ,-5.06048 
418 ,75.9929 ,1.40377 ,-0.52943 ,-5.19479 
419 ,76.1689 ,1.40559 ,-0.53285 ,-5.22837 
420 ,76.3454 ,1.40733 ,-0.53285 ,-5.22837 
421 ,76.5372 ,1.40914 ,-0.54654 ,-5.36268 
422 ,76.7131 ,1.41105 ,-0.57050 ,-5.59773 
423 ,76.8895 ,1.41272 ,-0.57050 ,-5.59773 
424 ,77.0817 ,1.41470 ,-0.58077 ,-5.69847 
425 ,77.2736 ,1.41658 ,-0.59103 ,-5.79920 
426 ,77.4498 ,1.41830 ,-0.59788 ,-5.86636 
427 ,77.6417 ,1.42029 ,-0.60472 ,-5.93352 
428 ,77.8175 ,1.42204 ,-0.61841 ,-6.06783 
429 ,77.9939 ,1.42377 ,-0.63210 ,-6.20214 
430 ,78.1699 ,1.42555 ,-0.63552 ,-6.23572 
431 ,78.3461 ,1.42734 ,-0.63894 ,-6.26930 
432 ,78.5221 ,1.42903 ,-0.66290 ,-6.50435 
433 ,78.6982 ,1.43082 ,-0.66290 ,-6.50435 
434 ,78.8744 ,1.43260 ,-0.66974 ,-6.57150 
435 ,79.0502 ,1.43438 ,-0.66290 ,-6.50435 
436 ,79.2265 ,1.43610 ,-0.67316 ,-6.60508 
437 ,79.4185 ,1.43804 ,-0.70054 ,-6.87371 
438 ,79.6107 ,1.43982 ,-0.71423 ,-7.00802 
439 ,79.7867 ,1.44174 ,-0.70396 ,-6.90729 
440 ,79.9628 ,1.44345 ,-0.71423 ,-7.00802 
441 ,80.1387 ,1.44525 ,-0.74161 ,-7.27665 
442 ,80.3310 ,1.44712 ,-0.72450 ,-7.10876 
443 ,80.5228 ,1.44910 ,-0.75187 ,-7.37738 
444 ,80.6990 ,1.45084 ,-0.75530 ,-7.41096 
445 ,80.8753 ,1.45260 ,-0.77583 ,-7.61243 
446 ,81.0673 ,1.45452 ,-0.77241 ,-7.57885 
447 ,81.2429 ,1.45629 ,-0.77241 ,-7.57885 
448 ,81.4194 ,1.45801 ,-0.79978 ,-7.84748 
449 ,81.5953 ,1.45982 ,-0.79978 ,-7.84748 
450 ,81.7876 ,1.46170 ,-0.80321 ,-7.88106 
451 ,81.9797 ,1.46353 ,-0.82716 ,-8.11611 
452 ,82.1716 ,1.46559 ,-0.82032 ,-8.04895 
453 ,82.3317 ,1.46726 ,-0.82716 ,-8.11611 
454 ,82.5077 ,1.46890 ,-0.84085 ,-8.25042 
455 ,82.6839 ,1.47072 ,-0.85454 ,-8.38473 
456 ,82.8759 ,1.47253 ,-0.85112 ,-8.35115 
457 ,83.0520 ,1.47435 ,-0.86481 ,-8.48547 
458 ,83.2280 ,1.47608 ,-0.86823 ,-8.51904 
459 ,83.4202 ,1.47812 ,-0.87507 ,-8.58620 
460 ,83.6122 ,1.47991 ,-0.88192 ,-8.65336 
461 ,83.7883 ,1.48168 ,-0.89903 ,-8.82125 
462 ,83.9642 ,1.48352 ,-0.91272 ,-8.95556 
463 ,84.1402 ,1.48528 ,-0.92640 ,-9.08988 
