Data stamp = , 31-03-2022 23:08:38 184

Calibration Values: 
Slope = , 26.54 , g/V 
Offset Voltage at no contact = , -0.501760 , V 

No , Time , Stage Position ,   Mass , Force 
   ,  (s) ,      (mm)      ,   (g)  , (mN)  

1 ,0.0000 ,0.69945 ,5.03501 ,49.40352 
2 ,0.2310 ,0.69951 ,5.04185 ,49.47068 
3 ,0.5514 ,0.70040 ,5.01790 ,49.23563 
4 ,0.7434 ,0.70186 ,5.02474 ,49.30279 
5 ,0.9350 ,0.70349 ,5.03159 ,49.36995 
6 ,1.1116 ,0.70527 ,5.03159 ,49.36995 
7 ,1.2877 ,0.70694 ,5.02132 ,49.26921 
8 ,1.4798 ,0.70882 ,5.00763 ,49.13490 
9 ,1.6718 ,0.71092 ,5.01448 ,49.20205 
10 ,1.8479 ,0.71272 ,4.99737 ,49.03416 
11 ,2.0399 ,0.71457 ,4.98710 ,48.93343 
12 ,2.2321 ,0.71656 ,4.98710 ,48.93343 
13 ,2.4078 ,0.71833 ,4.95972 ,48.66480 
14 ,2.5841 ,0.72002 ,4.93919 ,48.46333 
15 ,2.7602 ,0.72175 ,4.93235 ,48.39618 
16 ,2.9361 ,0.72357 ,4.92892 ,48.36260 
17 ,3.1283 ,0.72545 ,4.90155 ,48.09397 
18 ,3.3204 ,0.72729 ,4.88786 ,47.95966 
19 ,3.4967 ,0.72919 ,4.88101 ,47.89250 
20 ,3.6886 ,0.73102 ,4.83995 ,47.48956 
21 ,3.8647 ,0.73286 ,4.82968 ,47.38883 
22 ,4.0404 ,0.73456 ,4.82626 ,47.35525 
23 ,4.2169 ,0.73634 ,4.81941 ,47.28809 
24 ,4.4089 ,0.73831 ,4.78861 ,46.98589 
25 ,4.5848 ,0.74004 ,4.76808 ,46.78442 
26 ,4.7771 ,0.74193 ,4.76124 ,46.71726 
27 ,4.9689 ,0.74391 ,4.74070 ,46.51579 
28 ,5.1450 ,0.74557 ,4.72017 ,46.31432 
29 ,5.3213 ,0.74742 ,4.69622 ,46.07927 
30 ,5.5138 ,0.74927 ,4.68595 ,45.97854 
31 ,5.7053 ,0.75118 ,4.66542 ,45.77707 
32 ,5.8814 ,0.75306 ,4.64488 ,45.57560 
33 ,6.0736 ,0.75494 ,4.62093 ,45.34055 
34 ,6.2495 ,0.75670 ,4.60724 ,45.20624 
35 ,6.4578 ,0.75872 ,4.59355 ,45.07192 
36 ,6.6336 ,0.76054 ,4.56617 ,44.80330 
37 ,6.8258 ,0.76243 ,4.52853 ,44.43394 
38 ,7.0176 ,0.76433 ,4.53537 ,44.50109 
39 ,7.1936 ,0.76609 ,4.50115 ,44.16531 
40 ,7.3700 ,0.76788 ,4.49773 ,44.13173 
41 ,7.5459 ,0.76963 ,4.46009 ,43.76237 
42 ,7.7222 ,0.77141 ,4.43613 ,43.52732 
43 ,7.9142 ,0.77331 ,4.44982 ,43.66163 
44 ,8.0743 ,0.77503 ,4.42244 ,43.39301 
45 ,8.2500 ,0.77672 ,4.38822 ,43.05723 
46 ,8.4265 ,0.77845 ,4.37795 ,42.95649 
47 ,8.6023 ,0.78020 ,4.35400 ,42.72144 
48 ,8.7787 ,0.78198 ,4.34031 ,42.58713 
49 ,8.9704 ,0.78383 ,4.32320 ,42.41924 
50 ,9.1466 ,0.78559 ,4.30951 ,42.28492 
51 ,9.3226 ,0.78739 ,4.28556 ,42.04988 
52 ,9.5310 ,0.78934 ,4.28898 ,42.08345 
53 ,9.7226 ,0.79138 ,4.24791 ,41.68051 
54 ,9.8830 ,0.79307 ,4.23422 ,41.54620 
55 ,10.0591 ,0.79475 ,4.21711 ,41.37831 
56 ,10.2352 ,0.79654 ,4.21369 ,41.34473 
57 ,10.4109 ,0.79832 ,4.20685 ,41.27758 
58 ,10.5873 ,0.80002 ,4.17605 ,40.97537 
59 ,10.7794 ,0.80196 ,4.15551 ,40.77390 
60 ,10.9555 ,0.80373 ,4.14525 ,40.67317 
61 ,11.1315 ,0.80549 ,4.13840 ,40.60601 
62 ,11.3074 ,0.80719 ,4.11103 ,40.33738 
63 ,11.4833 ,0.80899 ,4.08365 ,40.06876 
64 ,11.6595 ,0.81078 ,4.07338 ,39.96802 
65 ,11.8518 ,0.81266 ,4.06996 ,39.93444 
66 ,12.0437 ,0.81454 ,4.02547 ,39.49793 
67 ,12.2359 ,0.81654 ,4.02205 ,39.46435 
68 ,12.4121 ,0.81832 ,4.01520 ,39.39719 
69 ,12.6201 ,0.82025 ,3.99125 ,39.16214 
70 ,12.8121 ,0.82218 ,3.98098 ,39.06141 
71 ,13.0040 ,0.82423 ,3.94334 ,38.69205 
72 ,13.1802 ,0.82592 ,3.92623 ,38.52415 
73 ,13.3565 ,0.82775 ,3.91254 ,38.38984 
74 ,13.5324 ,0.82948 ,3.90570 ,38.32268 
75 ,13.7245 ,0.83136 ,3.87147 ,37.98690 
76 ,13.9168 ,0.83327 ,3.86121 ,37.88617 
77 ,14.0927 ,0.83511 ,3.85094 ,37.78543 
78 ,14.2686 ,0.83681 ,3.82014 ,37.48323 
79 ,14.4609 ,0.83868 ,3.80303 ,37.31534 
80 ,14.6369 ,0.84056 ,3.77908 ,37.08029 
81 ,14.8133 ,0.84228 ,3.78250 ,37.11387 
82 ,15.0050 ,0.84425 ,3.74828 ,36.77808 
83 ,15.1812 ,0.84594 ,3.73117 ,36.61019 
84 ,15.3732 ,0.84787 ,3.73117 ,36.61019 
85 ,15.5813 ,0.84987 ,3.70037 ,36.30799 
86 ,15.7575 ,0.85169 ,3.68325 ,36.14010 
87 ,15.9656 ,0.85369 ,3.66272 ,35.93863 
88 ,16.1576 ,0.85573 ,3.65246 ,35.83789 
89 ,16.3337 ,0.85744 ,3.63877 ,35.70358 
90 ,16.5097 ,0.85921 ,3.61823 ,35.50211 
91 ,16.6857 ,0.86105 ,3.59086 ,35.23348 
92 ,16.8619 ,0.86280 ,3.57375 ,35.06559 
93 ,17.0859 ,0.86484 ,3.54979 ,34.83054 
94 ,17.2621 ,0.86678 ,3.53268 ,34.66265 
95 ,17.4537 ,0.86865 ,3.52584 ,34.59549 
96 ,17.6302 ,0.87039 ,3.50530 ,34.39402 
97 ,17.8061 ,0.87222 ,3.48819 ,34.22613 
98 ,17.9824 ,0.87399 ,3.46081 ,33.95751 
99 ,18.1744 ,0.87592 ,3.45055 ,33.85677 
100 ,18.3665 ,0.87767 ,3.43001 ,33.65530 
101 ,18.5426 ,0.87958 ,3.41633 ,33.52099 
102 ,18.7188 ,0.88133 ,3.38210 ,33.18520 
103 ,18.9104 ,0.88321 ,3.38895 ,33.25236 
104 ,19.0868 ,0.88501 ,3.35130 ,32.88300 
105 ,19.2788 ,0.88689 ,3.33762 ,32.74869 
106 ,19.4550 ,0.88872 ,3.32051 ,32.58080 
107 ,19.6310 ,0.89046 ,3.32051 ,32.58080 
108 ,19.8071 ,0.89218 ,3.29313 ,32.31217 
109 ,19.9831 ,0.89396 ,3.26917 ,32.07712 
110 ,20.1590 ,0.89570 ,3.25206 ,31.90923 
111 ,20.3353 ,0.89750 ,3.24864 ,31.87565 
112 ,20.5112 ,0.89927 ,3.22811 ,31.67418 
113 ,20.6875 ,0.90100 ,3.21100 ,31.50629 
114 ,20.8636 ,0.90280 ,3.18362 ,31.23766 
115 ,21.0392 ,0.90449 ,3.16651 ,31.06977 
116 ,21.2156 ,0.90624 ,3.16309 ,31.03619 
117 ,21.3917 ,0.90800 ,3.14597 ,30.86830 
118 ,21.5838 ,0.90988 ,3.12202 ,30.63325 
119 ,21.7595 ,0.91172 ,3.09806 ,30.39821 
120 ,21.9356 ,0.91346 ,3.09806 ,30.39821 
121 ,22.1117 ,0.91523 ,3.09464 ,30.36463 
122 ,22.2881 ,0.91698 ,3.05700 ,29.99527 
123 ,22.4638 ,0.91877 ,3.05015 ,29.92811 
124 ,22.6403 ,0.92048 ,3.02620 ,29.69306 
125 ,22.8163 ,0.92231 ,3.01593 ,29.59233 
126 ,22.9924 ,0.92400 ,3.00224 ,29.45801 
127 ,23.1682 ,0.92578 ,2.98513 ,29.29012 
128 ,23.3445 ,0.92753 ,2.95433 ,28.98792 
129 ,23.5207 ,0.92935 ,2.93722 ,28.82003 
130 ,23.7128 ,0.93117 ,2.93380 ,28.78645 
131 ,23.8888 ,0.93297 ,2.91327 ,28.58498 
132 ,24.0809 ,0.93488 ,2.89958 ,28.45066 
133 ,24.2728 ,0.93681 ,2.89273 ,28.38351 
134 ,24.4810 ,0.93890 ,2.86193 ,28.08130 
135 ,24.6569 ,0.94071 ,2.85167 ,27.98057 
136 ,24.8331 ,0.94244 ,2.84140 ,27.87983 
137 ,25.0252 ,0.94439 ,2.81402 ,27.61121 
138 ,25.2009 ,0.94620 ,2.80376 ,27.51047 
139 ,25.3773 ,0.94786 ,2.77296 ,27.20827 
140 ,25.5694 ,0.94983 ,2.77980 ,27.27542 
141 ,25.7455 ,0.95157 ,2.74558 ,26.93964 
142 ,25.9214 ,0.95330 ,2.72847 ,26.77175 
143 ,26.0976 ,0.95508 ,2.72163 ,26.70459 
144 ,26.2734 ,0.95681 ,2.71478 ,26.63744 
145 ,26.4498 ,0.95862 ,2.69767 ,26.46954 
146 ,26.6414 ,0.96060 ,2.68740 ,26.36881 
147 ,26.8014 ,0.96223 ,2.66687 ,26.16734 
148 ,26.9777 ,0.96385 ,2.66003 ,26.10018 
149 ,27.1858 ,0.96592 ,2.62923 ,25.79798 
150 ,27.3941 ,0.96786 ,2.62581 ,25.76440 
151 ,27.5698 ,0.96980 ,2.59501 ,25.46220 
152 ,27.7462 ,0.97152 ,2.58474 ,25.36146 
153 ,27.9223 ,0.97330 ,2.57105 ,25.22715 
154 ,28.0984 ,0.97505 ,2.57105 ,25.22715 
155 ,28.2903 ,0.97691 ,2.55394 ,25.05926 
156 ,28.4665 ,0.97873 ,2.51972 ,24.72347 
157 ,28.6586 ,0.98063 ,2.50945 ,24.62274 
158 ,28.8668 ,0.98261 ,2.48550 ,24.38769 
159 ,29.0428 ,0.98455 ,2.46496 ,24.18622 
160 ,29.2188 ,0.98626 ,2.45470 ,24.08549 
161 ,29.3949 ,0.98805 ,2.45470 ,24.08549 
162 ,29.5710 ,0.98983 ,2.44785 ,24.01833 
163 ,29.7789 ,0.99182 ,2.43416 ,23.88402 
164 ,29.9710 ,0.99372 ,2.42048 ,23.74970 
165 ,30.1471 ,0.99554 ,2.38968 ,23.44750 
166 ,30.3233 ,0.99729 ,2.36914 ,23.24603 
167 ,30.5313 ,0.99930 ,2.35545 ,23.11171 
168 ,30.7075 ,1.00117 ,2.34177 ,22.97740 
169 ,30.9156 ,1.00315 ,2.33492 ,22.91024 
170 ,31.0912 ,1.00497 ,2.31439 ,22.70877 
171 ,31.2677 ,1.00676 ,2.29728 ,22.54088 
172 ,31.4757 ,1.00875 ,2.27674 ,22.33941 
173 ,31.6516 ,1.01058 ,2.28359 ,22.40657 
174 ,31.8279 ,1.01239 ,2.24937 ,22.07079 
175 ,32.0202 ,1.01427 ,2.24252 ,22.00363 
176 ,32.2120 ,1.01622 ,2.23226 ,21.90290 
177 ,32.3881 ,1.01796 ,2.20488 ,21.63427 
178 ,32.5640 ,1.01969 ,2.18092 ,21.39922 
179 ,32.7563 ,1.02162 ,2.18777 ,21.46638 
180 ,32.9484 ,1.02360 ,2.17408 ,21.33206 
181 ,33.1244 ,1.02533 ,2.14670 ,21.06344 
182 ,33.3165 ,1.02724 ,2.13986 ,20.99628 
183 ,33.5086 ,1.02908 ,2.13644 ,20.96270 
184 ,33.6843 ,1.03097 ,2.10221 ,20.62692 
185 ,33.8606 ,1.03266 ,2.08852 ,20.49261 
186 ,34.0367 ,1.03444 ,2.08852 ,20.49261 
187 ,34.2131 ,1.03622 ,2.07141 ,20.32472 
188 ,34.4208 ,1.03819 ,2.04061 ,20.02251 
189 ,34.5969 ,1.04002 ,2.03719 ,19.98893 
190 ,34.7568 ,1.04173 ,2.03377 ,19.95535 
191 ,34.9331 ,1.04339 ,2.03377 ,19.95535 
192 ,35.1089 ,1.04517 ,1.99270 ,19.55241 
193 ,35.2852 ,1.04690 ,1.98244 ,19.45168 
194 ,35.4613 ,1.04864 ,1.95848 ,19.21663 
195 ,35.6854 ,1.05068 ,1.95848 ,19.21663 
196 ,35.8614 ,1.05268 ,1.94137 ,19.04874 
197 ,36.0536 ,1.05460 ,1.93453 ,18.98158 
198 ,36.2295 ,1.05636 ,1.90373 ,18.67938 
199 ,36.4218 ,1.05819 ,1.88319 ,18.47791 
200 ,36.6137 ,1.06018 ,1.88662 ,18.51149 
201 ,36.7898 ,1.06198 ,1.86266 ,18.27644 
202 ,36.9660 ,1.06374 ,1.83871 ,18.04139 
203 ,37.1418 ,1.06559 ,1.82502 ,17.90708 
204 ,37.3180 ,1.06724 ,1.81817 ,17.83992 
205 ,37.4941 ,1.06897 ,1.80791 ,17.73919 
206 ,37.6861 ,1.07094 ,1.78395 ,17.50414 
207 ,37.8621 ,1.07272 ,1.77711 ,17.43698 
208 ,38.0544 ,1.07452 ,1.76684 ,17.33625 
209 ,38.2624 ,1.07657 ,1.73946 ,17.06762 
210 ,38.4385 ,1.07846 ,1.73604 ,17.03404 
211 ,38.6145 ,1.08018 ,1.72920 ,16.96689 
212 ,38.7907 ,1.08194 ,1.71209 ,16.79899 
213 ,38.9503 ,1.08369 ,1.67786 ,16.46321 
214 ,39.1266 ,1.08530 ,1.66075 ,16.29532 
215 ,39.3190 ,1.08715 ,1.65733 ,16.26174 
216 ,39.5108 ,1.08917 ,1.63680 ,16.06027 
217 ,39.6869 ,1.09094 ,1.62653 ,15.95954 
218 ,39.8631 ,1.09266 ,1.59916 ,15.69091 
219 ,40.0390 ,1.09442 ,1.60600 ,15.75807 
220 ,40.1990 ,1.09613 ,1.60258 ,15.72449 
221 ,40.3912 ,1.09798 ,1.58547 ,15.55660 
222 ,40.5672 ,1.09971 ,1.54440 ,15.15366 
223 ,40.7593 ,1.10161 ,1.54782 ,15.18724 
224 ,40.9514 ,1.10349 ,1.54440 ,15.15366 
225 ,41.1436 ,1.10548 ,1.50333 ,14.75072 
226 ,41.3355 ,1.10741 ,1.49991 ,14.71714 
227 ,41.5117 ,1.10917 ,1.49649 ,14.68356 
228 ,41.7037 ,1.11108 ,1.45542 ,14.28062 
229 ,41.8798 ,1.11280 ,1.46569 ,14.38136 
230 ,42.0876 ,1.11488 ,1.43489 ,14.07915 
231 ,42.2636 ,1.11663 ,1.41094 ,13.84410 
232 ,42.4395 ,1.11843 ,1.41094 ,13.84410 
233 ,42.6162 ,1.12020 ,1.39725 ,13.70979 
234 ,42.8241 ,1.12227 ,1.36303 ,13.37401 
235 ,43.0166 ,1.12420 ,1.37329 ,13.47474 
236 ,43.2083 ,1.12624 ,1.34249 ,13.17254 
237 ,43.4005 ,1.12802 ,1.33565 ,13.10538 
238 ,43.5765 ,1.12978 ,1.31854 ,12.93749 
239 ,43.7526 ,1.13156 ,1.31512 ,12.90391 
240 ,43.9287 ,1.13335 ,1.28432 ,12.60171 
241 ,44.1047 ,1.13510 ,1.27063 ,12.46739 
242 ,44.2808 ,1.13679 ,1.27063 ,12.46739 
243 ,44.4566 ,1.13866 ,1.25352 ,12.29950 
244 ,44.6489 ,1.14048 ,1.21929 ,11.96372 
245 ,44.8248 ,1.14226 ,1.20218 ,11.79583 
246 ,45.0169 ,1.14414 ,1.22272 ,11.99730 
247 ,45.1931 ,1.14595 ,1.19876 ,11.76225 
248 ,45.3692 ,1.14766 ,1.17823 ,11.56078 
249 ,45.5613 ,1.14960 ,1.16112 ,11.39289 
250 ,45.7374 ,1.15140 ,1.15770 ,11.35931 
251 ,45.9136 ,1.15319 ,1.13374 ,11.12426 
252 ,46.1055 ,1.15511 ,1.11321 ,10.92279 
253 ,46.2972 ,1.15689 ,1.07899 ,10.58701 
254 ,46.4737 ,1.15877 ,1.08583 ,10.65416 
255 ,46.6499 ,1.16051 ,1.05161 ,10.31838 
256 ,46.8257 ,1.16227 ,1.05161 ,10.31838 
257 ,47.0337 ,1.16428 ,1.04476 ,10.25123 
258 ,47.2259 ,1.16628 ,1.02081 ,10.01618 
259 ,47.4019 ,1.16807 ,1.01396 ,9.94902 
260 ,47.5780 ,1.16979 ,1.00712 ,9.88186 
261 ,47.7540 ,1.17153 ,0.99001 ,9.71397 
262 ,47.9463 ,1.17352 ,0.95237 ,9.34461 
263 ,48.1383 ,1.17542 ,0.95921 ,9.41177 
264 ,48.3304 ,1.17734 ,0.93868 ,9.21030 
265 ,48.5228 ,1.17924 ,0.91814 ,9.00883 
266 ,48.7305 ,1.18126 ,0.90103 ,8.84094 
267 ,48.9067 ,1.18308 ,0.88734 ,8.70662 
268 ,49.1147 ,1.18510 ,0.88050 ,8.63947 
269 ,49.2908 ,1.18690 ,0.86339 ,8.47158 
270 ,49.4504 ,1.18861 ,0.84628 ,8.30368 
271 ,49.6270 ,1.19027 ,0.83259 ,8.16937 
272 ,49.8189 ,1.19224 ,0.83601 ,8.20295 
273 ,50.0113 ,1.19410 ,0.79837 ,7.83359 
274 ,50.1711 ,1.19585 ,0.79152 ,7.76643 
275 ,50.3473 ,1.19751 ,0.77441 ,7.59854 
276 ,50.5229 ,1.19925 ,0.78468 ,7.69927 
277 ,50.6994 ,1.20098 ,0.77441 ,7.59854 
278 ,50.8754 ,1.20276 ,0.76072 ,7.46423 
279 ,51.0516 ,1.20455 ,0.73677 ,7.22918 
280 ,51.2274 ,1.20627 ,0.71966 ,7.06129 
281 ,51.4196 ,1.20807 ,0.69913 ,6.85982 
282 ,51.5954 ,1.20993 ,0.70255 ,6.89340 
283 ,51.7875 ,1.21187 ,0.68201 ,6.69193 
284 ,51.9799 ,1.21381 ,0.66490 ,6.52403 
285 ,52.1718 ,1.21579 ,0.64095 ,6.28899 
286 ,52.3480 ,1.21750 ,0.63068 ,6.18825 
287 ,52.5240 ,1.21926 ,0.62042 ,6.08752 
288 ,52.7002 ,1.22107 ,0.61699 ,6.05394 
289 ,52.8762 ,1.22273 ,0.61357 ,6.02036 
290 ,53.0524 ,1.22452 ,0.58619 ,5.75173 
291 ,53.2284 ,1.22626 ,0.56908 ,5.58384 
292 ,53.4206 ,1.22808 ,0.57251 ,5.61742 
293 ,53.5965 ,1.22994 ,0.56566 ,5.55026 
294 ,53.7726 ,1.23168 ,0.53828 ,5.28164 
295 ,53.9488 ,1.23349 ,0.50748 ,4.97943 
296 ,54.1409 ,1.23541 ,0.52459 ,5.14732 
297 ,54.3169 ,1.23720 ,0.50748 ,4.97943 
298 ,54.4928 ,1.23889 ,0.47326 ,4.64365 
299 ,54.6691 ,1.24072 ,0.46300 ,4.54291 
300 ,54.8610 ,1.24258 ,0.46984 ,4.61007 
301 ,55.0532 ,1.24449 ,0.44931 ,4.40860 
302 ,55.2292 ,1.24628 ,0.42535 ,4.17355 
303 ,55.4216 ,1.24816 ,0.42193 ,4.13997 
304 ,55.5975 ,1.25000 ,0.41509 ,4.07282 
305 ,55.7736 ,1.25173 ,0.39455 ,3.87135 
306 ,55.9496 ,1.25351 ,0.37402 ,3.66988 
307 ,56.1416 ,1.25542 ,0.36718 ,3.60272 
308 ,56.3176 ,1.25713 ,0.35691 ,3.50199 
309 ,56.4938 ,1.25892 ,0.33980 ,3.33410 
310 ,56.6699 ,1.26064 ,0.31926 ,3.13263 
311 ,56.8457 ,1.26245 ,0.32269 ,3.16620 
312 ,57.0223 ,1.26421 ,0.31926 ,3.13263 
313 ,57.2301 ,1.26621 ,0.28504 ,2.79684 
314 ,57.4059 ,1.26802 ,0.28162 ,2.76326 
315 ,57.5820 ,1.26979 ,0.28504 ,2.79684 
316 ,57.7583 ,1.27151 ,0.26793 ,2.62895 
317 ,57.9341 ,1.27332 ,0.25424 ,2.49464 
318 ,58.1107 ,1.27513 ,0.22344 ,2.19243 
319 ,58.3026 ,1.27701 ,0.22344 ,2.19243 
320 ,58.4786 ,1.27876 ,0.21660 ,2.12528 
321 ,58.6547 ,1.28052 ,0.20291 ,1.99096 
322 ,58.8308 ,1.28226 ,0.17896 ,1.75592 
323 ,59.0065 ,1.28409 ,0.16869 ,1.65518 
324 ,59.1830 ,1.28584 ,0.18238 ,1.78949 
325 ,59.3751 ,1.28772 ,0.15842 ,1.55445 
326 ,59.5511 ,1.28950 ,0.13105 ,1.28582 
327 ,59.7269 ,1.29122 ,0.14131 ,1.38655 
328 ,59.9031 ,1.29298 ,0.13105 ,1.28582 
329 ,60.0953 ,1.29491 ,0.10709 ,1.05077 
330 ,60.2712 ,1.29663 ,0.08998 ,0.88288 
331 ,60.4635 ,1.29862 ,0.10025 ,0.98361 
332 ,60.6554 ,1.30052 ,0.06602 ,0.64783 
333 ,60.8315 ,1.30228 ,0.05234 ,0.51352 
334 ,61.0077 ,1.30402 ,0.05576 ,0.54710 
335 ,61.1837 ,1.30581 ,0.05234 ,0.51352 
336 ,61.3597 ,1.30757 ,0.03865 ,0.37920 
337 ,61.5359 ,1.30935 ,0.01469 ,0.14416 
338 ,61.7120 ,1.31112 ,0.00100 ,0.00984 
339 ,61.8879 ,1.31281 ,0.00785 ,0.07700 
340 ,62.0801 ,1.31463 ,0.00785 ,0.07700 
341 ,62.2720 ,1.31671 ,-0.03322 ,-0.32594 
342 ,62.4481 ,1.31846 ,-0.02980 ,-0.29236 
343 ,62.6243 ,1.32018 ,-0.03322 ,-0.32594 
344 ,62.8005 ,1.32197 ,-0.03664 ,-0.35952 
345 ,62.9764 ,1.32369 ,-0.06402 ,-0.62814 
346 ,63.1526 ,1.32547 ,-0.06744 ,-0.66172 
347 ,63.3444 ,1.32738 ,-0.07086 ,-0.69530 
348 ,63.5367 ,1.32932 ,-0.09140 ,-0.89677 
349 ,63.7284 ,1.33116 ,-0.11193 ,-1.09824 
350 ,63.9046 ,1.33299 ,-0.09824 ,-0.96393 
351 ,64.1126 ,1.33500 ,-0.13246 ,-1.29971 
352 ,64.2885 ,1.33684 ,-0.13246 ,-1.29971 
353 ,64.4811 ,1.33863 ,-0.12904 ,-1.26613 
354 ,64.6571 ,1.34056 ,-0.15984 ,-1.56834 
355 ,64.8492 ,1.34247 ,-0.17353 ,-1.70265 
356 ,65.0413 ,1.34433 ,-0.17011 ,-1.66907 
357 ,65.2176 ,1.34613 ,-0.17695 ,-1.73623 
358 ,65.3934 ,1.34802 ,-0.19064 ,-1.87054 
359 ,65.5692 ,1.34962 ,-0.21117 ,-2.07201 
360 ,65.7455 ,1.35137 ,-0.20775 ,-2.03843 
361 ,65.9216 ,1.35318 ,-0.21802 ,-2.13917 
362 ,66.0978 ,1.35490 ,-0.23170 ,-2.27348 
363 ,66.3058 ,1.35684 ,-0.24539 ,-2.40779 
364 ,66.4818 ,1.35873 ,-0.25566 ,-2.50853 
365 ,66.6740 ,1.36070 ,-0.26593 ,-2.60926 
366 ,66.8660 ,1.36258 ,-0.26593 ,-2.60926 
367 ,67.0581 ,1.36453 ,-0.28304 ,-2.77716 
368 ,67.2501 ,1.36643 ,-0.29673 ,-2.91147 
369 ,67.4261 ,1.36819 ,-0.30015 ,-2.94505 
370 ,67.6180 ,1.37009 ,-0.32752 ,-3.21367 
371 ,67.7944 ,1.37181 ,-0.33095 ,-3.24725 
372 ,67.9863 ,1.37386 ,-0.33779 ,-3.31441 
373 ,68.1626 ,1.37552 ,-0.34464 ,-3.38156 
374 ,68.3546 ,1.37746 ,-0.36517 ,-3.58303 
375 ,68.5306 ,1.37929 ,-0.36175 ,-3.54946 
376 ,68.7067 ,1.38098 ,-0.36517 ,-3.58303 
377 ,68.8828 ,1.38278 ,-0.37886 ,-3.71735 
378 ,69.0589 ,1.38453 ,-0.39255 ,-3.85166 
379 ,69.2348 ,1.38628 ,-0.40623 ,-3.98597 
380 ,69.4112 ,1.38806 ,-0.41308 ,-4.05313 
381 ,69.6031 ,1.38994 ,-0.42677 ,-4.18744 
382 ,69.7792 ,1.39170 ,-0.43703 ,-4.28818 
383 ,69.9713 ,1.39358 ,-0.43703 ,-4.28818 
384 ,70.1474 ,1.39539 ,-0.45072 ,-4.42249 
385 ,70.3232 ,1.39713 ,-0.45757 ,-4.48965 
386 ,70.4995 ,1.39890 ,-0.47810 ,-4.69112 
387 ,70.6755 ,1.40061 ,-0.48837 ,-4.79185 
388 ,70.8836 ,1.40261 ,-0.49179 ,-4.82543 
389 ,71.0597 ,1.40454 ,-0.51232 ,-5.02690 
390 ,71.2834 ,1.40660 ,-0.50548 ,-4.95975 
391 ,71.4597 ,1.40852 ,-0.51917 ,-5.09406 
392 ,71.6358 ,1.41027 ,-0.53970 ,-5.29553 
393 ,71.8280 ,1.41214 ,-0.51917 ,-5.09406 
394 ,72.0359 ,1.41419 ,-0.55681 ,-5.46342 
395 ,72.2122 ,1.41603 ,-0.54654 ,-5.36268 
396 ,72.4043 ,1.41794 ,-0.56023 ,-5.49700 
397 ,72.5803 ,1.41973 ,-0.57734 ,-5.66489 
398 ,72.7404 ,1.42144 ,-0.58419 ,-5.73205 
399 ,72.9162 ,1.42307 ,-0.59788 ,-5.86636 
400 ,73.1086 ,1.42489 ,-0.59445 ,-5.83278 
401 ,73.3007 ,1.42696 ,-0.61841 ,-6.06783 
402 ,73.5088 ,1.42890 ,-0.61156 ,-6.00067 
403 ,73.6845 ,1.43075 ,-0.61499 ,-6.03425 
404 ,73.8609 ,1.43252 ,-0.63894 ,-6.26930 
405 ,74.0369 ,1.43432 ,-0.65263 ,-6.40361 
406 ,74.2130 ,1.43617 ,-0.63552 ,-6.23572 
407 ,74.3892 ,1.43782 ,-0.64921 ,-6.37003 
408 ,74.5810 ,1.43970 ,-0.66974 ,-6.57150 
409 ,74.7572 ,1.44146 ,-0.68343 ,-6.70582 
410 ,74.9332 ,1.44337 ,-0.67659 ,-6.63866 
411 ,75.1253 ,1.44511 ,-0.70054 ,-6.87371 
412 ,75.3175 ,1.44696 ,-0.70054 ,-6.87371 
413 ,75.4936 ,1.44885 ,-0.72107 ,-7.07518 
414 ,75.6697 ,1.45065 ,-0.71423 ,-7.00802 
415 ,75.8454 ,1.45237 ,-0.71765 ,-7.04160 
416 ,76.0220 ,1.45415 ,-0.73818 ,-7.24307 
417 ,76.2141 ,1.45605 ,-0.74161 ,-7.27665 
418 ,76.3900 ,1.45779 ,-0.74161 ,-7.27665 
419 ,76.5659 ,1.45960 ,-0.75187 ,-7.37738 
420 ,76.7421 ,1.46133 ,-0.77583 ,-7.61243 
421 ,76.9337 ,1.46324 ,-0.76898 ,-7.54527 
422 ,77.1104 ,1.46502 ,-0.77241 ,-7.57885 
423 ,77.3023 ,1.46688 ,-0.79294 ,-7.78032 
424 ,77.4943 ,1.46884 ,-0.80321 ,-7.88106 
425 ,77.6705 ,1.47064 ,-0.80663 ,-7.91464 
426 ,77.8626 ,1.47254 ,-0.82716 ,-8.11611 
427 ,78.0225 ,1.47425 ,-0.83743 ,-8.21684 
428 ,78.1985 ,1.47588 ,-0.86138 ,-8.45189 
429 ,78.3747 ,1.47760 ,-0.84085 ,-8.25042 
430 ,78.5668 ,1.47955 ,-0.83743 ,-8.21684 
431 ,78.7428 ,1.48137 ,-0.87165 ,-8.55262 
432 ,78.9191 ,1.48308 ,-0.87849 ,-8.61978 
433 ,79.0949 ,1.48481 ,-0.88192 ,-8.65336 
434 ,79.2710 ,1.48656 ,-0.87507 ,-8.58620 
435 ,79.4472 ,1.48840 ,-0.88876 ,-8.72051 
436 ,79.6231 ,1.49015 ,-0.90587 ,-8.88841 
437 ,79.7991 ,1.49184 ,-0.91272 ,-8.95556 
438 ,79.9751 ,1.49365 ,-0.91956 ,-9.02272 
439 ,80.1353 ,1.49534 ,-0.92640 ,-9.08988 
440 ,80.3114 ,1.49700 ,-0.92640 ,-9.08988 
441 ,80.4876 ,1.49875 ,-0.93325 ,-9.15703 
442 ,80.6794 ,1.50066 ,-0.95378 ,-9.35850 
443 ,80.8557 ,1.50246 ,-0.95378 ,-9.35850 
444 ,81.0318 ,1.50420 ,-0.95720 ,-9.39208 
445 ,81.2078 ,1.50602 ,-0.97089 ,-9.52639 
446 ,81.3839 ,1.50767 ,-0.99143 ,-9.72786 
447 ,81.5598 ,1.50947 ,-1.00511 ,-9.86218 
448 ,81.7357 ,1.51122 ,-1.00511 ,-9.86218 
449 ,81.8957 ,1.51296 ,-0.99143 ,-9.72786 
450 ,82.0721 ,1.51456 ,-1.01538 ,-9.96291 
451 ,82.2482 ,1.51637 ,-1.02222 ,-10.03007 
452 ,82.4243 ,1.51809 ,-1.03249 ,-10.13080 
453 ,82.6163 ,1.52007 ,-1.04618 ,-10.26512 
454 ,82.7925 ,1.52183 ,-1.04618 ,-10.26512 
455 ,83.0167 ,1.52393 ,-1.07014 ,-10.50016 
456 ,83.2087 ,1.52599 ,-1.08040 ,-10.60090 
457 ,83.3847 ,1.52769 ,-1.07698 ,-10.56732 
458 ,83.5608 ,1.52949 ,-1.10778 ,-10.86953 
459 ,83.7368 ,1.53129 ,-1.10093 ,-10.80237 
460 ,83.9125 ,1.53304 ,-1.09751 ,-10.76879 
461 ,84.0889 ,1.53478 ,-1.11805 ,-10.97026 
462 ,84.2648 ,1.53650 ,-1.12489 ,-11.03742 
