Data stamp = , 31-03-2022 22:36:08 573

Calibration Values: 
Slope = , 26.54 , g/V 
Offset Voltage at no contact = , -0.501760 , V 

No , Time , Stage Position ,   Mass , Force 
   ,  (s) ,      (mm)      ,   (g)  , (mN)  

1 ,0.0000 ,0.64937 ,5.37723 ,52.76135 
2 ,0.2135 ,0.64946 ,5.38065 ,52.79493 
3 ,0.5338 ,0.65030 ,5.37038 ,52.69420 
4 ,0.7257 ,0.65173 ,5.38749 ,52.86209 
5 ,0.9178 ,0.65329 ,5.38749 ,52.86209 
6 ,1.1097 ,0.65520 ,5.38065 ,52.79493 
7 ,1.2861 ,0.65694 ,5.39434 ,52.92925 
8 ,1.4620 ,0.65870 ,5.39776 ,52.96282 
9 ,1.6379 ,0.66048 ,5.39434 ,52.92925 
10 ,1.8144 ,0.66233 ,5.38407 ,52.82851 
11 ,2.0384 ,0.66438 ,5.34985 ,52.49273 
12 ,2.2143 ,0.66632 ,5.34643 ,52.45915 
13 ,2.3904 ,0.66801 ,5.33274 ,52.32484 
14 ,2.5666 ,0.66983 ,5.32932 ,52.29126 
15 ,2.7586 ,0.67177 ,5.30878 ,52.08979 
16 ,2.9344 ,0.67348 ,5.30194 ,52.02263 
17 ,3.1107 ,0.67521 ,5.30194 ,52.02263 
18 ,3.2869 ,0.67701 ,5.28825 ,51.88832 
19 ,3.4625 ,0.67873 ,5.27456 ,51.75401 
20 ,3.6391 ,0.68052 ,5.26772 ,51.68685 
21 ,3.8150 ,0.68228 ,5.24034 ,51.41822 
22 ,3.9911 ,0.68399 ,5.22665 ,51.28391 
23 ,4.1672 ,0.68579 ,5.20612 ,51.08244 
24 ,4.3593 ,0.68775 ,5.19585 ,50.98170 
25 ,4.5353 ,0.68947 ,5.18216 ,50.84739 
26 ,4.7275 ,0.69136 ,5.16505 ,50.67950 
27 ,4.9035 ,0.69314 ,5.14794 ,50.51161 
28 ,5.1115 ,0.69520 ,5.11714 ,50.20940 
29 ,5.2876 ,0.69696 ,5.11030 ,50.14225 
30 ,5.4798 ,0.69878 ,5.09661 ,50.00793 
31 ,5.6555 ,0.70066 ,5.08977 ,49.94078 
32 ,5.8315 ,0.70245 ,5.05212 ,49.57142 
33 ,6.0079 ,0.70420 ,5.04185 ,49.47068 
34 ,6.2001 ,0.70605 ,5.04185 ,49.47068 
35 ,6.3922 ,0.70792 ,5.02817 ,49.33637 
36 ,6.5842 ,0.70989 ,5.00763 ,49.13490 
37 ,6.7601 ,0.71168 ,4.99052 ,48.96701 
38 ,6.9362 ,0.71344 ,4.96999 ,48.76554 
39 ,7.1126 ,0.71524 ,4.94603 ,48.53049 
40 ,7.3203 ,0.71720 ,4.93235 ,48.39618 
41 ,7.4964 ,0.71907 ,4.92208 ,48.29544 
42 ,7.6727 ,0.72085 ,4.89470 ,48.02681 
43 ,7.8487 ,0.72258 ,4.87075 ,47.79177 
44 ,8.0247 ,0.72433 ,4.88444 ,47.92608 
45 ,8.2168 ,0.72614 ,4.85364 ,47.62387 
46 ,8.3929 ,0.72801 ,4.82284 ,47.32167 
47 ,8.5851 ,0.72989 ,4.81941 ,47.28809 
48 ,8.7610 ,0.73181 ,4.80230 ,47.12020 
49 ,8.9372 ,0.73350 ,4.78861 ,46.98589 
50 ,9.1131 ,0.73523 ,4.74755 ,46.58295 
51 ,9.2894 ,0.73700 ,4.74755 ,46.58295 
52 ,9.4814 ,0.73888 ,4.72702 ,46.38148 
53 ,9.6574 ,0.74067 ,4.72017 ,46.31432 
54 ,9.8335 ,0.74242 ,4.67226 ,45.84422 
55 ,10.0255 ,0.74429 ,4.67911 ,45.91138 
56 ,10.2177 ,0.74630 ,4.66542 ,45.77707 
57 ,10.4098 ,0.74819 ,4.63119 ,45.44128 
58 ,10.5858 ,0.74991 ,4.61751 ,45.30697 
59 ,10.7940 ,0.75195 ,4.60724 ,45.20624 
60 ,10.9701 ,0.75383 ,4.58328 ,44.97119 
61 ,11.1458 ,0.75554 ,4.56960 ,44.83688 
62 ,11.3222 ,0.75727 ,4.55933 ,44.73614 
63 ,11.5143 ,0.75924 ,4.52853 ,44.43394 
64 ,11.6902 ,0.76103 ,4.51826 ,44.33320 
65 ,11.8663 ,0.76274 ,4.49431 ,44.09815 
66 ,12.0425 ,0.76455 ,4.48404 ,43.99742 
67 ,12.2185 ,0.76625 ,4.48062 ,43.96384 
68 ,12.3946 ,0.76803 ,4.44298 ,43.59448 
69 ,12.5867 ,0.76998 ,4.41902 ,43.35943 
70 ,12.7467 ,0.77166 ,4.41902 ,43.35943 
71 ,12.9228 ,0.77328 ,4.40875 ,43.25870 
72 ,13.0989 ,0.77504 ,4.38480 ,43.02365 
73 ,13.2750 ,0.77680 ,4.35400 ,42.72144 
74 ,13.4509 ,0.77864 ,4.34373 ,42.62071 
75 ,13.6112 ,0.78030 ,4.31293 ,42.31850 
76 ,13.7871 ,0.78194 ,4.30609 ,42.25135 
77 ,13.9634 ,0.78377 ,4.28556 ,42.04988 
78 ,14.1553 ,0.78562 ,4.28213 ,42.01630 
79 ,14.3310 ,0.78737 ,4.25476 ,41.74767 
80 ,14.5071 ,0.78915 ,4.22396 ,41.44547 
81 ,14.6830 ,0.79091 ,4.22053 ,41.41189 
82 ,14.8431 ,0.79262 ,4.22738 ,41.47905 
83 ,15.0193 ,0.79430 ,4.20342 ,41.24400 
84 ,15.2117 ,0.79622 ,4.16236 ,40.84106 
85 ,15.4038 ,0.79817 ,4.14183 ,40.63959 
86 ,15.5961 ,0.79998 ,4.14183 ,40.63959 
87 ,15.7881 ,0.80201 ,4.10076 ,40.23665 
88 ,15.9641 ,0.80371 ,4.09734 ,40.20307 
89 ,16.1399 ,0.80546 ,4.09049 ,40.13591 
90 ,16.3322 ,0.80737 ,4.06654 ,39.90087 
91 ,16.5242 ,0.80924 ,4.04943 ,39.73297 
92 ,16.7324 ,0.81135 ,4.02889 ,39.53150 
93 ,16.9083 ,0.81316 ,4.00494 ,39.29646 
94 ,17.0846 ,0.81493 ,3.98783 ,39.12856 
95 ,17.2605 ,0.81670 ,3.96729 ,38.92709 
96 ,17.4362 ,0.81840 ,3.96045 ,38.85994 
97 ,17.6129 ,0.82017 ,3.93992 ,38.65847 
98 ,17.8049 ,0.82209 ,3.92281 ,38.49058 
99 ,17.9969 ,0.82404 ,3.91254 ,38.38984 
100 ,18.1565 ,0.82573 ,3.87490 ,38.02048 
101 ,18.3327 ,0.82738 ,3.87832 ,38.05406 
102 ,18.5087 ,0.82913 ,3.85779 ,37.85259 
103 ,18.6847 ,0.83094 ,3.84067 ,37.68470 
104 ,18.8609 ,0.83269 ,3.80987 ,37.38249 
105 ,19.0369 ,0.83442 ,3.82014 ,37.48323 
106 ,19.2131 ,0.83619 ,3.79276 ,37.21460 
107 ,19.4053 ,0.83809 ,3.76881 ,36.97955 
108 ,19.5812 ,0.83984 ,3.76196 ,36.91240 
109 ,19.7577 ,0.84161 ,3.74485 ,36.74450 
110 ,19.9337 ,0.84341 ,3.73117 ,36.61019 
111 ,20.1100 ,0.84516 ,3.70721 ,36.37514 
112 ,20.2858 ,0.84697 ,3.69010 ,36.20725 
113 ,20.4619 ,0.84869 ,3.67641 ,36.07294 
114 ,20.6540 ,0.85048 ,3.65930 ,35.90505 
115 ,20.8140 ,0.85229 ,3.62166 ,35.53569 
116 ,20.9902 ,0.85400 ,3.61139 ,35.43495 
117 ,21.1660 ,0.85576 ,3.59086 ,35.23348 
118 ,21.3583 ,0.85764 ,3.60112 ,35.33422 
119 ,21.5825 ,0.85971 ,3.57375 ,35.06559 
120 ,21.7583 ,0.86159 ,3.54637 ,34.79696 
121 ,21.9341 ,0.86337 ,3.53610 ,34.69623 
122 ,22.1106 ,0.86513 ,3.49846 ,34.32687 
123 ,22.2865 ,0.86693 ,3.48819 ,34.22613 
124 ,22.4628 ,0.86869 ,3.47450 ,34.09182 
125 ,22.6388 ,0.87045 ,3.48135 ,34.15898 
126 ,22.8151 ,0.87219 ,3.45397 ,33.89035 
127 ,23.0073 ,0.87414 ,3.41975 ,33.55457 
128 ,23.1830 ,0.87589 ,3.40264 ,33.38667 
129 ,23.3591 ,0.87762 ,3.39237 ,33.28594 
130 ,23.5351 ,0.87939 ,3.37526 ,33.11805 
131 ,23.7112 ,0.88112 ,3.35473 ,32.91658 
132 ,23.8874 ,0.88293 ,3.33419 ,32.71511 
133 ,24.0793 ,0.88484 ,3.33419 ,32.71511 
134 ,24.2553 ,0.88654 ,3.31708 ,32.54722 
135 ,24.4476 ,0.88851 ,3.27602 ,32.14428 
136 ,24.6235 ,0.89035 ,3.26917 ,32.07712 
137 ,24.8156 ,0.89210 ,3.27944 ,32.17786 
138 ,24.9917 ,0.89395 ,3.24180 ,31.80849 
139 ,25.1998 ,0.89602 ,3.23495 ,31.74134 
140 ,25.3760 ,0.89784 ,3.21784 ,31.57345 
141 ,25.5681 ,0.89975 ,3.18704 ,31.27124 
142 ,25.7441 ,0.90148 ,3.16993 ,31.10335 
143 ,25.9522 ,0.90342 ,3.14940 ,30.90188 
144 ,26.1442 ,0.90545 ,3.13229 ,30.73399 
145 ,26.3204 ,0.90723 ,3.12544 ,30.66683 
146 ,26.4965 ,0.90896 ,3.11860 ,30.59968 
147 ,26.6884 ,0.91090 ,3.07069 ,30.12958 
148 ,26.8647 ,0.91269 ,3.06384 ,30.06242 
149 ,27.0567 ,0.91457 ,3.06042 ,30.02884 
150 ,27.2485 ,0.91644 ,3.03304 ,29.76022 
151 ,27.4249 ,0.91829 ,3.01251 ,29.55875 
152 ,27.6170 ,0.92018 ,3.00909 ,29.52517 
153 ,27.7930 ,0.92196 ,2.99198 ,29.35728 
154 ,27.9688 ,0.92373 ,2.96802 ,29.12223 
155 ,28.1612 ,0.92556 ,2.94749 ,28.92076 
156 ,28.3531 ,0.92757 ,2.94064 ,28.85360 
157 ,28.5131 ,0.92926 ,2.90985 ,28.55140 
158 ,28.7054 ,0.93091 ,2.89958 ,28.45066 
159 ,28.8971 ,0.93298 ,2.88589 ,28.31635 
160 ,29.0732 ,0.93476 ,2.87562 ,28.21562 
161 ,29.2335 ,0.93649 ,2.85509 ,28.01415 
162 ,29.4256 ,0.93835 ,2.83114 ,27.77910 
163 ,29.6016 ,0.94001 ,2.82429 ,27.71194 
164 ,29.7778 ,0.94179 ,2.81745 ,27.64479 
165 ,29.9538 ,0.94353 ,2.80718 ,27.54405 
166 ,30.1295 ,0.94528 ,2.77296 ,27.20827 
167 ,30.3061 ,0.94705 ,2.75585 ,27.04038 
168 ,30.4821 ,0.94885 ,2.73531 ,26.83891 
169 ,30.6582 ,0.95062 ,2.73531 ,26.83891 
170 ,30.8342 ,0.95238 ,2.73189 ,26.80533 
171 ,31.0106 ,0.95410 ,2.70109 ,26.50312 
172 ,31.1860 ,0.95588 ,2.68398 ,26.33523 
173 ,31.3625 ,0.95763 ,2.67029 ,26.20092 
174 ,31.5385 ,0.95944 ,2.66003 ,26.10018 
175 ,31.7306 ,0.96133 ,2.63607 ,25.86514 
176 ,31.9067 ,0.96308 ,2.62238 ,25.73082 
177 ,32.0828 ,0.96487 ,2.60869 ,25.59651 
178 ,32.2585 ,0.96662 ,2.59158 ,25.42862 
179 ,32.4349 ,0.96839 ,2.59843 ,25.49577 
180 ,32.6269 ,0.97027 ,2.56763 ,25.19357 
181 ,32.8031 ,0.97204 ,2.55394 ,25.05926 
182 ,32.9952 ,0.97392 ,2.54025 ,24.92494 
183 ,33.1713 ,0.97569 ,2.52998 ,24.82421 
184 ,33.3633 ,0.97763 ,2.50603 ,24.58916 
185 ,33.5393 ,0.97935 ,2.49234 ,24.45485 
186 ,33.7155 ,0.98118 ,2.48892 ,24.42127 
187 ,33.9236 ,0.98315 ,2.46154 ,24.15264 
188 ,34.0996 ,0.98502 ,2.44101 ,23.95117 
189 ,34.2755 ,0.98681 ,2.44101 ,23.95117 
190 ,34.4514 ,0.98851 ,2.43074 ,23.85044 
191 ,34.6437 ,0.99044 ,2.38968 ,23.44750 
192 ,34.8199 ,0.99222 ,2.38283 ,23.38034 
193 ,34.9958 ,0.99391 ,2.38283 ,23.38034 
194 ,35.1721 ,0.99570 ,2.34177 ,22.97740 
195 ,35.3481 ,0.99751 ,2.33492 ,22.91024 
196 ,35.5241 ,0.99923 ,2.31439 ,22.70877 
197 ,35.7002 ,1.00098 ,2.31097 ,22.67520 
198 ,35.8763 ,1.00277 ,2.30070 ,22.57446 
199 ,36.0683 ,1.00469 ,2.27674 ,22.33941 
200 ,36.2446 ,1.00644 ,2.24937 ,22.07079 
201 ,36.4363 ,1.00838 ,2.25963 ,22.17152 
202 ,36.6286 ,1.01022 ,2.22541 ,21.83574 
203 ,36.8527 ,1.01236 ,2.21172 ,21.70143 
204 ,37.0445 ,1.01440 ,2.18777 ,21.46638 
205 ,37.2207 ,1.01618 ,2.18435 ,21.43280 
206 ,37.3967 ,1.01796 ,2.16723 ,21.26491 
207 ,37.5570 ,1.01965 ,2.15697 ,21.16417 
208 ,37.7330 ,1.02131 ,2.15012 ,21.09702 
209 ,37.9090 ,1.02304 ,2.13644 ,20.96270 
210 ,38.0852 ,1.02481 ,2.11248 ,20.72766 
211 ,38.2611 ,1.02664 ,2.09195 ,20.52619 
212 ,38.4534 ,1.02852 ,2.08852 ,20.49261 
213 ,38.6455 ,1.03040 ,2.06115 ,20.22398 
214 ,38.8374 ,1.03234 ,2.05088 ,20.12325 
215 ,39.0135 ,1.03412 ,2.06799 ,20.29114 
216 ,39.1736 ,1.03581 ,2.02693 ,19.88820 
217 ,39.3497 ,1.03743 ,2.01666 ,19.78746 
218 ,39.5415 ,1.03931 ,1.99270 ,19.55241 
219 ,39.7177 ,1.04115 ,1.98244 ,19.45168 
220 ,39.9261 ,1.04313 ,1.96875 ,19.31737 
221 ,40.1022 ,1.04502 ,1.93111 ,18.94801 
222 ,40.2780 ,1.04679 ,1.93111 ,18.94801 
223 ,40.4540 ,1.04851 ,1.93111 ,18.94801 
224 ,40.6303 ,1.05021 ,1.91742 ,18.81369 
225 ,40.8221 ,1.05215 ,1.87635 ,18.41075 
226 ,40.9983 ,1.05394 ,1.87635 ,18.41075 
227 ,41.1744 ,1.05572 ,1.86951 ,18.34360 
228 ,41.3504 ,1.05744 ,1.85240 ,18.17570 
229 ,41.5266 ,1.05924 ,1.84555 ,18.10855 
230 ,41.7026 ,1.06103 ,1.81475 ,17.80634 
231 ,41.8788 ,1.06278 ,1.79764 ,17.63845 
232 ,42.0708 ,1.06467 ,1.79422 ,17.60487 
233 ,42.2469 ,1.06641 ,1.77369 ,17.40340 
234 ,42.4228 ,1.06817 ,1.75657 ,17.23551 
235 ,42.5991 ,1.06995 ,1.74631 ,17.13478 
236 ,42.7748 ,1.07177 ,1.73262 ,17.00046 
237 ,42.9511 ,1.07346 ,1.72235 ,16.89973 
238 ,43.1430 ,1.07541 ,1.69840 ,16.66468 
239 ,43.3193 ,1.07716 ,1.68813 ,16.56395 
240 ,43.5113 ,1.07907 ,1.67102 ,16.39605 
241 ,43.6875 ,1.08085 ,1.65049 ,16.19458 
242 ,43.8791 ,1.08275 ,1.62995 ,15.99311 
243 ,44.0555 ,1.08447 ,1.62995 ,15.99311 
244 ,44.2317 ,1.08630 ,1.63338 ,16.02669 
245 ,44.4077 ,1.08801 ,1.61284 ,15.82522 
246 ,44.5838 ,1.08981 ,1.58204 ,15.52302 
247 ,44.7598 ,1.09158 ,1.56836 ,15.38871 
248 ,44.9355 ,1.09328 ,1.56151 ,15.32155 
249 ,45.1121 ,1.09505 ,1.56151 ,15.32155 
250 ,45.3041 ,1.09706 ,1.53071 ,15.01934 
251 ,45.4961 ,1.09881 ,1.52045 ,14.91861 
252 ,45.6883 ,1.10083 ,1.50676 ,14.78430 
253 ,45.8641 ,1.10263 ,1.48622 ,14.58283 
254 ,46.0564 ,1.10449 ,1.47938 ,14.51567 
255 ,46.2321 ,1.10627 ,1.46569 ,14.38136 
256 ,46.4086 ,1.10808 ,1.44516 ,14.17989 
257 ,46.5841 ,1.10984 ,1.44516 ,14.17989 
258 ,46.7601 ,1.11155 ,1.41094 ,13.84410 
259 ,46.9364 ,1.11328 ,1.41094 ,13.84410 
260 ,47.1284 ,1.11525 ,1.39040 ,13.64263 
261 ,47.3047 ,1.11701 ,1.37329 ,13.47474 
262 ,47.4809 ,1.11875 ,1.34591 ,13.20612 
263 ,47.6570 ,1.12053 ,1.34591 ,13.20612 
264 ,47.8329 ,1.12227 ,1.34249 ,13.17254 
265 ,48.0094 ,1.12408 ,1.32196 ,12.97107 
266 ,48.1691 ,1.12576 ,1.31854 ,12.93749 
267 ,48.3452 ,1.12736 ,1.30827 ,12.83675 
268 ,48.5213 ,1.12917 ,1.28089 ,12.56813 
269 ,48.6973 ,1.13087 ,1.27747 ,12.53455 
270 ,48.8735 ,1.13265 ,1.26720 ,12.43381 
271 ,49.0494 ,1.13442 ,1.26036 ,12.36666 
272 ,49.2255 ,1.13615 ,1.24325 ,12.19877 
273 ,49.4017 ,1.13797 ,1.20561 ,11.82941 
274 ,49.6098 ,1.13994 ,1.20903 ,11.86298 
275 ,49.8019 ,1.14194 ,1.19192 ,11.69509 
276 ,49.9779 ,1.14373 ,1.17823 ,11.56078 
277 ,50.1700 ,1.14562 ,1.17823 ,11.56078 
278 ,50.3621 ,1.14749 ,1.14401 ,11.22500 
279 ,50.5382 ,1.14933 ,1.13032 ,11.09068 
280 ,50.7143 ,1.15109 ,1.13374 ,11.12426 
281 ,50.8902 ,1.15282 ,1.11663 ,10.95637 
282 ,51.0664 ,1.15465 ,1.10636 ,10.85563 
283 ,51.2420 ,1.15635 ,1.07899 ,10.58701 
284 ,51.4342 ,1.15823 ,1.06872 ,10.48627 
285 ,51.6103 ,1.16000 ,1.07214 ,10.51985 
286 ,51.7863 ,1.16177 ,1.05161 ,10.31838 
287 ,51.9627 ,1.16351 ,1.02423 ,10.04976 
288 ,52.1548 ,1.16551 ,1.02081 ,10.01618 
289 ,52.3309 ,1.16723 ,1.01739 ,9.98260 
290 ,52.5229 ,1.16909 ,0.98659 ,9.68039 
291 ,52.7149 ,1.17106 ,0.99001 ,9.71397 
292 ,52.8912 ,1.17284 ,0.96948 ,9.51250 
293 ,53.0672 ,1.17463 ,0.96605 ,9.47892 
294 ,53.2432 ,1.17636 ,0.93183 ,9.14314 
295 ,53.4194 ,1.17807 ,0.91814 ,9.00883 
296 ,53.5951 ,1.17983 ,0.91130 ,8.94167 
297 ,53.7715 ,1.18163 ,0.89761 ,8.80736 
298 ,53.9474 ,1.18335 ,0.90788 ,8.90809 
299 ,54.1237 ,1.18515 ,0.88050 ,8.63947 
300 ,54.2997 ,1.18696 ,0.86681 ,8.50515 
301 ,54.4755 ,1.18871 ,0.84970 ,8.33726 
302 ,54.6519 ,1.19047 ,0.84970 ,8.33726 
303 ,54.8440 ,1.19237 ,0.82575 ,8.10221 
304 ,55.0200 ,1.19412 ,0.81890 ,8.03506 
305 ,55.1961 ,1.19588 ,0.79152 ,7.76643 
306 ,55.3722 ,1.19763 ,0.79495 ,7.80001 
307 ,55.5639 ,1.19955 ,0.78126 ,7.66570 
308 ,55.7404 ,1.20133 ,0.75388 ,7.39707 
309 ,55.9165 ,1.20311 ,0.74361 ,7.29633 
310 ,56.0925 ,1.20479 ,0.74361 ,7.29633 
311 ,56.3005 ,1.20677 ,0.72992 ,7.16202 
312 ,56.4766 ,1.20871 ,0.70939 ,6.96055 
313 ,56.6523 ,1.21044 ,0.70255 ,6.89340 
314 ,56.8288 ,1.21223 ,0.69570 ,6.82624 
315 ,57.0208 ,1.21417 ,0.66833 ,6.55761 
316 ,57.2129 ,1.21602 ,0.65806 ,6.45688 
317 ,57.3891 ,1.21780 ,0.64779 ,6.35614 
318 ,57.5647 ,1.21962 ,0.64437 ,6.32256 
319 ,57.7411 ,1.22127 ,0.62384 ,6.12109 
320 ,57.9174 ,1.22302 ,0.60330 ,5.91962 
321 ,58.0933 ,1.22483 ,0.59646 ,5.85247 
322 ,58.2692 ,1.22662 ,0.58962 ,5.78531 
323 ,58.4454 ,1.22837 ,0.56908 ,5.58384 
324 ,58.6214 ,1.23021 ,0.54513 ,5.34879 
325 ,58.7815 ,1.23182 ,0.53486 ,5.24806 
326 ,58.9575 ,1.23346 ,0.52117 ,5.11375 
327 ,59.1335 ,1.23525 ,0.52117 ,5.11375 
328 ,59.3100 ,1.23706 ,0.51433 ,5.04659 
329 ,59.4854 ,1.23881 ,0.50748 ,4.97943 
330 ,59.6620 ,1.24051 ,0.48011 ,4.71081 
331 ,59.8378 ,1.24227 ,0.48011 ,4.71081 
332 ,60.0141 ,1.24404 ,0.44931 ,4.40860 
333 ,60.1900 ,1.24576 ,0.45273 ,4.44218 
334 ,60.3663 ,1.24760 ,0.44588 ,4.37502 
335 ,60.5580 ,1.24948 ,0.41509 ,4.07282 
336 ,60.7344 ,1.25125 ,0.41166 ,4.03924 
337 ,60.9261 ,1.25315 ,0.40824 ,4.00566 
338 ,61.1186 ,1.25507 ,0.39113 ,3.83777 
339 ,61.3105 ,1.25695 ,0.37402 ,3.66988 
340 ,61.5027 ,1.25880 ,0.36375 ,3.56914 
341 ,61.7109 ,1.26092 ,0.33980 ,3.33410 
342 ,61.9024 ,1.26291 ,0.34664 ,3.40125 
343 ,62.0788 ,1.26468 ,0.31584 ,3.09905 
344 ,62.2709 ,1.26663 ,0.30558 ,2.99831 
345 ,62.4470 ,1.26834 ,0.29873 ,2.93116 
346 ,62.6551 ,1.27030 ,0.26793 ,2.62895 
347 ,62.8311 ,1.27223 ,0.26793 ,2.62895 
348 ,63.0072 ,1.27399 ,0.26451 ,2.59537 
349 ,63.1833 ,1.27573 ,0.25082 ,2.46106 
350 ,63.3594 ,1.27746 ,0.23029 ,2.25959 
351 ,63.5514 ,1.27936 ,0.23029 ,2.25959 
352 ,63.7275 ,1.28113 ,0.21660 ,2.12528 
353 ,63.9197 ,1.28313 ,0.20633 ,2.02454 
354 ,64.0957 ,1.28482 ,0.17896 ,1.75592 
355 ,64.2718 ,1.28661 ,0.17896 ,1.75592 
356 ,64.4640 ,1.28848 ,0.18580 ,1.82307 
357 ,64.6560 ,1.29042 ,0.15500 ,1.52087 
358 ,64.8321 ,1.29223 ,0.13447 ,1.31940 
359 ,65.0237 ,1.29415 ,0.14473 ,1.42013 
360 ,65.2002 ,1.29588 ,0.13789 ,1.35298 
361 ,65.3923 ,1.29785 ,0.11051 ,1.08435 
362 ,65.5845 ,1.29967 ,0.11393 ,1.11793 
363 ,65.7603 ,1.30148 ,0.10025 ,0.98361 
364 ,65.9527 ,1.30340 ,0.07971 ,0.78214 
365 ,66.1283 ,1.30514 ,0.05918 ,0.58067 
366 ,66.2886 ,1.30686 ,0.07971 ,0.78214 
367 ,66.4805 ,1.30864 ,0.04891 ,0.47994 
368 ,66.6567 ,1.31042 ,0.03180 ,0.31205 
369 ,66.8325 ,1.31218 ,0.03522 ,0.34563 
370 ,67.0089 ,1.31396 ,0.01811 ,0.17773 
371 ,67.1847 ,1.31574 ,0.02496 ,0.24489 
372 ,67.3611 ,1.31746 ,0.01811 ,0.17773 
373 ,67.5372 ,1.31922 ,-0.00926 ,-0.09089 
374 ,67.7131 ,1.32100 ,-0.01953 ,-0.19163 
375 ,67.9053 ,1.32288 ,-0.01953 ,-0.19163 
376 ,68.0813 ,1.32469 ,-0.03664 ,-0.35952 
377 ,68.2571 ,1.32642 ,-0.04691 ,-0.46025 
378 ,68.4335 ,1.32821 ,-0.06744 ,-0.66172 
379 ,68.6255 ,1.33017 ,-0.07086 ,-0.69530 
380 ,68.8178 ,1.33203 ,-0.08797 ,-0.86319 
381 ,68.9938 ,1.33379 ,-0.09824 ,-0.96393 
382 ,69.1859 ,1.33572 ,-0.09482 ,-0.93035 
383 ,69.3619 ,1.33750 ,-0.10508 ,-1.03108 
384 ,69.5379 ,1.33922 ,-0.13931 ,-1.36687 
385 ,69.7141 ,1.34102 ,-0.14615 ,-1.43402 
386 ,69.8902 ,1.34274 ,-0.15299 ,-1.50118 
387 ,70.0823 ,1.34470 ,-0.14615 ,-1.43402 
388 ,70.2584 ,1.34645 ,-0.15984 ,-1.56834 
389 ,70.4343 ,1.34833 ,-0.18722 ,-1.83696 
390 ,70.6104 ,1.34997 ,-0.18379 ,-1.80338 
391 ,70.7865 ,1.35172 ,-0.18722 ,-1.83696 
392 ,70.9785 ,1.35359 ,-0.20775 ,-2.03843 
393 ,71.1386 ,1.35535 ,-0.22486 ,-2.20632 
394 ,71.3148 ,1.35697 ,-0.22486 ,-2.20632 
395 ,71.4907 ,1.35873 ,-0.24881 ,-2.44137 
396 ,71.6668 ,1.36051 ,-0.25224 ,-2.47495 
397 ,71.8428 ,1.36228 ,-0.24197 ,-2.37422 
398 ,72.0192 ,1.36405 ,-0.25908 ,-2.54211 
399 ,72.1951 ,1.36582 ,-0.27961 ,-2.74358 
400 ,72.3711 ,1.36758 ,-0.29330 ,-2.87789 
401 ,72.5471 ,1.36934 ,-0.28988 ,-2.84431 
402 ,72.7231 ,1.37105 ,-0.28646 ,-2.81073 
403 ,72.8994 ,1.37284 ,-0.29330 ,-2.87789 
404 ,73.0754 ,1.37464 ,-0.31041 ,-3.04578 
405 ,73.2513 ,1.37637 ,-0.33095 ,-3.24725 
406 ,73.4435 ,1.37825 ,-0.33095 ,-3.24725 
407 ,73.6036 ,1.37998 ,-0.33779 ,-3.31441 
408 ,73.7636 ,1.38160 ,-0.35148 ,-3.44872 
409 ,73.9397 ,1.38326 ,-0.35832 ,-3.51588 
410 ,74.1158 ,1.38498 ,-0.36859 ,-3.61661 
411 ,74.3078 ,1.38688 ,-0.38570 ,-3.78450 
412 ,74.4840 ,1.38866 ,-0.36859 ,-3.61661 
413 ,74.6921 ,1.39073 ,-0.39939 ,-3.91882 
414 ,74.8841 ,1.39268 ,-0.39597 ,-3.88524 
415 ,75.0601 ,1.39443 ,-0.40281 ,-3.95240 
416 ,75.2523 ,1.39637 ,-0.43019 ,-4.22102 
417 ,75.4443 ,1.39829 ,-0.43703 ,-4.28818 
418 ,75.6201 ,1.40004 ,-0.43703 ,-4.28818 
419 ,75.7965 ,1.40180 ,-0.44730 ,-4.38891 
420 ,75.9886 ,1.40366 ,-0.46099 ,-4.52323 
421 ,76.1646 ,1.40549 ,-0.46441 ,-4.55681 
422 ,76.3566 ,1.40737 ,-0.48152 ,-4.72470 
423 ,76.5486 ,1.40927 ,-0.49521 ,-4.85901 
424 ,76.7246 ,1.41107 ,-0.50548 ,-4.95975 
425 ,76.9009 ,1.41281 ,-0.49863 ,-4.89259 
426 ,77.0929 ,1.41473 ,-0.53285 ,-5.22837 
427 ,77.2688 ,1.41654 ,-0.53970 ,-5.29553 
428 ,77.4450 ,1.41825 ,-0.52943 ,-5.19479 
429 ,77.6208 ,1.42005 ,-0.54312 ,-5.32911 
430 ,77.7972 ,1.42177 ,-0.55339 ,-5.42984 
431 ,77.9893 ,1.42370 ,-0.56023 ,-5.49700 
432 ,78.1813 ,1.42566 ,-0.56708 ,-5.56415 
433 ,78.3575 ,1.42737 ,-0.56023 ,-5.49700 
434 ,78.5335 ,1.42915 ,-0.59445 ,-5.83278 
435 ,78.7096 ,1.43094 ,-0.61156 ,-6.00067 
436 ,78.9017 ,1.43285 ,-0.60130 ,-5.89994 
437 ,79.0938 ,1.43475 ,-0.61841 ,-6.06783 
438 ,79.2857 ,1.43670 ,-0.62525 ,-6.13499 
439 ,79.4621 ,1.43846 ,-0.63210 ,-6.20214 
440 ,79.6379 ,1.44018 ,-0.63894 ,-6.26930 
441 ,79.8137 ,1.44193 ,-0.65263 ,-6.40361 
442 ,79.9901 ,1.44377 ,-0.66974 ,-6.57150 
443 ,80.1821 ,1.44568 ,-0.67316 ,-6.60508 
444 ,80.3581 ,1.44744 ,-0.67316 ,-6.60508 
445 ,80.5343 ,1.44915 ,-0.69027 ,-6.77297 
446 ,80.7263 ,1.45107 ,-0.71081 ,-6.97444 
447 ,80.9021 ,1.45283 ,-0.71423 ,-7.00802 
448 ,81.0785 ,1.45458 ,-0.70396 ,-6.90729 
449 ,81.2545 ,1.45642 ,-0.71765 ,-7.04160 
450 ,81.4307 ,1.45807 ,-0.74503 ,-7.31023 
451 ,81.6547 ,1.46019 ,-0.74161 ,-7.27665 
452 ,81.8309 ,1.46213 ,-0.75872 ,-7.44454 
453 ,82.0067 ,1.46390 ,-0.77925 ,-7.64601 
454 ,82.1827 ,1.46565 ,-0.77583 ,-7.61243 
455 ,82.3591 ,1.46737 ,-0.76898 ,-7.54527 
456 ,82.5511 ,1.46933 ,-0.79978 ,-7.84748 
457 ,82.7272 ,1.47111 ,-0.81005 ,-7.94821 
458 ,82.9189 ,1.47301 ,-0.79978 ,-7.84748 
459 ,83.0954 ,1.47473 ,-0.81347 ,-7.98179 
460 ,83.3033 ,1.47684 ,-0.84427 ,-8.28400 
461 ,83.4794 ,1.47863 ,-0.82032 ,-8.04895 
462 ,83.6715 ,1.48040 ,-0.83058 ,-8.14968 
463 ,83.8478 ,1.48231 ,-0.86823 ,-8.51904 
