Data stamp = , 01-04-2022 01:19:18 284

Calibration Values: 
Slope = , 26.54 , g/V 
Offset Voltage at no contact = , -0.501760 , V 

No , Time , Stage Position ,   Mass , Force 
   ,  (s) ,      (mm)      ,   (g)  , (mN)  

1 ,0.0000 ,0.64949 ,5.25403 ,51.55254 
2 ,0.2153 ,0.64957 ,5.24376 ,51.45180 
3 ,0.6798 ,0.65089 ,5.26430 ,51.65327 
4 ,0.8876 ,0.65310 ,5.25745 ,51.58611 
5 ,1.0800 ,0.65503 ,5.26430 ,51.65327 
6 ,1.2720 ,0.65695 ,5.26087 ,51.61969 
7 ,1.4481 ,0.65861 ,5.26430 ,51.65327 
8 ,1.6403 ,0.66055 ,5.26430 ,51.65327 
9 ,1.8160 ,0.66242 ,5.23692 ,51.38464 
10 ,1.9923 ,0.66416 ,5.24718 ,51.48538 
11 ,2.1844 ,0.66600 ,5.24718 ,51.48538 
12 ,2.3762 ,0.66791 ,5.23007 ,51.31749 
13 ,2.5526 ,0.66981 ,5.21981 ,51.21675 
14 ,2.7447 ,0.67171 ,5.20270 ,51.04886 
15 ,2.9367 ,0.67357 ,5.18559 ,50.88097 
16 ,3.1127 ,0.67536 ,5.18216 ,50.84739 
17 ,3.2889 ,0.67718 ,5.17874 ,50.81381 
18 ,3.4646 ,0.67891 ,5.14794 ,50.51161 
19 ,3.6568 ,0.68069 ,5.13083 ,50.34372 
20 ,3.8490 ,0.68268 ,5.13083 ,50.34372 
21 ,4.0250 ,0.68441 ,5.12056 ,50.24298 
22 ,4.2012 ,0.68620 ,5.07265 ,49.77289 
23 ,4.3930 ,0.68808 ,5.07265 ,49.77289 
24 ,4.5693 ,0.69001 ,5.05897 ,49.63857 
25 ,4.7452 ,0.69168 ,5.05554 ,49.60499 
26 ,4.9536 ,0.69374 ,5.02817 ,49.33637 
27 ,5.1297 ,0.69552 ,5.00421 ,49.10132 
28 ,5.3217 ,0.69744 ,4.97683 ,48.83269 
29 ,5.4977 ,0.69913 ,4.95288 ,48.59764 
30 ,5.6738 ,0.70094 ,4.94261 ,48.49691 
31 ,5.8658 ,0.70282 ,4.94946 ,48.56407 
32 ,6.0423 ,0.70466 ,4.91866 ,48.26186 
33 ,6.2340 ,0.70655 ,4.89470 ,48.02681 
34 ,6.4102 ,0.70834 ,4.88786 ,47.95966 
35 ,6.5863 ,0.71009 ,4.87075 ,47.79177 
36 ,6.7782 ,0.71194 ,4.83995 ,47.48956 
37 ,6.9703 ,0.71385 ,4.80915 ,47.18736 
38 ,7.1464 ,0.71569 ,4.80573 ,47.15378 
39 ,7.3226 ,0.71745 ,4.78177 ,46.91873 
40 ,7.4985 ,0.71920 ,4.75782 ,46.68368 
41 ,7.6743 ,0.72104 ,4.74413 ,46.54937 
42 ,7.8505 ,0.72274 ,4.72017 ,46.31432 
43 ,8.0430 ,0.72467 ,4.70990 ,46.21359 
44 ,8.2186 ,0.72642 ,4.68937 ,46.01212 
45 ,8.3950 ,0.72818 ,4.67911 ,45.91138 
46 ,8.6029 ,0.73009 ,4.66884 ,45.81065 
47 ,8.7950 ,0.73214 ,4.63804 ,45.50844 
48 ,8.9711 ,0.73391 ,4.62777 ,45.40771 
49 ,9.1633 ,0.73583 ,4.60724 ,45.20624 
50 ,9.3393 ,0.73760 ,4.59013 ,45.03835 
51 ,9.5154 ,0.73940 ,4.56960 ,44.83688 
52 ,9.7075 ,0.74131 ,4.56617 ,44.80330 
53 ,9.8674 ,0.74297 ,4.54906 ,44.63541 
54 ,10.0435 ,0.74465 ,4.52511 ,44.40036 
55 ,10.2197 ,0.74639 ,4.50115 ,44.16531 
56 ,10.3956 ,0.74819 ,4.48746 ,44.03100 
57 ,10.5716 ,0.74994 ,4.46693 ,43.82953 
58 ,10.7479 ,0.75168 ,4.46009 ,43.76237 
59 ,10.9238 ,0.75347 ,4.45324 ,43.69521 
60 ,11.1161 ,0.75538 ,4.41218 ,43.29227 
61 ,11.2919 ,0.75716 ,4.40533 ,43.22512 
62 ,11.4842 ,0.75910 ,4.39849 ,43.15796 
63 ,11.6602 ,0.76082 ,4.37111 ,42.88933 
64 ,11.8522 ,0.76271 ,4.35058 ,42.68786 
65 ,12.0442 ,0.76466 ,4.34373 ,42.62071 
66 ,12.2365 ,0.76650 ,4.31636 ,42.35208 
67 ,12.4284 ,0.76851 ,4.30267 ,42.21777 
68 ,12.6047 ,0.77029 ,4.29240 ,42.11703 
69 ,12.7967 ,0.77217 ,4.26502 ,41.84841 
70 ,12.9887 ,0.77408 ,4.25476 ,41.74767 
71 ,13.1648 ,0.77584 ,4.25133 ,41.71409 
72 ,13.3408 ,0.77762 ,4.22053 ,41.41189 
73 ,13.5169 ,0.77940 ,4.19316 ,41.14326 
74 ,13.6930 ,0.78113 ,4.17262 ,40.94179 
75 ,13.9171 ,0.78319 ,4.16236 ,40.84106 
76 ,14.1091 ,0.78527 ,4.14867 ,40.70674 
77 ,14.2849 ,0.78705 ,4.14525 ,40.67317 
78 ,14.4612 ,0.78876 ,4.11787 ,40.40454 
79 ,14.6534 ,0.79069 ,4.09734 ,40.20307 
80 ,14.8454 ,0.79262 ,4.08707 ,40.10233 
81 ,15.0216 ,0.79435 ,4.06312 ,39.86729 
82 ,15.2137 ,0.79634 ,4.04258 ,39.66582 
83 ,15.4217 ,0.79835 ,4.01863 ,39.43077 
84 ,15.5979 ,0.80018 ,4.02205 ,39.46435 
85 ,15.7736 ,0.80198 ,3.99467 ,39.19572 
86 ,15.9658 ,0.80380 ,4.00152 ,39.26288 
87 ,16.1417 ,0.80559 ,3.98098 ,39.06141 
88 ,16.3339 ,0.80749 ,3.95361 ,38.79278 
89 ,16.5260 ,0.80950 ,3.94676 ,38.72562 
90 ,16.6861 ,0.81116 ,3.93650 ,38.62489 
91 ,16.8622 ,0.81279 ,3.91596 ,38.42342 
92 ,17.0384 ,0.81458 ,3.89201 ,38.18837 
93 ,17.2140 ,0.81636 ,3.85436 ,37.81901 
94 ,17.3904 ,0.81811 ,3.84752 ,37.75185 
95 ,17.5825 ,0.81998 ,3.85436 ,37.81901 
96 ,17.7586 ,0.82174 ,3.81672 ,37.44965 
97 ,17.9507 ,0.82372 ,3.79619 ,37.24818 
98 ,18.1587 ,0.82572 ,3.78250 ,37.11387 
99 ,18.3188 ,0.82744 ,3.76539 ,36.94597 
100 ,18.4787 ,0.82907 ,3.74828 ,36.77808 
101 ,18.6389 ,0.83068 ,3.74143 ,36.71093 
102 ,18.8150 ,0.83235 ,3.74143 ,36.71093 
103 ,19.0071 ,0.83425 ,3.71063 ,36.40872 
104 ,19.1992 ,0.83619 ,3.69352 ,36.24083 
105 ,19.3751 ,0.83795 ,3.68325 ,36.14010 
106 ,19.5512 ,0.83965 ,3.65588 ,35.87147 
107 ,19.7433 ,0.84152 ,3.64903 ,35.80431 
108 ,19.9194 ,0.84336 ,3.64219 ,35.73716 
109 ,20.1276 ,0.84532 ,3.61823 ,35.50211 
110 ,20.3035 ,0.84719 ,3.60454 ,35.36779 
111 ,20.4796 ,0.84900 ,3.59770 ,35.30064 
112 ,20.6718 ,0.85088 ,3.56690 ,34.99843 
113 ,20.8639 ,0.85277 ,3.55321 ,34.86412 
114 ,21.0558 ,0.85465 ,3.52926 ,34.62907 
115 ,21.2480 ,0.85661 ,3.52584 ,34.59549 
116 ,21.4396 ,0.85853 ,3.49846 ,34.32687 
117 ,21.6161 ,0.86029 ,3.47450 ,34.09182 
118 ,21.8082 ,0.86225 ,3.47792 ,34.12540 
119 ,21.9843 ,0.86404 ,3.45397 ,33.89035 
120 ,22.1762 ,0.86596 ,3.44370 ,33.78961 
121 ,22.3524 ,0.86768 ,3.40948 ,33.45383 
122 ,22.5444 ,0.86951 ,3.40606 ,33.42025 
123 ,22.7206 ,0.87139 ,3.39579 ,33.31952 
124 ,22.8963 ,0.87316 ,3.37868 ,33.15163 
125 ,23.0884 ,0.87496 ,3.35130 ,32.88300 
126 ,23.2646 ,0.87681 ,3.33762 ,32.74869 
127 ,23.4409 ,0.87861 ,3.33077 ,32.68153 
128 ,23.6169 ,0.88031 ,3.30682 ,32.44648 
129 ,23.7930 ,0.88210 ,3.27944 ,32.17786 
130 ,23.9850 ,0.88398 ,3.28628 ,32.24501 
131 ,24.1611 ,0.88579 ,3.26575 ,32.04354 
132 ,24.3374 ,0.88751 ,3.25548 ,31.94281 
133 ,24.5132 ,0.88930 ,3.23495 ,31.74134 
134 ,24.7054 ,0.89112 ,3.22811 ,31.67418 
135 ,24.8974 ,0.89312 ,3.19388 ,31.33840 
136 ,25.0735 ,0.89484 ,3.17677 ,31.17051 
137 ,25.2496 ,0.89662 ,3.16993 ,31.10335 
138 ,25.4257 ,0.89842 ,3.15624 ,30.96904 
139 ,25.6014 ,0.90019 ,3.14255 ,30.83472 
140 ,25.7938 ,0.90202 ,3.13229 ,30.73399 
141 ,25.9857 ,0.90405 ,3.10833 ,30.49894 
142 ,26.1621 ,0.90577 ,3.10491 ,30.46536 
143 ,26.3382 ,0.90753 ,3.08095 ,30.23031 
144 ,26.5139 ,0.90930 ,3.05700 ,29.99527 
145 ,26.6903 ,0.91106 ,3.03989 ,29.82737 
146 ,26.8660 ,0.91279 ,3.02620 ,29.69306 
147 ,27.0585 ,0.91465 ,3.02278 ,29.65948 
148 ,27.2343 ,0.91653 ,3.00224 ,29.45801 
149 ,27.4265 ,0.91838 ,2.98171 ,29.25654 
150 ,27.6027 ,0.92017 ,2.98171 ,29.25654 
151 ,27.7947 ,0.92218 ,2.94407 ,28.88718 
152 ,27.9867 ,0.92393 ,2.94407 ,28.88718 
153 ,28.1629 ,0.92578 ,2.93380 ,28.78645 
154 ,28.3390 ,0.92756 ,2.91669 ,28.61856 
155 ,28.5312 ,0.92948 ,2.87905 ,28.24919 
156 ,28.7227 ,0.93139 ,2.88589 ,28.31635 
157 ,28.8989 ,0.93316 ,2.86536 ,28.11488 
158 ,29.0751 ,0.93493 ,2.84482 ,27.91341 
159 ,29.2512 ,0.93670 ,2.82771 ,27.74552 
160 ,29.4273 ,0.93839 ,2.81745 ,27.64479 
161 ,29.6193 ,0.94031 ,2.80376 ,27.51047 
162 ,29.7951 ,0.94214 ,2.76954 ,27.17469 
163 ,29.9714 ,0.94383 ,2.76611 ,27.14111 
164 ,30.1636 ,0.94578 ,2.74558 ,26.93964 
165 ,30.3397 ,0.94753 ,2.74216 ,26.90606 
166 ,30.5638 ,0.94955 ,2.72163 ,26.70459 
167 ,30.7399 ,0.95154 ,2.71478 ,26.63744 
168 ,30.9158 ,0.95331 ,2.68740 ,26.36881 
169 ,31.0918 ,0.95501 ,2.66003 ,26.10018 
170 ,31.2681 ,0.95683 ,2.66345 ,26.13376 
171 ,31.4601 ,0.95874 ,2.64976 ,25.99945 
172 ,31.6520 ,0.96066 ,2.62923 ,25.79798 
173 ,31.8281 ,0.96241 ,2.60869 ,25.59651 
174 ,32.0042 ,0.96413 ,2.60869 ,25.59651 
175 ,32.1964 ,0.96608 ,2.58816 ,25.39504 
176 ,32.3725 ,0.96788 ,2.56421 ,25.15999 
177 ,32.5645 ,0.96976 ,2.56078 ,25.12641 
178 ,32.7403 ,0.97156 ,2.54025 ,24.92494 
179 ,32.9166 ,0.97324 ,2.52314 ,24.75705 
180 ,33.0928 ,0.97506 ,2.51630 ,24.68989 
181 ,33.3007 ,0.97703 ,2.51287 ,24.65632 
182 ,33.4769 ,0.97889 ,2.47865 ,24.32053 
183 ,33.6692 ,0.98083 ,2.44785 ,24.01833 
184 ,33.8611 ,0.98271 ,2.45470 ,24.08549 
185 ,34.0370 ,0.98454 ,2.43416 ,23.88402 
186 ,34.2132 ,0.98626 ,2.41363 ,23.68255 
187 ,34.4052 ,0.98818 ,2.39994 ,23.54823 
188 ,34.5814 ,0.98988 ,2.39994 ,23.54823 
189 ,34.7893 ,0.99194 ,2.34861 ,23.04456 
190 ,34.9656 ,0.99379 ,2.33834 ,22.94382 
191 ,35.1576 ,0.99567 ,2.34177 ,22.97740 
192 ,35.3495 ,0.99760 ,2.31097 ,22.67520 
193 ,35.5257 ,0.99934 ,2.30754 ,22.64162 
194 ,35.7178 ,1.00128 ,2.28701 ,22.44015 
195 ,35.8939 ,1.00308 ,2.28359 ,22.40657 
196 ,36.0701 ,1.00481 ,2.25279 ,22.10437 
197 ,36.2620 ,1.00670 ,2.24937 ,22.07079 
198 ,36.4384 ,1.00850 ,2.23910 ,21.97005 
199 ,36.6142 ,1.01029 ,2.22883 ,21.86932 
200 ,36.7900 ,1.01201 ,2.19461 ,21.53353 
201 ,36.9663 ,1.01373 ,2.19803 ,21.56711 
202 ,37.1421 ,1.01549 ,2.18435 ,21.43280 
203 ,37.3345 ,1.01736 ,2.17750 ,21.36564 
204 ,37.5427 ,1.01946 ,2.14328 ,21.02986 
205 ,37.7347 ,1.02146 ,2.11932 ,20.79481 
206 ,37.9107 ,1.02323 ,2.11248 ,20.72766 
207 ,38.0869 ,1.02501 ,2.08852 ,20.49261 
208 ,38.2629 ,1.02672 ,2.08510 ,20.45903 
209 ,38.4390 ,1.02847 ,2.07826 ,20.39187 
210 ,38.6151 ,1.03029 ,2.05430 ,20.15682 
211 ,38.7911 ,1.03202 ,2.04404 ,20.05609 
212 ,38.9672 ,1.03379 ,2.03035 ,19.92178 
213 ,39.1593 ,1.03565 ,2.02693 ,19.88820 
214 ,39.3513 ,1.03760 ,1.99613 ,19.58599 
215 ,39.5437 ,1.03950 ,1.99270 ,19.55241 
216 ,39.7355 ,1.04137 ,1.99270 ,19.55241 
217 ,39.9117 ,1.04322 ,1.95848 ,19.21663 
218 ,40.0876 ,1.04499 ,1.93453 ,18.98158 
219 ,40.2636 ,1.04674 ,1.93453 ,18.98158 
220 ,40.4559 ,1.04865 ,1.93453 ,18.98158 
221 ,40.6478 ,1.05049 ,1.89688 ,18.61222 
222 ,40.8403 ,1.05249 ,1.89688 ,18.61222 
223 ,41.0161 ,1.05428 ,1.88319 ,18.47791 
224 ,41.2082 ,1.05604 ,1.84897 ,18.14213 
225 ,41.3840 ,1.05798 ,1.83528 ,18.00781 
226 ,41.5599 ,1.05973 ,1.83186 ,17.97423 
227 ,41.7359 ,1.06142 ,1.82844 ,17.94066 
228 ,41.9122 ,1.06317 ,1.80449 ,17.70561 
229 ,42.1045 ,1.06505 ,1.78053 ,17.47056 
230 ,42.2806 ,1.06689 ,1.78737 ,17.53772 
231 ,42.4562 ,1.06865 ,1.77369 ,17.40340 
232 ,42.6325 ,1.07039 ,1.74631 ,17.13478 
233 ,42.8247 ,1.07232 ,1.73262 ,17.00046 
234 ,43.0008 ,1.07409 ,1.71551 ,16.83257 
235 ,43.1770 ,1.07585 ,1.70182 ,16.69826 
236 ,43.3528 ,1.07763 ,1.69155 ,16.59752 
237 ,43.5449 ,1.07952 ,1.67102 ,16.39605 
238 ,43.7371 ,1.08149 ,1.66760 ,16.36248 
239 ,43.9290 ,1.08339 ,1.62995 ,15.99311 
240 ,44.1052 ,1.08509 ,1.61627 ,15.85880 
241 ,44.2809 ,1.08691 ,1.61627 ,15.85880 
242 ,44.4574 ,1.08863 ,1.60942 ,15.79164 
243 ,44.6332 ,1.09047 ,1.57178 ,15.42228 
244 ,44.8095 ,1.09216 ,1.56836 ,15.38871 
245 ,44.9856 ,1.09391 ,1.55124 ,15.22081 
246 ,45.1615 ,1.09566 ,1.55809 ,15.28797 
247 ,45.3699 ,1.09774 ,1.52045 ,14.91861 
248 ,45.5456 ,1.09954 ,1.51360 ,14.85145 
249 ,45.7379 ,1.10142 ,1.51360 ,14.85145 
250 ,45.9461 ,1.10350 ,1.48280 ,14.54925 
251 ,46.1220 ,1.10534 ,1.46227 ,14.34778 
252 ,46.3142 ,1.10716 ,1.45200 ,14.24704 
253 ,46.5222 ,1.10913 ,1.44174 ,14.14631 
254 ,46.6983 ,1.11102 ,1.43831 ,14.11273 
255 ,46.8742 ,1.11279 ,1.41778 ,13.91126 
256 ,47.0507 ,1.11459 ,1.40067 ,13.74337 
257 ,47.2264 ,1.11633 ,1.37671 ,13.50832 
258 ,47.4186 ,1.11825 ,1.38698 ,13.60906 
259 ,47.5944 ,1.11997 ,1.35618 ,13.30685 
260 ,47.7707 ,1.12175 ,1.34249 ,13.17254 
261 ,47.9468 ,1.12350 ,1.32538 ,13.00465 
262 ,48.1228 ,1.12531 ,1.31512 ,12.90391 
263 ,48.2990 ,1.12710 ,1.31169 ,12.87033 
264 ,48.4751 ,1.12880 ,1.29800 ,12.73602 
265 ,48.6672 ,1.13070 ,1.27405 ,12.50097 
266 ,48.8591 ,1.13259 ,1.27063 ,12.46739 
267 ,49.0513 ,1.13459 ,1.24667 ,12.23235 
268 ,49.2433 ,1.13649 ,1.22956 ,12.06445 
269 ,49.4195 ,1.13821 ,1.21929 ,11.96372 
270 ,49.5956 ,1.14001 ,1.20903 ,11.86298 
271 ,49.7716 ,1.14181 ,1.19192 ,11.69509 
272 ,49.9636 ,1.14372 ,1.15770 ,11.35931 
273 ,50.1399 ,1.14542 ,1.17138 ,11.49362 
274 ,50.3319 ,1.14730 ,1.16796 ,11.46004 
275 ,50.5077 ,1.14912 ,1.13716 ,11.15784 
276 ,50.6838 ,1.15089 ,1.12005 ,10.98995 
277 ,50.8597 ,1.15274 ,1.12005 ,10.98995 
278 ,51.0364 ,1.15446 ,1.12347 ,11.02353 
279 ,51.2282 ,1.15635 ,1.07214 ,10.51985 
280 ,51.4043 ,1.15814 ,1.06530 ,10.45270 
281 ,51.5803 ,1.15985 ,1.05845 ,10.38554 
282 ,51.7564 ,1.16163 ,1.05845 ,10.38554 
283 ,51.9481 ,1.16346 ,1.02081 ,10.01618 
284 ,52.1246 ,1.16529 ,0.99685 ,9.78113 
285 ,52.3166 ,1.16724 ,1.02081 ,10.01618 
286 ,52.4927 ,1.16897 ,1.00028 ,9.81471 
287 ,52.6846 ,1.17083 ,0.99001 ,9.71397 
288 ,52.8609 ,1.17268 ,0.95579 ,9.37819 
289 ,53.0528 ,1.17453 ,0.94552 ,9.27745 
290 ,53.2446 ,1.17638 ,0.92841 ,9.10956 
291 ,53.4208 ,1.17822 ,0.93183 ,9.14314 
292 ,53.6292 ,1.18021 ,0.91472 ,8.97525 
293 ,53.8052 ,1.18211 ,0.89077 ,8.74020 
294 ,54.0132 ,1.18412 ,0.87023 ,8.53873 
295 ,54.1894 ,1.18590 ,0.86681 ,8.50515 
296 ,54.4133 ,1.18807 ,0.85654 ,8.40442 
297 ,54.5895 ,1.18993 ,0.82917 ,8.13579 
298 ,54.7817 ,1.19181 ,0.82917 ,8.13579 
299 ,54.9896 ,1.19385 ,0.80179 ,7.86717 
300 ,55.1658 ,1.19571 ,0.78810 ,7.73285 
301 ,55.3579 ,1.19762 ,0.77784 ,7.63212 
302 ,55.5498 ,1.19941 ,0.77441 ,7.59854 
303 ,55.7259 ,1.20129 ,0.74704 ,7.32991 
304 ,55.9018 ,1.20302 ,0.75046 ,7.36349 
305 ,56.0777 ,1.20487 ,0.72992 ,7.16202 
306 ,56.2537 ,1.20656 ,0.72992 ,7.16202 
307 ,56.4300 ,1.20833 ,0.70597 ,6.92697 
308 ,56.6383 ,1.21037 ,0.70255 ,6.89340 
309 ,56.8304 ,1.21231 ,0.66490 ,6.52403 
310 ,57.0063 ,1.21416 ,0.65806 ,6.45688 
311 ,57.1984 ,1.21600 ,0.64779 ,6.35614 
312 ,57.3905 ,1.21786 ,0.63068 ,6.18825 
313 ,57.5667 ,1.21978 ,0.61357 ,6.02036 
314 ,57.7430 ,1.22146 ,0.61015 ,5.98678 
315 ,57.9348 ,1.22339 ,0.59988 ,5.88605 
316 ,58.1109 ,1.22509 ,0.59304 ,5.81889 
317 ,58.2867 ,1.22690 ,0.56224 ,5.51668 
318 ,58.4631 ,1.22863 ,0.55882 ,5.48311 
319 ,58.6552 ,1.23047 ,0.55197 ,5.41595 
320 ,58.8472 ,1.23247 ,0.52802 ,5.18090 
321 ,59.0393 ,1.23440 ,0.52802 ,5.18090 
322 ,59.2154 ,1.23617 ,0.51433 ,5.04659 
323 ,59.4234 ,1.23822 ,0.49380 ,4.84512 
324 ,59.5994 ,1.23999 ,0.49037 ,4.81154 
325 ,59.7755 ,1.24176 ,0.48353 ,4.74438 
326 ,59.9356 ,1.24347 ,0.46642 ,4.57649 
327 ,60.1278 ,1.24523 ,0.43904 ,4.30787 
328 ,60.3197 ,1.24717 ,0.44246 ,4.34144 
329 ,60.5279 ,1.24923 ,0.40824 ,4.00566 
330 ,60.7039 ,1.25103 ,0.40482 ,3.97208 
331 ,60.8796 ,1.25280 ,0.39797 ,3.90493 
332 ,61.0561 ,1.25459 ,0.39455 ,3.87135 
333 ,61.2483 ,1.25647 ,0.36718 ,3.60272 
334 ,61.4560 ,1.25853 ,0.37060 ,3.63630 
335 ,61.6325 ,1.26038 ,0.33980 ,3.33410 
336 ,61.8086 ,1.26214 ,0.34322 ,3.36767 
337 ,62.0164 ,1.26412 ,0.33295 ,3.26694 
338 ,62.1926 ,1.26593 ,0.32269 ,3.16620 
339 ,62.3848 ,1.26786 ,0.29531 ,2.89758 
340 ,62.5768 ,1.26975 ,0.29531 ,2.89758 
341 ,62.7529 ,1.27148 ,0.27820 ,2.72969 
342 ,62.9290 ,1.27332 ,0.25767 ,2.52822 
343 ,63.1211 ,1.27514 ,0.26793 ,2.62895 
344 ,63.2971 ,1.27701 ,0.24398 ,2.39390 
345 ,63.4568 ,1.27866 ,0.23371 ,2.29317 
346 ,63.6331 ,1.28036 ,0.22344 ,2.19243 
347 ,63.8414 ,1.28234 ,0.21660 ,2.12528 
348 ,64.0174 ,1.28417 ,0.19607 ,1.92381 
349 ,64.1934 ,1.28597 ,0.18922 ,1.85665 
350 ,64.3856 ,1.28787 ,0.15500 ,1.52087 
351 ,64.5774 ,1.28979 ,0.17211 ,1.68876 
352 ,64.7377 ,1.29148 ,0.14473 ,1.42013 
353 ,64.9137 ,1.29319 ,0.14131 ,1.38655 
354 ,65.1058 ,1.29504 ,0.12762 ,1.25224 
355 ,65.2819 ,1.29683 ,0.11051 ,1.08435 
356 ,65.4578 ,1.29859 ,0.10709 ,1.05077 
357 ,65.6501 ,1.30043 ,0.09682 ,0.95004 
358 ,65.8421 ,1.30238 ,0.08314 ,0.81572 
359 ,66.0343 ,1.30424 ,0.07629 ,0.74857 
360 ,66.2264 ,1.30617 ,0.04207 ,0.41278 
361 ,66.4184 ,1.30817 ,0.04549 ,0.44636 
362 ,66.5784 ,1.30988 ,0.03522 ,0.34563 
363 ,66.7382 ,1.31149 ,0.02838 ,0.27847 
364 ,66.9146 ,1.31317 ,0.00443 ,0.04342 
365 ,67.1066 ,1.31508 ,-0.00242 ,-0.02373 
366 ,67.2824 ,1.31677 ,-0.02295 ,-0.22520 
367 ,67.4588 ,1.31858 ,-0.01953 ,-0.19163 
368 ,67.6347 ,1.32030 ,-0.01611 ,-0.15805 
369 ,67.8106 ,1.32224 ,-0.05033 ,-0.49383 
370 ,67.9871 ,1.32388 ,-0.05033 ,-0.49383 
371 ,68.1792 ,1.32579 ,-0.07428 ,-0.72888 
372 ,68.3550 ,1.32751 ,-0.07086 ,-0.69530 
373 ,68.5312 ,1.32931 ,-0.08113 ,-0.79604 
374 ,68.7074 ,1.33103 ,-0.10508 ,-1.03108 
375 ,68.8830 ,1.33280 ,-0.12219 ,-1.19898 
376 ,69.0596 ,1.33458 ,-0.12562 ,-1.23255 
377 ,69.2516 ,1.33640 ,-0.11877 ,-1.16540 
378 ,69.4438 ,1.33843 ,-0.13931 ,-1.36687 
379 ,69.6197 ,1.34019 ,-0.15642 ,-1.53476 
380 ,69.8118 ,1.34210 ,-0.15299 ,-1.50118 
381 ,70.0038 ,1.34394 ,-0.17353 ,-1.70265 
382 ,70.1799 ,1.34572 ,-0.19406 ,-1.90412 
383 ,70.3557 ,1.34753 ,-0.20090 ,-1.97128 
384 ,70.5481 ,1.34946 ,-0.21117 ,-2.07201 
385 ,70.7401 ,1.35133 ,-0.21459 ,-2.10559 
386 ,70.9322 ,1.35333 ,-0.22486 ,-2.20632 
387 ,71.1082 ,1.35505 ,-0.22828 ,-2.23990 
388 ,71.3002 ,1.35693 ,-0.23855 ,-2.34064 
389 ,71.4763 ,1.35873 ,-0.26593 ,-2.60926 
390 ,71.6526 ,1.36047 ,-0.25908 ,-2.54211 
391 ,71.8286 ,1.36228 ,-0.27961 ,-2.74358 
392 ,72.0205 ,1.36413 ,-0.30015 ,-2.94505 
393 ,72.1967 ,1.36595 ,-0.30699 ,-3.01220 
394 ,72.3888 ,1.36786 ,-0.31384 ,-3.07936 
395 ,72.5809 ,1.36974 ,-0.34121 ,-3.34799 
396 ,72.7570 ,1.37152 ,-0.32410 ,-3.18010 
397 ,72.9327 ,1.37331 ,-0.33437 ,-3.28083 
398 ,73.1247 ,1.37510 ,-0.35148 ,-3.44872 
399 ,73.3012 ,1.37698 ,-0.37886 ,-3.71735 
400 ,73.4773 ,1.37876 ,-0.38570 ,-3.78450 
401 ,73.6533 ,1.38051 ,-0.37201 ,-3.65019 
402 ,73.8453 ,1.38238 ,-0.40966 ,-4.01955 
403 ,74.0374 ,1.38436 ,-0.41308 ,-4.05313 
404 ,74.2131 ,1.38605 ,-0.39597 ,-3.88524 
405 ,74.3896 ,1.38786 ,-0.41650 ,-4.08671 
406 ,74.5655 ,1.38962 ,-0.43019 ,-4.22102 
407 ,74.7418 ,1.39135 ,-0.44388 ,-4.35534 
408 ,74.9177 ,1.39313 ,-0.46099 ,-4.52323 
409 ,75.0938 ,1.39490 ,-0.46099 ,-4.52323 
410 ,75.2859 ,1.39678 ,-0.47126 ,-4.62396 
411 ,75.4617 ,1.39858 ,-0.49521 ,-4.85901 
412 ,75.6378 ,1.40038 ,-0.48837 ,-4.79185 
413 ,75.8142 ,1.40208 ,-0.49521 ,-4.85901 
414 ,75.9900 ,1.40390 ,-0.49863 ,-4.89259 
415 ,76.1662 ,1.40562 ,-0.52601 ,-5.16121 
416 ,76.3582 ,1.40752 ,-0.52943 ,-5.19479 
417 ,76.5342 ,1.40930 ,-0.54312 ,-5.32911 
418 ,76.7264 ,1.41121 ,-0.54997 ,-5.39626 
419 ,76.9185 ,1.41306 ,-0.57050 ,-5.59773 
420 ,77.1104 ,1.41500 ,-0.56023 ,-5.49700 
421 ,77.3027 ,1.41686 ,-0.59103 ,-5.79920 
422 ,77.4949 ,1.41880 ,-0.58077 ,-5.69847 
423 ,77.6708 ,1.42074 ,-0.59445 ,-5.83278 
424 ,77.8470 ,1.42244 ,-0.59788 ,-5.86636 
425 ,78.0230 ,1.42422 ,-0.61841 ,-6.06783 
426 ,78.2150 ,1.42601 ,-0.61841 ,-6.06783 
427 ,78.4067 ,1.42794 ,-0.61841 ,-6.06783 
428 ,78.5831 ,1.42975 ,-0.62868 ,-6.16856 
429 ,78.7753 ,1.43164 ,-0.63552 ,-6.23572 
430 ,78.9514 ,1.43343 ,-0.64921 ,-6.37003 
431 ,79.1433 ,1.43534 ,-0.67316 ,-6.60508 
432 ,79.3196 ,1.43715 ,-0.68343 ,-6.70582 
433 ,79.5116 ,1.43900 ,-0.67316 ,-6.60508 
434 ,79.7196 ,1.44100 ,-0.69027 ,-6.77297 
435 ,79.8958 ,1.44285 ,-0.69027 ,-6.77297 
436 ,80.1037 ,1.44490 ,-0.70739 ,-6.94086 
437 ,80.2958 ,1.44690 ,-0.70739 ,-6.94086 
438 ,80.4717 ,1.44865 ,-0.72450 ,-7.10876 
439 ,80.6481 ,1.45043 ,-0.72450 ,-7.10876 
440 ,80.8401 ,1.45229 ,-0.75872 ,-7.44454 
441 ,81.0162 ,1.45410 ,-0.74845 ,-7.34380 
442 ,81.1923 ,1.45587 ,-0.76556 ,-7.51170 
443 ,81.3843 ,1.45775 ,-0.77583 ,-7.61243 
444 ,81.5600 ,1.45960 ,-0.79636 ,-7.81390 
445 ,81.7525 ,1.46142 ,-0.78610 ,-7.71317 
446 ,81.9606 ,1.46344 ,-0.81347 ,-7.98179 
447 ,82.1367 ,1.46528 ,-0.82716 ,-8.11611 
448 ,82.3285 ,1.46720 ,-0.80321 ,-7.88106 
449 ,82.5047 ,1.46900 ,-0.83058 ,-8.14968 
450 ,82.6807 ,1.47072 ,-0.85112 ,-8.35115 
451 ,82.8569 ,1.47248 ,-0.84769 ,-8.31758 
452 ,83.0329 ,1.47423 ,-0.85112 ,-8.35115 
453 ,83.2091 ,1.47598 ,-0.85454 ,-8.38473 
454 ,83.3850 ,1.47777 ,-0.87165 ,-8.55262 
455 ,83.5609 ,1.47952 ,-0.89560 ,-8.78767 
456 ,83.7372 ,1.48128 ,-0.89560 ,-8.78767 
457 ,83.9134 ,1.48308 ,-0.88534 ,-8.68694 
458 ,84.1055 ,1.48497 ,-0.90929 ,-8.92198 
459 ,84.2814 ,1.48671 ,-0.91272 ,-8.95556 
460 ,84.4577 ,1.48851 ,-0.91956 ,-9.02272 
461 ,84.6176 ,1.49021 ,-0.93667 ,-9.19061 
462 ,84.7777 ,1.49178 ,-0.93325 ,-9.15703 
463 ,84.9538 ,1.49344 ,-0.93667 ,-9.19061 
