Data stamp = , 01-04-2022 11:06:17 915

Calibration Values: 
Slope = , 26.54 , g/V 
Offset Voltage at no contact = , -0.501760 , V 

No , Time , Stage Position ,   Mass , Force 
   ,  (s) ,      (mm)      ,   (g)  , (mN)  

1 ,0.0000 ,0.64943 ,5.25061 ,51.51896 
2 ,0.2195 ,0.64950 ,5.24718 ,51.48538 
3 ,0.5238 ,0.65036 ,5.24718 ,51.48538 
4 ,0.7159 ,0.65173 ,5.24034 ,51.41822 
5 ,0.9239 ,0.65335 ,5.24376 ,51.45180 
6 ,1.1321 ,0.65540 ,5.24376 ,51.45180 
7 ,1.3240 ,0.65736 ,5.25061 ,51.51896 
8 ,1.5002 ,0.65919 ,5.25403 ,51.55254 
9 ,1.6763 ,0.66099 ,5.24718 ,51.48538 
10 ,1.8522 ,0.66269 ,5.20954 ,51.11602 
11 ,2.0605 ,0.66465 ,5.21981 ,51.21675 
12 ,2.2686 ,0.66676 ,5.19243 ,50.94813 
13 ,2.4446 ,0.66864 ,5.18901 ,50.91455 
14 ,2.6206 ,0.67037 ,5.17190 ,50.74666 
15 ,2.7966 ,0.67212 ,5.16163 ,50.64592 
16 ,2.9728 ,0.67402 ,5.13768 ,50.41087 
17 ,3.1489 ,0.67566 ,5.11714 ,50.20940 
18 ,3.3570 ,0.67762 ,5.10003 ,50.04151 
19 ,3.5490 ,0.67966 ,5.08977 ,49.94078 
20 ,3.7250 ,0.68141 ,5.08977 ,49.94078 
21 ,3.9172 ,0.68330 ,5.05212 ,49.57142 
22 ,4.0933 ,0.68511 ,5.03843 ,49.43710 
23 ,4.2533 ,0.68687 ,5.02474 ,49.30279 
24 ,4.4293 ,0.68845 ,5.02132 ,49.26921 
25 ,4.6056 ,0.69025 ,5.01448 ,49.20205 
26 ,4.7975 ,0.69216 ,4.99737 ,49.03416 
27 ,4.9733 ,0.69391 ,4.95972 ,48.66480 
28 ,5.1658 ,0.69569 ,4.94946 ,48.56407 
29 ,5.3739 ,0.69789 ,4.92892 ,48.36260 
30 ,5.5498 ,0.69969 ,4.92208 ,48.29544 
31 ,5.7260 ,0.70142 ,4.92550 ,48.32902 
32 ,5.9020 ,0.70315 ,4.89470 ,48.02681 
33 ,6.0777 ,0.70502 ,4.87075 ,47.79177 
34 ,6.2541 ,0.70674 ,4.84337 ,47.52314 
35 ,6.4299 ,0.70849 ,4.83310 ,47.42240 
36 ,6.6064 ,0.71024 ,4.83310 ,47.42240 
37 ,6.7981 ,0.71209 ,4.80230 ,47.12020 
38 ,6.9904 ,0.71397 ,4.78861 ,46.98589 
39 ,7.1665 ,0.71582 ,4.78519 ,46.95231 
40 ,7.3427 ,0.71757 ,4.75782 ,46.68368 
41 ,7.5187 ,0.71939 ,4.73386 ,46.44863 
42 ,7.7108 ,0.72127 ,4.71675 ,46.28074 
43 ,7.9028 ,0.72312 ,4.69964 ,46.11285 
44 ,8.0789 ,0.72492 ,4.68595 ,45.97854 
45 ,8.2549 ,0.72668 ,4.65515 ,45.67633 
46 ,8.4311 ,0.72847 ,4.65173 ,45.64275 
47 ,8.6232 ,0.73038 ,4.63804 ,45.50844 
48 ,8.7992 ,0.73213 ,4.61408 ,45.27339 
49 ,8.9750 ,0.73388 ,4.58671 ,45.00477 
50 ,9.1509 ,0.73570 ,4.58328 ,44.97119 
51 ,9.3270 ,0.73739 ,4.56960 ,44.83688 
52 ,9.5031 ,0.73918 ,4.55933 ,44.73614 
53 ,9.6632 ,0.74088 ,4.53537 ,44.50109 
54 ,9.8396 ,0.74255 ,4.51484 ,44.29962 
55 ,10.0317 ,0.74439 ,4.49431 ,44.09815 
56 ,10.2078 ,0.74627 ,4.49431 ,44.09815 
57 ,10.3838 ,0.74802 ,4.47035 ,43.86310 
58 ,10.5599 ,0.74980 ,4.43613 ,43.52732 
59 ,10.7520 ,0.75169 ,4.43955 ,43.56090 
60 ,10.9441 ,0.75357 ,4.41902 ,43.35943 
61 ,11.1202 ,0.75538 ,4.40191 ,43.19154 
62 ,11.2963 ,0.75716 ,4.36769 ,42.85576 
63 ,11.4723 ,0.75891 ,4.35742 ,42.75502 
64 ,11.6643 ,0.76076 ,4.35742 ,42.75502 
65 ,11.8402 ,0.76252 ,4.33347 ,42.51997 
66 ,12.0165 ,0.76436 ,4.30267 ,42.21777 
67 ,12.2083 ,0.76618 ,4.31636 ,42.35208 
68 ,12.3845 ,0.76800 ,4.29240 ,42.11703 
69 ,12.5605 ,0.76981 ,4.25476 ,41.74767 
70 ,12.7207 ,0.77147 ,4.23765 ,41.57978 
71 ,12.8970 ,0.77310 ,4.21711 ,41.37831 
72 ,13.0730 ,0.77487 ,4.20685 ,41.27758 
73 ,13.2490 ,0.77664 ,4.21369 ,41.34473 
74 ,13.4090 ,0.77836 ,4.17947 ,41.00895 
75 ,13.5850 ,0.78000 ,4.16236 ,40.84106 
76 ,13.7611 ,0.78175 ,4.13840 ,40.60601 
77 ,13.9374 ,0.78355 ,4.11787 ,40.40454 
78 ,14.1133 ,0.78533 ,4.11445 ,40.37096 
79 ,14.2897 ,0.78705 ,4.11103 ,40.33738 
80 ,14.4655 ,0.78883 ,4.08707 ,40.10233 
81 ,14.6576 ,0.79077 ,4.07338 ,39.96802 
82 ,14.8497 ,0.79260 ,4.04600 ,39.69940 
83 ,15.0258 ,0.79443 ,4.03574 ,39.59866 
84 ,15.2179 ,0.79634 ,4.01863 ,39.43077 
85 ,15.4099 ,0.79819 ,4.00494 ,39.29646 
86 ,15.5857 ,0.79997 ,3.97414 ,38.99425 
87 ,15.7620 ,0.80179 ,3.94676 ,38.72562 
88 ,15.9542 ,0.80365 ,3.95703 ,38.82636 
89 ,16.1302 ,0.80547 ,3.94334 ,38.69205 
90 ,16.3223 ,0.80728 ,3.90570 ,38.32268 
91 ,16.4983 ,0.80913 ,3.88858 ,38.15479 
92 ,16.6740 ,0.81084 ,3.89201 ,38.18837 
93 ,16.8504 ,0.81263 ,3.88174 ,38.08764 
94 ,17.0426 ,0.81454 ,3.83725 ,37.65112 
95 ,17.2185 ,0.81635 ,3.83041 ,37.58396 
96 ,17.4104 ,0.81826 ,3.83041 ,37.58396 
97 ,17.5869 ,0.81999 ,3.79961 ,37.28176 
98 ,17.7788 ,0.82187 ,3.77223 ,37.01313 
99 ,17.9549 ,0.82374 ,3.77223 ,37.01313 
100 ,18.1471 ,0.82560 ,3.75170 ,36.81166 
101 ,18.3230 ,0.82738 ,3.72774 ,36.57661 
102 ,18.4992 ,0.82912 ,3.70379 ,36.34157 
103 ,18.6752 ,0.83091 ,3.70721 ,36.37514 
104 ,18.8512 ,0.83261 ,3.70379 ,36.34157 
105 ,19.0273 ,0.83438 ,3.67299 ,36.03936 
106 ,19.2034 ,0.83610 ,3.65588 ,35.87147 
107 ,19.3956 ,0.83799 ,3.63192 ,35.63642 
108 ,19.6036 ,0.84015 ,3.61481 ,35.46853 
109 ,19.7795 ,0.84194 ,3.59428 ,35.26706 
110 ,19.9715 ,0.84378 ,3.59770 ,35.30064 
111 ,20.1638 ,0.84578 ,3.57375 ,35.06559 
112 ,20.3399 ,0.84757 ,3.54295 ,34.76338 
113 ,20.5159 ,0.84927 ,3.53952 ,34.72981 
114 ,20.6918 ,0.85102 ,3.53952 ,34.72981 
115 ,20.8677 ,0.85279 ,3.51899 ,34.52834 
116 ,21.0441 ,0.85454 ,3.49504 ,34.29329 
117 ,21.2523 ,0.85655 ,3.48477 ,34.19255 
118 ,21.4442 ,0.85852 ,3.46424 ,33.99108 
119 ,21.6203 ,0.86035 ,3.43344 ,33.68888 
120 ,21.7966 ,0.86206 ,3.42659 ,33.62172 
121 ,21.9724 ,0.86385 ,3.43001 ,33.65530 
122 ,22.1484 ,0.86557 ,3.40948 ,33.45383 
123 ,22.3405 ,0.86749 ,3.37184 ,33.08447 
124 ,22.5167 ,0.86927 ,3.36499 ,33.01731 
125 ,22.7087 ,0.87118 ,3.34788 ,32.84942 
126 ,22.8848 ,0.87297 ,3.32735 ,32.64795 
127 ,23.0446 ,0.87466 ,3.31024 ,32.48006 
128 ,23.2369 ,0.87641 ,3.31708 ,32.54722 
129 ,23.4128 ,0.87824 ,3.30682 ,32.44648 
130 ,23.6212 ,0.88031 ,3.26917 ,32.07712 
131 ,23.7969 ,0.88210 ,3.26575 ,32.04354 
132 ,23.9733 ,0.88385 ,3.26233 ,32.00996 
133 ,24.1652 ,0.88574 ,3.21442 ,31.53987 
134 ,24.3575 ,0.88771 ,3.21784 ,31.57345 
135 ,24.5493 ,0.88959 ,3.19388 ,31.33840 
136 ,24.7256 ,0.89140 ,3.18362 ,31.23766 
137 ,24.9015 ,0.89312 ,3.15624 ,30.96904 
138 ,25.0774 ,0.89498 ,3.16309 ,31.03619 
139 ,25.2539 ,0.89663 ,3.14597 ,30.86830 
140 ,25.4299 ,0.89845 ,3.12886 ,30.70041 
141 ,25.6219 ,0.90033 ,3.09464 ,30.36463 
142 ,25.7976 ,0.90204 ,3.10149 ,30.43178 
143 ,25.9902 ,0.90389 ,3.09464 ,30.36463 
144 ,26.1657 ,0.90574 ,3.05358 ,29.96169 
145 ,26.3423 ,0.90755 ,3.03989 ,29.82737 
146 ,26.5343 ,0.90946 ,3.03989 ,29.82737 
147 ,26.7105 ,0.91119 ,3.01593 ,29.59233 
148 ,26.9024 ,0.91309 ,2.98855 ,29.32370 
149 ,27.0786 ,0.91486 ,2.99540 ,29.39086 
150 ,27.2545 ,0.91661 ,2.98513 ,29.29012 
151 ,27.4467 ,0.91858 ,2.95091 ,28.95434 
152 ,27.6386 ,0.92049 ,2.93722 ,28.82003 
153 ,27.8148 ,0.92220 ,2.93380 ,28.78645 
154 ,27.9911 ,0.92397 ,2.90642 ,28.51782 
155 ,28.1671 ,0.92580 ,2.88931 ,28.34993 
156 ,28.3431 ,0.92754 ,2.87220 ,28.18204 
157 ,28.5191 ,0.92926 ,2.85509 ,28.01415 
158 ,28.7113 ,0.93119 ,2.84482 ,27.91341 
159 ,28.9034 ,0.93307 ,2.83114 ,27.77910 
160 ,29.0792 ,0.93491 ,2.82087 ,27.67836 
161 ,29.2555 ,0.93661 ,2.81060 ,27.57763 
162 ,29.4316 ,0.93845 ,2.79349 ,27.40974 
163 ,29.6235 ,0.94033 ,2.77296 ,27.20827 
164 ,29.7997 ,0.94205 ,2.76954 ,27.17469 
165 ,30.0076 ,0.94400 ,2.74216 ,26.90606 
166 ,30.1839 ,0.94592 ,2.72505 ,26.73817 
167 ,30.3759 ,0.94780 ,2.71478 ,26.63744 
168 ,30.5519 ,0.94960 ,2.68740 ,26.36881 
169 ,30.7279 ,0.95139 ,2.67714 ,26.26807 
170 ,30.9042 ,0.95313 ,2.65660 ,26.06661 
171 ,31.0802 ,0.95492 ,2.64976 ,25.99945 
172 ,31.2882 ,0.95686 ,2.62923 ,25.79798 
173 ,31.4643 ,0.95884 ,2.61554 ,25.66367 
174 ,31.6404 ,0.96043 ,2.61212 ,25.63009 
175 ,31.8165 ,0.96222 ,2.59158 ,25.42862 
176 ,31.9930 ,0.96400 ,2.57789 ,25.29430 
177 ,32.1687 ,0.96573 ,2.55052 ,25.02568 
178 ,32.3448 ,0.96754 ,2.54025 ,24.92494 
179 ,32.5208 ,0.96929 ,2.52314 ,24.75705 
180 ,32.6966 ,0.97111 ,2.49918 ,24.52200 
181 ,32.8730 ,0.97282 ,2.50261 ,24.55558 
182 ,33.0489 ,0.97454 ,2.48207 ,24.35411 
183 ,33.2251 ,0.97630 ,2.46496 ,24.18622 
184 ,33.4011 ,0.97809 ,2.45812 ,24.11906 
185 ,33.5771 ,0.97978 ,2.43759 ,23.91759 
186 ,33.7693 ,0.98166 ,2.42390 ,23.78328 
187 ,33.9773 ,0.98382 ,2.40679 ,23.61539 
188 ,34.1531 ,0.98560 ,2.38968 ,23.44750 
189 ,34.3295 ,0.98735 ,2.36914 ,23.24603 
190 ,34.5053 ,0.98911 ,2.34861 ,23.04456 
191 ,34.6817 ,0.99089 ,2.35545 ,23.11171 
192 ,34.8738 ,0.99280 ,2.33150 ,22.87667 
193 ,35.0659 ,0.99469 ,2.31781 ,22.74235 
194 ,35.2578 ,0.99656 ,2.31097 ,22.67520 
195 ,35.4340 ,0.99843 ,2.28701 ,22.44015 
196 ,35.6261 ,1.00032 ,2.25279 ,22.10437 
197 ,35.8181 ,1.00219 ,2.24937 ,22.07079 
198 ,36.0102 ,1.00412 ,2.22199 ,21.80216 
199 ,36.1861 ,1.00598 ,2.21515 ,21.73500 
200 ,36.3623 ,1.00770 ,2.20830 ,21.66785 
201 ,36.5382 ,1.00944 ,2.19119 ,21.49996 
202 ,36.7143 ,1.01119 ,2.17408 ,21.33206 
203 ,36.9066 ,1.01307 ,2.16039 ,21.19775 
204 ,37.0827 ,1.01491 ,2.15697 ,21.16417 
205 ,37.2747 ,1.01676 ,2.12617 ,20.86197 
206 ,37.4669 ,1.01869 ,2.11590 ,20.76123 
207 ,37.6586 ,1.02062 ,2.10906 ,20.69408 
208 ,37.8349 ,1.02237 ,2.09195 ,20.52619 
209 ,38.0111 ,1.02417 ,2.05430 ,20.15682 
210 ,38.1872 ,1.02594 ,2.05088 ,20.12325 
211 ,38.3792 ,1.02778 ,2.03719 ,19.98893 
212 ,38.5713 ,1.02973 ,2.02008 ,19.82104 
213 ,38.7632 ,1.03167 ,2.00982 ,19.72031 
214 ,38.9392 ,1.03345 ,1.99955 ,19.61957 
215 ,39.1316 ,1.03532 ,1.95848 ,19.21663 
216 ,39.3076 ,1.03715 ,1.95848 ,19.21663 
217 ,39.4837 ,1.03895 ,1.95506 ,19.18305 
218 ,39.6918 ,1.04090 ,1.94479 ,19.08232 
219 ,39.8678 ,1.04284 ,1.92426 ,18.88085 
220 ,40.0600 ,1.04462 ,1.91399 ,18.78011 
221 ,40.2361 ,1.04642 ,1.90715 ,18.71296 
222 ,40.4441 ,1.04843 ,1.87977 ,18.44433 
223 ,40.6362 ,1.05034 ,1.86608 ,18.31002 
224 ,40.8120 ,1.05215 ,1.83528 ,18.00781 
225 ,40.9886 ,1.05393 ,1.81817 ,17.83992 
226 ,41.1640 ,1.05568 ,1.80791 ,17.73919 
227 ,41.3405 ,1.05746 ,1.79422 ,17.60487 
228 ,41.5165 ,1.05921 ,1.79080 ,17.57129 
229 ,41.6926 ,1.06093 ,1.76000 ,17.26909 
230 ,41.8684 ,1.06273 ,1.74289 ,17.10120 
231 ,42.0604 ,1.06458 ,1.74973 ,17.16836 
232 ,42.2205 ,1.06639 ,1.71893 ,16.86615 
233 ,42.3970 ,1.06798 ,1.71893 ,16.86615 
234 ,42.5887 ,1.06992 ,1.69840 ,16.66468 
235 ,42.7645 ,1.07168 ,1.69155 ,16.59752 
236 ,42.9406 ,1.07343 ,1.68471 ,16.53037 
237 ,43.1172 ,1.07524 ,1.66075 ,16.29532 
238 ,43.3414 ,1.07734 ,1.65049 ,16.19458 
239 ,43.5174 ,1.07920 ,1.64364 ,16.12743 
240 ,43.7094 ,1.08113 ,1.61284 ,15.82522 
241 ,43.9015 ,1.08305 ,1.59916 ,15.69091 
242 ,44.0615 ,1.08476 ,1.59916 ,15.69091 
243 ,44.2375 ,1.08639 ,1.57520 ,15.45586 
244 ,44.4298 ,1.08831 ,1.56151 ,15.32155 
245 ,44.6538 ,1.09032 ,1.53413 ,15.05292 
246 ,44.8459 ,1.09247 ,1.51702 ,14.88503 
247 ,45.0215 ,1.09426 ,1.52729 ,14.98577 
248 ,45.1982 ,1.09599 ,1.49991 ,14.71714 
249 ,45.3900 ,1.09793 ,1.47938 ,14.51567 
250 ,45.5659 ,1.09968 ,1.47253 ,14.44851 
251 ,45.7423 ,1.10140 ,1.47596 ,14.48209 
252 ,45.9184 ,1.10325 ,1.44516 ,14.17989 
253 ,46.1101 ,1.10509 ,1.42120 ,13.94484 
254 ,46.3026 ,1.10694 ,1.41778 ,13.91126 
255 ,46.4947 ,1.10898 ,1.39383 ,13.67621 
256 ,46.6705 ,1.11070 ,1.38014 ,13.54190 
257 ,46.8468 ,1.11252 ,1.37329 ,13.47474 
258 ,47.0229 ,1.11423 ,1.36987 ,13.44116 
259 ,47.2305 ,1.11625 ,1.34934 ,13.23969 
260 ,47.4391 ,1.11828 ,1.31854 ,12.93749 
261 ,47.6632 ,1.12053 ,1.31512 ,12.90391 
262 ,47.8712 ,1.12270 ,1.30143 ,12.76960 
263 ,48.0472 ,1.12443 ,1.29800 ,12.73602 
264 ,48.2230 ,1.12625 ,1.27747 ,12.53455 
265 ,48.3997 ,1.12802 ,1.26720 ,12.43381 
266 ,48.6076 ,1.13001 ,1.26036 ,12.36666 
267 ,48.7998 ,1.13201 ,1.22614 ,12.03088 
268 ,48.9757 ,1.13376 ,1.20903 ,11.86298 
269 ,49.1997 ,1.13574 ,1.19534 ,11.72867 
270 ,49.3758 ,1.13771 ,1.17823 ,11.56078 
271 ,49.5516 ,1.13955 ,1.16112 ,11.39289 
272 ,49.7440 ,1.14135 ,1.18165 ,11.59436 
273 ,49.9200 ,1.14325 ,1.15085 ,11.29215 
274 ,50.0960 ,1.14497 ,1.13374 ,11.12426 
275 ,50.2721 ,1.14670 ,1.11321 ,10.92279 
276 ,50.4643 ,1.14861 ,1.10294 ,10.82206 
277 ,50.6403 ,1.15043 ,1.10979 ,10.88921 
278 ,50.8161 ,1.15213 ,1.08241 ,10.62059 
279 ,50.9927 ,1.15392 ,1.06872 ,10.48627 
280 ,51.1844 ,1.15580 ,1.06530 ,10.45270 
281 ,51.3604 ,1.15759 ,1.05161 ,10.31838 
282 ,51.5523 ,1.15953 ,1.02081 ,10.01618 
283 ,51.7289 ,1.16128 ,1.02081 ,10.01618 
284 ,51.9208 ,1.16320 ,1.01396 ,9.94902 
285 ,52.1128 ,1.16516 ,0.99685 ,9.78113 
286 ,52.3049 ,1.16701 ,0.99001 ,9.71397 
287 ,52.4805 ,1.16878 ,0.97290 ,9.54608 
288 ,52.6570 ,1.17055 ,0.95921 ,9.41177 
289 ,52.8331 ,1.17231 ,0.92841 ,9.10956 
290 ,53.0253 ,1.17413 ,0.93525 ,9.17672 
291 ,53.2174 ,1.17612 ,0.91814 ,9.00883 
292 ,53.3935 ,1.17789 ,0.90446 ,8.87451 
293 ,53.5694 ,1.17979 ,0.90446 ,8.87451 
294 ,53.7456 ,1.18141 ,0.89077 ,8.74020 
295 ,53.9216 ,1.18319 ,0.87708 ,8.60589 
296 ,54.1137 ,1.18510 ,0.85654 ,8.40442 
297 ,54.3057 ,1.18696 ,0.83601 ,8.20295 
298 ,54.4820 ,1.18880 ,0.82575 ,8.10221 
299 ,54.6578 ,1.19060 ,0.81890 ,8.03506 
300 ,54.8501 ,1.19248 ,0.81548 ,8.00148 
301 ,55.0260 ,1.19423 ,0.80521 ,7.90074 
302 ,55.2022 ,1.19604 ,0.79152 ,7.76643 
303 ,55.3784 ,1.19773 ,0.76757 ,7.53138 
304 ,55.5543 ,1.19954 ,0.74704 ,7.32991 
305 ,55.7465 ,1.20139 ,0.75046 ,7.36349 
306 ,55.9385 ,1.20336 ,0.72650 ,7.12844 
307 ,56.1147 ,1.20518 ,0.71281 ,6.99413 
308 ,56.3067 ,1.20703 ,0.72650 ,7.12844 
309 ,56.4827 ,1.20882 ,0.70939 ,6.96055 
310 ,56.6584 ,1.21059 ,0.67859 ,6.65835 
311 ,56.8349 ,1.21235 ,0.66833 ,6.55761 
312 ,57.0430 ,1.21433 ,0.65121 ,6.38972 
313 ,57.2190 ,1.21617 ,0.64779 ,6.35614 
314 ,57.4110 ,1.21801 ,0.63068 ,6.18825 
315 ,57.5872 ,1.21987 ,0.62726 ,6.15467 
316 ,57.7469 ,1.22153 ,0.60330 ,5.91962 
317 ,57.9232 ,1.22318 ,0.61015 ,5.98678 
318 ,58.0995 ,1.22496 ,0.58277 ,5.71815 
319 ,58.2754 ,1.22675 ,0.57251 ,5.61742 
320 ,58.4515 ,1.22847 ,0.56908 ,5.58384 
321 ,58.6276 ,1.23026 ,0.56224 ,5.51668 
322 ,58.8032 ,1.23200 ,0.55197 ,5.41595 
323 ,58.9795 ,1.23376 ,0.52802 ,5.18090 
324 ,59.1719 ,1.23564 ,0.52117 ,5.11375 
325 ,59.3479 ,1.23748 ,0.51091 ,5.01301 
326 ,59.5399 ,1.23936 ,0.49037 ,4.81154 
327 ,59.7157 ,1.24112 ,0.45957 ,4.50934 
328 ,59.8917 ,1.24289 ,0.46984 ,4.61007 
329 ,60.0680 ,1.24465 ,0.46300 ,4.54291 
330 ,60.2442 ,1.24647 ,0.46300 ,4.54291 
331 ,60.4203 ,1.24819 ,0.43904 ,4.30787 
332 ,60.6124 ,1.25010 ,0.42535 ,4.17355 
333 ,60.8043 ,1.25200 ,0.41851 ,4.10640 
334 ,60.9806 ,1.25379 ,0.40482 ,3.97208 
335 ,61.1726 ,1.25567 ,0.40140 ,3.93850 
336 ,61.3486 ,1.25749 ,0.38771 ,3.80419 
337 ,61.5245 ,1.25917 ,0.37402 ,3.66988 
338 ,61.7009 ,1.26095 ,0.35349 ,3.46841 
339 ,61.8769 ,1.26272 ,0.32953 ,3.23336 
340 ,62.0529 ,1.26449 ,0.33295 ,3.26694 
341 ,62.2290 ,1.26624 ,0.32611 ,3.19978 
342 ,62.4052 ,1.26804 ,0.31584 ,3.09905 
343 ,62.5810 ,1.26979 ,0.29873 ,2.93116 
344 ,62.7571 ,1.27150 ,0.28162 ,2.76326 
345 ,62.9493 ,1.27342 ,0.27478 ,2.69611 
346 ,63.1253 ,1.27520 ,0.26451 ,2.59537 
347 ,63.3174 ,1.27705 ,0.24740 ,2.42748 
348 ,63.4935 ,1.27890 ,0.21660 ,2.12528 
349 ,63.6536 ,1.28059 ,0.23029 ,2.25959 
350 ,63.8297 ,1.28228 ,0.20976 ,2.05812 
351 ,64.0219 ,1.28415 ,0.20291 ,1.99096 
352 ,64.1976 ,1.28596 ,0.17896 ,1.75592 
353 ,64.3901 ,1.28784 ,0.18238 ,1.78949 
354 ,64.5820 ,1.28978 ,0.16185 ,1.58802 
355 ,64.7581 ,1.29158 ,0.14473 ,1.42013 
356 ,64.9342 ,1.29330 ,0.13447 ,1.31940 
357 ,65.1101 ,1.29502 ,0.14131 ,1.38655 
358 ,65.3023 ,1.29698 ,0.12420 ,1.21866 
359 ,65.4948 ,1.29889 ,0.10367 ,1.01719 
360 ,65.6864 ,1.30078 ,0.10025 ,0.98361 
361 ,65.8624 ,1.30260 ,0.08314 ,0.81572 
362 ,66.0386 ,1.30432 ,0.05918 ,0.58067 
363 ,66.2304 ,1.30625 ,0.06260 ,0.61425 
364 ,66.4069 ,1.30803 ,0.05234 ,0.51352 
365 ,66.5987 ,1.30992 ,0.02838 ,0.27847 
366 ,66.7750 ,1.31168 ,0.02154 ,0.21131 
367 ,66.9827 ,1.31370 ,0.00100 ,0.00984 
368 ,67.1591 ,1.31549 ,-0.00926 ,-0.09089 
369 ,67.3668 ,1.31751 ,-0.01269 ,-0.12447 
370 ,67.5433 ,1.31938 ,-0.02295 ,-0.22520 
371 ,67.7353 ,1.32130 ,-0.03322 ,-0.32594 
372 ,67.9114 ,1.32308 ,-0.03664 ,-0.35952 
373 ,68.1034 ,1.32501 ,-0.05375 ,-0.52741 
374 ,68.2795 ,1.32671 ,-0.07086 ,-0.69530 
375 ,68.4556 ,1.32850 ,-0.08455 ,-0.82961 
376 ,68.6636 ,1.33052 ,-0.10166 ,-0.99751 
377 ,68.8396 ,1.33231 ,-0.11535 ,-1.13182 
378 ,69.0158 ,1.33410 ,-0.11535 ,-1.13182 
379 ,69.2078 ,1.33600 ,-0.10851 ,-1.06466 
380 ,69.3996 ,1.33782 ,-0.12904 ,-1.26613 
381 ,69.5759 ,1.33967 ,-0.14615 ,-1.43402 
382 ,69.7520 ,1.34140 ,-0.14273 ,-1.40045 
383 ,69.9280 ,1.34318 ,-0.15299 ,-1.50118 
384 ,70.1041 ,1.34497 ,-0.17353 ,-1.70265 
385 ,70.2802 ,1.34678 ,-0.19064 ,-1.87054 
386 ,70.4720 ,1.34855 ,-0.20090 ,-1.97128 
387 ,70.6483 ,1.35038 ,-0.20090 ,-1.97128 
388 ,70.8404 ,1.35229 ,-0.22144 ,-2.17275 
389 ,71.0165 ,1.35407 ,-0.22144 ,-2.17275 
390 ,71.1927 ,1.35586 ,-0.23170 ,-2.27348 
391 ,71.3686 ,1.35760 ,-0.22828 ,-2.23990 
392 ,71.5445 ,1.35939 ,-0.24539 ,-2.40779 
393 ,71.7208 ,1.36117 ,-0.26593 ,-2.60926 
394 ,71.9129 ,1.36306 ,-0.25908 ,-2.54211 
395 ,72.1050 ,1.36496 ,-0.28646 ,-2.81073 
396 ,72.2810 ,1.36675 ,-0.29330 ,-2.87789 
397 ,72.4571 ,1.36847 ,-0.29673 ,-2.91147 
398 ,72.6332 ,1.37023 ,-0.29330 ,-2.87789 
399 ,72.8089 ,1.37200 ,-0.31384 ,-3.07936 
400 ,72.9853 ,1.37378 ,-0.33095 ,-3.24725 
401 ,73.1613 ,1.37548 ,-0.34464 ,-3.38156 
402 ,73.3536 ,1.37732 ,-0.35148 ,-3.44872 
403 ,73.5455 ,1.37927 ,-0.36517 ,-3.58303 
404 ,73.7215 ,1.38111 ,-0.37544 ,-3.68377 
405 ,73.9135 ,1.38296 ,-0.37544 ,-3.68377 
406 ,74.0898 ,1.38479 ,-0.37886 ,-3.71735 
407 ,74.2659 ,1.38659 ,-0.39597 ,-3.88524 
408 ,74.4579 ,1.38842 ,-0.40281 ,-3.95240 
409 ,74.6335 ,1.39029 ,-0.40623 ,-3.98597 
410 ,74.8100 ,1.39195 ,-0.42335 ,-4.15387 
411 ,74.9862 ,1.39380 ,-0.43703 ,-4.28818 
412 ,75.1622 ,1.39554 ,-0.45414 ,-4.45607 
413 ,75.3383 ,1.39727 ,-0.45757 ,-4.48965 
414 ,75.5304 ,1.39922 ,-0.45414 ,-4.45607 
415 ,75.7064 ,1.40103 ,-0.46783 ,-4.59038 
416 ,75.8824 ,1.40269 ,-0.49521 ,-4.85901 
417 ,76.0586 ,1.40453 ,-0.50206 ,-4.92617 
418 ,76.2346 ,1.40626 ,-0.49863 ,-4.89259 
419 ,76.4264 ,1.40816 ,-0.51574 ,-5.06048 
420 ,76.6028 ,1.40994 ,-0.51917 ,-5.09406 
421 ,76.7785 ,1.41170 ,-0.53285 ,-5.22837 
422 ,76.9550 ,1.41344 ,-0.54312 ,-5.32911 
423 ,77.1468 ,1.41536 ,-0.54654 ,-5.36268 
424 ,77.3232 ,1.41717 ,-0.55681 ,-5.46342 
425 ,77.5152 ,1.41902 ,-0.56708 ,-5.56415 
426 ,77.6912 ,1.42081 ,-0.56365 ,-5.53058 
427 ,77.8669 ,1.42255 ,-0.58761 ,-5.76562 
428 ,78.0435 ,1.42434 ,-0.60814 ,-5.96709 
429 ,78.2357 ,1.42626 ,-0.60814 ,-5.96709 
430 ,78.4116 ,1.42804 ,-0.61156 ,-6.00067 
431 ,78.6035 ,1.42996 ,-0.64236 ,-6.30288 
432 ,78.7796 ,1.43168 ,-0.63894 ,-6.26930 
433 ,78.9557 ,1.43345 ,-0.64579 ,-6.33646 
434 ,79.1318 ,1.43517 ,-0.65263 ,-6.40361 
435 ,79.3238 ,1.43715 ,-0.67316 ,-6.60508 
436 ,79.4997 ,1.43890 ,-0.66974 ,-6.57150 
437 ,79.6761 ,1.44065 ,-0.68343 ,-6.70582 
438 ,79.8520 ,1.44240 ,-0.67316 ,-6.60508 
439 ,80.0281 ,1.44412 ,-0.69027 ,-6.77297 
440 ,80.2043 ,1.44587 ,-0.71765 ,-7.04160 
441 ,80.3802 ,1.44769 ,-0.72107 ,-7.07518 
442 ,80.5564 ,1.44945 ,-0.72107 ,-7.07518 
443 ,80.7485 ,1.45139 ,-0.73476 ,-7.20949 
444 ,80.9242 ,1.45315 ,-0.74503 ,-7.31023 
445 ,81.1005 ,1.45486 ,-0.75530 ,-7.41096 
446 ,81.2766 ,1.45665 ,-0.75872 ,-7.44454 
447 ,81.4528 ,1.45843 ,-0.76556 ,-7.51170 
448 ,81.6444 ,1.46031 ,-0.77241 ,-7.57885 
449 ,81.8209 ,1.46207 ,-0.78267 ,-7.67959 
450 ,82.0129 ,1.46398 ,-0.79294 ,-7.78032 
451 ,82.1892 ,1.46579 ,-0.79294 ,-7.78032 
452 ,82.3970 ,1.46776 ,-0.80663 ,-7.91464 
453 ,82.5730 ,1.46960 ,-0.82032 ,-8.04895 
454 ,82.7652 ,1.47152 ,-0.84427 ,-8.28400 
455 ,82.9413 ,1.47325 ,-0.83743 ,-8.21684 
456 ,83.1171 ,1.47503 ,-0.84427 ,-8.28400 
457 ,83.2939 ,1.47682 ,-0.85796 ,-8.41831 
458 ,83.4855 ,1.47875 ,-0.87165 ,-8.55262 
459 ,83.6616 ,1.48045 ,-0.88534 ,-8.68694 
460 ,83.8538 ,1.48239 ,-0.88192 ,-8.65336 
461 ,84.0459 ,1.48424 ,-0.90587 ,-8.88841 
462 ,84.2215 ,1.48609 ,-0.91614 ,-8.98914 
463 ,84.4140 ,1.48796 ,-0.91272 ,-8.95556 
