Data stamp = , 31-03-2022 16:36:28 310

Calibration Values: 
Slope = , 26.54 , g/V 
Offset Voltage at no contact = , -0.501760 , V 

No , Time , Stage Position ,   Mass , Force 
   ,  (s) ,      (mm)      ,   (g)  , (mN)  

1 ,0.0000 ,0.69945 ,4.98368 ,48.89985 
2 ,0.2106 ,0.69951 ,5.00421 ,49.10132 
3 ,0.5147 ,0.70031 ,5.01448 ,49.20205 
4 ,0.6909 ,0.70154 ,5.00763 ,49.13490 
5 ,0.8829 ,0.70307 ,5.01448 ,49.20205 
6 ,1.0749 ,0.70486 ,4.99394 ,49.00058 
7 ,1.2511 ,0.70658 ,5.00079 ,49.06774 
8 ,1.4431 ,0.70853 ,5.01790 ,49.23563 
9 ,1.6351 ,0.71051 ,4.99052 ,48.96701 
10 ,1.8275 ,0.71248 ,4.99737 ,49.03416 
11 ,2.0194 ,0.71430 ,4.97341 ,48.79911 
12 ,2.1954 ,0.71617 ,4.96999 ,48.76554 
13 ,2.3715 ,0.71788 ,4.94261 ,48.49691 
14 ,2.5473 ,0.71968 ,4.92892 ,48.36260 
15 ,2.7395 ,0.72152 ,4.90839 ,48.16113 
16 ,2.9317 ,0.72353 ,4.88444 ,47.92608 
17 ,3.1075 ,0.72525 ,4.89128 ,47.99324 
18 ,3.3159 ,0.72732 ,4.87759 ,47.85892 
19 ,3.4918 ,0.72904 ,4.84337 ,47.52314 
20 ,3.6680 ,0.73083 ,4.83652 ,47.45598 
21 ,3.8441 ,0.73261 ,4.81599 ,47.25451 
22 ,4.0200 ,0.73439 ,4.80915 ,47.18736 
23 ,4.1963 ,0.73615 ,4.78519 ,46.95231 
24 ,4.4043 ,0.73806 ,4.78519 ,46.95231 
25 ,4.5802 ,0.73999 ,4.76124 ,46.71726 
26 ,4.7884 ,0.74201 ,4.74070 ,46.51579 
27 ,4.9646 ,0.74376 ,4.71333 ,46.24716 
28 ,5.1402 ,0.74560 ,4.71675 ,46.28074 
29 ,5.3166 ,0.74733 ,4.67226 ,45.84422 
30 ,5.4927 ,0.74905 ,4.65515 ,45.67633 
31 ,5.6687 ,0.75085 ,4.65173 ,45.64275 
32 ,5.8609 ,0.75277 ,4.64146 ,45.54202 
33 ,6.0528 ,0.75466 ,4.59697 ,45.10550 
34 ,6.2293 ,0.75646 ,4.60382 ,45.17266 
35 ,6.4050 ,0.75825 ,4.57644 ,44.90403 
36 ,6.5810 ,0.75996 ,4.54906 ,44.63541 
37 ,6.7571 ,0.76176 ,4.53880 ,44.53467 
38 ,6.9335 ,0.76356 ,4.51826 ,44.33320 
39 ,7.1255 ,0.76541 ,4.51142 ,44.26604 
40 ,7.3013 ,0.76717 ,4.48746 ,44.03100 
41 ,7.5095 ,0.76921 ,4.47720 ,43.93026 
42 ,7.6856 ,0.77100 ,4.46351 ,43.79595 
43 ,7.8776 ,0.77294 ,4.41902 ,43.35943 
44 ,8.0533 ,0.77468 ,4.39849 ,43.15796 
45 ,8.2300 ,0.77647 ,4.41560 ,43.32585 
46 ,8.4219 ,0.77842 ,4.39164 ,43.09080 
47 ,8.5980 ,0.78010 ,4.35742 ,42.75502 
48 ,8.7741 ,0.78189 ,4.34031 ,42.58713 
49 ,8.9497 ,0.78367 ,4.34716 ,42.65429 
50 ,9.1262 ,0.78539 ,4.32320 ,42.41924 
51 ,9.3183 ,0.78728 ,4.29240 ,42.11703 
52 ,9.4943 ,0.78906 ,4.28556 ,42.04988 
53 ,9.6702 ,0.79088 ,4.26502 ,41.84841 
54 ,9.8625 ,0.79279 ,4.25133 ,41.71409 
55 ,10.0545 ,0.79466 ,4.21369 ,41.34473 
56 ,10.2309 ,0.79651 ,4.22738 ,41.47905 
57 ,10.4227 ,0.79833 ,4.21027 ,41.31115 
58 ,10.6148 ,0.80030 ,4.17605 ,40.97537 
59 ,10.7908 ,0.80205 ,4.17947 ,41.00895 
60 ,10.9669 ,0.80380 ,4.16578 ,40.87464 
61 ,11.1431 ,0.80552 ,4.14183 ,40.63959 
62 ,11.3191 ,0.80738 ,4.12471 ,40.47170 
63 ,11.5111 ,0.80919 ,4.10076 ,40.23665 
64 ,11.7033 ,0.81117 ,4.09049 ,40.13591 
65 ,11.8794 ,0.81295 ,4.06654 ,39.90087 
66 ,12.0551 ,0.81474 ,4.04258 ,39.66582 
67 ,12.2321 ,0.81646 ,4.03574 ,39.59866 
68 ,12.4077 ,0.81826 ,4.03574 ,39.59866 
69 ,12.5675 ,0.81995 ,4.01178 ,39.36361 
70 ,12.7435 ,0.82158 ,3.98098 ,39.06141 
71 ,12.9362 ,0.82346 ,3.97072 ,38.96067 
72 ,13.1115 ,0.82527 ,3.95361 ,38.79278 
73 ,13.2878 ,0.82702 ,3.95703 ,38.82636 
74 ,13.4640 ,0.82875 ,3.93650 ,38.62489 
75 ,13.6400 ,0.83057 ,3.90570 ,38.32268 
76 ,13.8319 ,0.83247 ,3.89201 ,38.18837 
77 ,14.0077 ,0.83425 ,3.89543 ,38.22195 
78 ,14.1840 ,0.83595 ,3.86463 ,37.91975 
79 ,14.3763 ,0.83782 ,3.83725 ,37.65112 
80 ,14.5523 ,0.83964 ,3.83383 ,37.61754 
81 ,14.7446 ,0.84156 ,3.81672 ,37.44965 
82 ,14.9365 ,0.84349 ,3.79619 ,37.24818 
83 ,15.1128 ,0.84525 ,3.77908 ,37.08029 
84 ,15.2722 ,0.84697 ,3.76196 ,36.91240 
85 ,15.4486 ,0.84859 ,3.75854 ,36.87882 
86 ,15.6409 ,0.85050 ,3.71405 ,36.44230 
87 ,15.8170 ,0.85232 ,3.69352 ,36.24083 
88 ,16.0090 ,0.85417 ,3.68668 ,36.17367 
89 ,16.2011 ,0.85615 ,3.67299 ,36.03936 
90 ,16.3769 ,0.85787 ,3.63877 ,35.70358 
91 ,16.5692 ,0.85978 ,3.64903 ,35.80431 
92 ,16.7451 ,0.86156 ,3.62166 ,35.53569 
93 ,16.9375 ,0.86340 ,3.59770 ,35.30064 
94 ,17.1135 ,0.86525 ,3.59086 ,35.23348 
95 ,17.2895 ,0.86703 ,3.58401 ,35.16632 
96 ,17.4655 ,0.86885 ,3.54637 ,34.79696 
97 ,17.6578 ,0.87067 ,3.53268 ,34.66265 
98 ,17.8496 ,0.87258 ,3.52926 ,34.62907 
99 ,18.0258 ,0.87439 ,3.51215 ,34.46118 
100 ,18.2019 ,0.87609 ,3.47792 ,34.12540 
101 ,18.3780 ,0.87789 ,3.47108 ,34.05824 
102 ,18.5698 ,0.87980 ,3.45739 ,33.92393 
103 ,18.7621 ,0.88172 ,3.42659 ,33.62172 
104 ,18.9541 ,0.88357 ,3.40606 ,33.42025 
105 ,19.1303 ,0.88544 ,3.40948 ,33.45383 
106 ,19.3063 ,0.88719 ,3.38553 ,33.21878 
107 ,19.4821 ,0.88895 ,3.37184 ,33.08447 
108 ,19.6745 ,0.89079 ,3.33762 ,32.74869 
109 ,19.8666 ,0.89280 ,3.35130 ,32.88300 
110 ,20.0426 ,0.89457 ,3.32393 ,32.61437 
111 ,20.2187 ,0.89631 ,3.29313 ,32.31217 
112 ,20.3948 ,0.89807 ,3.28286 ,32.21143 
113 ,20.5705 ,0.89979 ,3.28628 ,32.24501 
114 ,20.7471 ,0.90160 ,3.26575 ,32.04354 
115 ,20.9390 ,0.90348 ,3.24180 ,31.80849 
116 ,21.1151 ,0.90527 ,3.22126 ,31.60702 
117 ,21.3070 ,0.90720 ,3.22468 ,31.64060 
118 ,21.4832 ,0.90898 ,3.19388 ,31.33840 
119 ,21.6428 ,0.91065 ,3.18020 ,31.20409 
120 ,21.8194 ,0.91236 ,3.15966 ,31.00262 
121 ,21.9793 ,0.91402 ,3.14940 ,30.90188 
122 ,22.1555 ,0.91564 ,3.13913 ,30.80115 
123 ,22.3317 ,0.91744 ,3.11860 ,30.59968 
124 ,22.5075 ,0.91921 ,3.11518 ,30.56610 
125 ,22.6834 ,0.92096 ,3.08780 ,30.29747 
126 ,22.8598 ,0.92268 ,3.06384 ,30.06242 
127 ,23.0519 ,0.92464 ,3.06042 ,30.02884 
128 ,23.2279 ,0.92639 ,3.04673 ,29.89453 
129 ,23.4039 ,0.92811 ,3.01935 ,29.62590 
130 ,23.5798 ,0.92991 ,2.99198 ,29.35728 
131 ,23.7558 ,0.93166 ,2.98513 ,29.29012 
132 ,23.9323 ,0.93349 ,2.96802 ,29.12223 
133 ,24.1243 ,0.93530 ,2.94749 ,28.92076 
134 ,24.3003 ,0.93711 ,2.93380 ,28.78645 
135 ,24.4765 ,0.93890 ,2.91327 ,28.58498 
136 ,24.6525 ,0.94062 ,2.89616 ,28.41709 
137 ,24.8281 ,0.94235 ,2.89958 ,28.45066 
138 ,25.0047 ,0.94418 ,2.87220 ,28.18204 
139 ,25.1967 ,0.94607 ,2.85509 ,28.01415 
140 ,25.3727 ,0.94779 ,2.85167 ,27.98057 
141 ,25.5489 ,0.94960 ,2.82429 ,27.71194 
142 ,25.7250 ,0.95138 ,2.80718 ,27.54405 
143 ,25.9008 ,0.95308 ,2.77980 ,27.27542 
144 ,26.0771 ,0.95486 ,2.77980 ,27.27542 
145 ,26.2529 ,0.95667 ,2.76611 ,27.14111 
146 ,26.4452 ,0.95849 ,2.72847 ,26.77175 
147 ,26.6211 ,0.96031 ,2.71478 ,26.63744 
148 ,26.7974 ,0.96205 ,2.69767 ,26.46954 
149 ,26.9733 ,0.96381 ,2.69425 ,26.43597 
150 ,27.1496 ,0.96559 ,2.68056 ,26.30165 
151 ,27.3416 ,0.96753 ,2.64634 ,25.96587 
152 ,27.5176 ,0.96923 ,2.64292 ,25.93229 
153 ,27.6938 ,0.97104 ,2.63607 ,25.86514 
154 ,27.8858 ,0.97293 ,2.59843 ,25.49577 
155 ,28.0456 ,0.97465 ,2.59158 ,25.42862 
156 ,28.2221 ,0.97631 ,2.56421 ,25.15999 
157 ,28.3978 ,0.97805 ,2.55736 ,25.09283 
158 ,28.5739 ,0.97980 ,2.56763 ,25.19357 
159 ,28.7502 ,0.98159 ,2.53683 ,24.89136 
160 ,28.9261 ,0.98333 ,2.50261 ,24.55558 
161 ,29.1023 ,0.98510 ,2.49918 ,24.52200 
162 ,29.3104 ,0.98709 ,2.49234 ,24.45485 
163 ,29.5022 ,0.98907 ,2.45812 ,24.11906 
164 ,29.6785 ,0.99083 ,2.44785 ,24.01833 
165 ,29.8703 ,0.99281 ,2.44101 ,23.95117 
166 ,30.0624 ,0.99465 ,2.41021 ,23.64897 
167 ,30.2388 ,0.99644 ,2.39994 ,23.54823 
168 ,30.4149 ,0.99828 ,2.38968 ,23.44750 
169 ,30.6066 ,1.00006 ,2.36914 ,23.24603 
170 ,30.7825 ,1.00187 ,2.34861 ,23.04456 
171 ,30.9585 ,1.00366 ,2.33492 ,22.91024 
172 ,31.1347 ,1.00544 ,2.31781 ,22.74235 
173 ,31.3110 ,1.00720 ,2.31439 ,22.70877 
174 ,31.5351 ,1.00937 ,2.29728 ,22.54088 
175 ,31.6949 ,1.01114 ,2.27332 ,22.30584 
176 ,31.8710 ,1.01275 ,2.26990 ,22.27226 
177 ,32.0312 ,1.01449 ,2.24594 ,22.03721 
178 ,32.2075 ,1.01614 ,2.23226 ,21.90290 
179 ,32.3837 ,1.01788 ,2.21515 ,21.73500 
180 ,32.5598 ,1.01960 ,2.19803 ,21.56711 
181 ,32.7357 ,1.02138 ,2.19461 ,21.53353 
182 ,32.9119 ,1.02320 ,2.20146 ,21.60069 
183 ,33.0879 ,1.02498 ,2.15355 ,21.13059 
184 ,33.2640 ,1.02667 ,2.15697 ,21.16417 
185 ,33.4399 ,1.02847 ,2.13644 ,20.96270 
186 ,33.6160 ,1.03026 ,2.13301 ,20.92912 
187 ,33.8083 ,1.03210 ,2.10906 ,20.69408 
188 ,33.9840 ,1.03396 ,2.08852 ,20.49261 
189 ,34.2084 ,1.03594 ,2.08510 ,20.45903 
190 ,34.3843 ,1.03793 ,2.05773 ,20.19040 
191 ,34.5925 ,1.03989 ,2.03377 ,19.95535 
192 ,34.7683 ,1.04179 ,2.03719 ,19.98893 
193 ,34.9447 ,1.04345 ,2.00297 ,19.65315 
194 ,35.1207 ,1.04527 ,1.99955 ,19.61957 
195 ,35.2967 ,1.04702 ,1.99270 ,19.55241 
196 ,35.4889 ,1.04884 ,1.98586 ,19.48526 
197 ,35.6650 ,1.05072 ,1.96875 ,19.31737 
198 ,35.8411 ,1.05243 ,1.93795 ,19.01516 
199 ,36.0171 ,1.05421 ,1.94137 ,19.04874 
200 ,36.2252 ,1.05619 ,1.90715 ,18.71296 
201 ,36.3849 ,1.05801 ,1.91399 ,18.78011 
202 ,36.5453 ,1.05961 ,1.88319 ,18.47791 
203 ,36.7216 ,1.06125 ,1.87293 ,18.37717 
204 ,36.8975 ,1.06301 ,1.86608 ,18.31002 
205 ,37.0734 ,1.06473 ,1.84897 ,18.14213 
206 ,37.2497 ,1.06654 ,1.82844 ,17.94066 
207 ,37.4257 ,1.06832 ,1.81133 ,17.77276 
208 ,37.6018 ,1.07009 ,1.80106 ,17.67203 
209 ,37.7938 ,1.07196 ,1.80449 ,17.70561 
210 ,37.9700 ,1.07374 ,1.76684 ,17.33625 
211 ,38.1460 ,1.07550 ,1.75315 ,17.20193 
212 ,38.3219 ,1.07724 ,1.74289 ,17.10120 
213 ,38.5299 ,1.07926 ,1.73262 ,17.00046 
214 ,38.7064 ,1.08110 ,1.70866 ,16.76542 
215 ,38.8983 ,1.08301 ,1.70866 ,16.76542 
216 ,39.0744 ,1.08476 ,1.69840 ,16.66468 
217 ,39.2505 ,1.08655 ,1.69155 ,16.59752 
218 ,39.4265 ,1.08830 ,1.66075 ,16.29532 
219 ,39.5867 ,1.09000 ,1.64364 ,16.12743 
220 ,39.7783 ,1.09180 ,1.65391 ,16.22816 
221 ,39.9548 ,1.09358 ,1.62653 ,15.95954 
222 ,40.1309 ,1.09535 ,1.61969 ,15.89238 
223 ,40.3070 ,1.09709 ,1.58889 ,15.59018 
224 ,40.4831 ,1.09888 ,1.57520 ,15.45586 
225 ,40.6591 ,1.10063 ,1.57520 ,15.45586 
226 ,40.8349 ,1.10236 ,1.56836 ,15.38871 
227 ,41.0113 ,1.10414 ,1.54440 ,15.15366 
228 ,41.2033 ,1.10607 ,1.51702 ,14.88503 
229 ,41.3794 ,1.10779 ,1.52387 ,14.95219 
230 ,41.5554 ,1.10959 ,1.50333 ,14.75072 
231 ,41.7316 ,1.11134 ,1.49649 ,14.68356 
232 ,41.9073 ,1.11309 ,1.47253 ,14.44851 
233 ,42.0835 ,1.11486 ,1.46569 ,14.38136 
234 ,42.2917 ,1.11684 ,1.46911 ,14.41493 
235 ,42.4676 ,1.11872 ,1.42805 ,14.01199 
236 ,42.6439 ,1.12050 ,1.41436 ,13.87768 
237 ,42.8360 ,1.12238 ,1.42462 ,13.97842 
238 ,43.0281 ,1.12427 ,1.40409 ,13.77695 
239 ,43.2041 ,1.12612 ,1.36987 ,13.44116 
240 ,43.3962 ,1.12799 ,1.38356 ,13.57548 
241 ,43.5882 ,1.12991 ,1.34591 ,13.20612 
242 ,43.7800 ,1.13181 ,1.34249 ,13.17254 
243 ,43.9563 ,1.13359 ,1.32880 ,13.03822 
244 ,44.1326 ,1.13538 ,1.30827 ,12.83675 
245 ,44.3246 ,1.13723 ,1.29116 ,12.66886 
246 ,44.5005 ,1.13902 ,1.27747 ,12.53455 
247 ,44.6768 ,1.14079 ,1.29116 ,12.66886 
248 ,44.8524 ,1.14256 ,1.26378 ,12.40024 
249 ,45.0447 ,1.14434 ,1.23983 ,12.16519 
250 ,45.2208 ,1.14621 ,1.23983 ,12.16519 
251 ,45.3967 ,1.14793 ,1.23641 ,12.13161 
252 ,45.5891 ,1.14982 ,1.19876 ,11.76225 
253 ,45.7650 ,1.15166 ,1.17823 ,11.56078 
254 ,45.9408 ,1.15344 ,1.18165 ,11.59436 
255 ,46.1172 ,1.15516 ,1.17481 ,11.52720 
256 ,46.2933 ,1.15699 ,1.17138 ,11.49362 
257 ,46.4852 ,1.15879 ,1.13032 ,11.09068 
258 ,46.6614 ,1.16061 ,1.12690 ,11.05710 
259 ,46.8376 ,1.16236 ,1.12005 ,10.98995 
260 ,47.0135 ,1.16414 ,1.11663 ,10.95637 
261 ,47.1896 ,1.16586 ,1.07556 ,10.55343 
262 ,47.3657 ,1.16763 ,1.06530 ,10.45270 
263 ,47.5417 ,1.16938 ,1.06530 ,10.45270 
264 ,47.7177 ,1.17118 ,1.05503 ,10.35196 
265 ,47.9100 ,1.17306 ,1.03108 ,10.11691 
266 ,48.0859 ,1.17483 ,1.00712 ,9.88186 
267 ,48.2620 ,1.17664 ,1.01739 ,9.98260 
268 ,48.4541 ,1.17859 ,1.00028 ,9.81471 
269 ,48.6302 ,1.18030 ,0.97974 ,9.61324 
270 ,48.8064 ,1.18206 ,0.98317 ,9.64682 
271 ,48.9821 ,1.18384 ,0.95921 ,9.41177 
272 ,49.1585 ,1.18558 ,0.96605 ,9.47892 
273 ,49.3666 ,1.18759 ,0.93525 ,9.17672 
274 ,49.5746 ,1.18966 ,0.92841 ,9.10956 
275 ,49.7507 ,1.19149 ,0.88734 ,8.70662 
276 ,49.9427 ,1.19339 ,0.90788 ,8.90809 
277 ,50.1185 ,1.19517 ,0.88050 ,8.63947 
278 ,50.2950 ,1.19693 ,0.86681 ,8.50515 
279 ,50.4710 ,1.19874 ,0.85654 ,8.40442 
280 ,50.6471 ,1.20044 ,0.82917 ,8.13579 
281 ,50.8231 ,1.20227 ,0.82575 ,8.10221 
282 ,50.9993 ,1.20397 ,0.82575 ,8.10221 
283 ,51.1751 ,1.20573 ,0.81548 ,8.00148 
284 ,51.3673 ,1.20766 ,0.78810 ,7.73285 
285 ,51.5593 ,1.20957 ,0.78810 ,7.73285 
286 ,51.7354 ,1.21135 ,0.75730 ,7.43065 
287 ,51.9116 ,1.21311 ,0.74704 ,7.32991 
288 ,52.0877 ,1.21484 ,0.74019 ,7.26276 
289 ,52.2634 ,1.21662 ,0.73677 ,7.22918 
290 ,52.4398 ,1.21837 ,0.71966 ,7.06129 
291 ,52.6320 ,1.22034 ,0.68886 ,6.75908 
292 ,52.8080 ,1.22206 ,0.68201 ,6.69193 
293 ,52.9840 ,1.22384 ,0.67517 ,6.62477 
294 ,53.1600 ,1.22556 ,0.68201 ,6.69193 
295 ,53.3360 ,1.22738 ,0.65464 ,6.42330 
296 ,53.5124 ,1.22908 ,0.63068 ,6.18825 
297 ,53.6884 ,1.23089 ,0.62042 ,6.08752 
298 ,53.8804 ,1.23276 ,0.62384 ,6.12109 
299 ,54.0885 ,1.23480 ,0.60673 ,5.95320 
300 ,54.2646 ,1.23659 ,0.60330 ,5.91962 
301 ,54.4728 ,1.23870 ,0.55197 ,5.41595 
302 ,54.6807 ,1.24073 ,0.55882 ,5.48311 
303 ,54.8569 ,1.24251 ,0.54513 ,5.34879 
304 ,55.0489 ,1.24449 ,0.52117 ,5.11375 
305 ,55.2411 ,1.24640 ,0.53828 ,5.28164 
306 ,55.4167 ,1.24811 ,0.51433 ,5.04659 
307 ,55.5929 ,1.24993 ,0.49380 ,4.84512 
308 ,55.8012 ,1.25189 ,0.48353 ,4.74438 
309 ,56.0093 ,1.25396 ,0.45615 ,4.47576 
310 ,56.2014 ,1.25589 ,0.45615 ,4.47576 
311 ,56.3773 ,1.25777 ,0.44588 ,4.37502 
312 ,56.5534 ,1.25963 ,0.42193 ,4.13997 
313 ,56.7453 ,1.26137 ,0.42535 ,4.17355 
314 ,56.9216 ,1.26319 ,0.41166 ,4.03924 
315 ,57.0976 ,1.26494 ,0.39455 ,3.87135 
316 ,57.2897 ,1.26685 ,0.37060 ,3.63630 
317 ,57.4658 ,1.26861 ,0.36718 ,3.60272 
318 ,57.6419 ,1.27039 ,0.37402 ,3.66988 
319 ,57.8341 ,1.27232 ,0.32269 ,3.16620 
320 ,58.0260 ,1.27420 ,0.33295 ,3.26694 
321 ,58.2022 ,1.27594 ,0.32611 ,3.19978 
322 ,58.3943 ,1.27793 ,0.28504 ,2.79684 
323 ,58.5701 ,1.27965 ,0.28847 ,2.83042 
324 ,58.7619 ,1.28153 ,0.27478 ,2.69611 
325 ,58.9380 ,1.28333 ,0.26793 ,2.62895 
326 ,59.1141 ,1.28517 ,0.25424 ,2.49464 
327 ,59.2902 ,1.28688 ,0.23029 ,2.25959 
328 ,59.4827 ,1.28873 ,0.23713 ,2.32675 
329 ,59.7064 ,1.29090 ,0.21318 ,2.09170 
330 ,59.8829 ,1.29272 ,0.20976 ,2.05812 
331 ,60.0590 ,1.29456 ,0.19607 ,1.92381 
332 ,60.2508 ,1.29638 ,0.17553 ,1.72234 
333 ,60.4270 ,1.29822 ,0.17211 ,1.68876 
334 ,60.6030 ,1.29997 ,0.15500 ,1.52087 
335 ,60.7951 ,1.30193 ,0.12420 ,1.21866 
336 ,60.9712 ,1.30367 ,0.12078 ,1.18508 
337 ,61.1473 ,1.30545 ,0.12078 ,1.18508 
338 ,61.3235 ,1.30722 ,0.11393 ,1.11793 
339 ,61.4993 ,1.30896 ,0.09340 ,0.91646 
340 ,61.6756 ,1.31072 ,0.06602 ,0.64783 
341 ,61.8516 ,1.31259 ,0.07287 ,0.71499 
342 ,62.0276 ,1.31425 ,0.06260 ,0.61425 
343 ,62.2038 ,1.31600 ,0.05576 ,0.54710 
344 ,62.4119 ,1.31798 ,0.03522 ,0.34563 
345 ,62.6040 ,1.31995 ,0.03180 ,0.31205 
346 ,62.7960 ,1.32196 ,0.00785 ,0.07700 
347 ,62.9719 ,1.32364 ,-0.00584 ,-0.05731 
348 ,63.1802 ,1.32568 ,-0.02295 ,-0.22520 
349 ,63.3563 ,1.32750 ,-0.03664 ,-0.35952 
350 ,63.5325 ,1.32932 ,-0.04006 ,-0.39310 
351 ,63.7083 ,1.33101 ,-0.04006 ,-0.39310 
352 ,63.8842 ,1.33276 ,-0.05375 ,-0.52741 
353 ,64.0605 ,1.33452 ,-0.06402 ,-0.62814 
354 ,64.2368 ,1.33624 ,-0.07771 ,-0.76246 
355 ,64.4127 ,1.33807 ,-0.07428 ,-0.72888 
356 ,64.5727 ,1.33976 ,-0.07771 ,-0.76246 
357 ,64.7489 ,1.34142 ,-0.09482 ,-0.93035 
358 ,64.9407 ,1.34328 ,-0.12562 ,-1.23255 
359 ,65.1171 ,1.34512 ,-0.12562 ,-1.23255 
360 ,65.3090 ,1.34701 ,-0.12562 ,-1.23255 
361 ,65.4852 ,1.34878 ,-0.14273 ,-1.40045 
362 ,65.6614 ,1.35057 ,-0.15299 ,-1.50118 
363 ,65.8373 ,1.35228 ,-0.17011 ,-1.66907 
364 ,66.0290 ,1.35426 ,-0.17011 ,-1.66907 
365 ,66.2057 ,1.35598 ,-0.18037 ,-1.76981 
366 ,66.3813 ,1.35776 ,-0.20775 ,-2.03843 
367 ,66.5577 ,1.35952 ,-0.22144 ,-2.17275 
368 ,66.7497 ,1.36144 ,-0.20775 ,-2.03843 
369 ,66.9418 ,1.36322 ,-0.22828 ,-2.23990 
370 ,67.1175 ,1.36513 ,-0.24197 ,-2.37422 
371 ,67.2939 ,1.36688 ,-0.25224 ,-2.47495 
372 ,67.5021 ,1.36888 ,-0.26935 ,-2.64284 
373 ,67.6780 ,1.37070 ,-0.27277 ,-2.67642 
374 ,67.8543 ,1.37248 ,-0.27961 ,-2.74358 
375 ,68.0302 ,1.37429 ,-0.29330 ,-2.87789 
376 ,68.2064 ,1.37595 ,-0.29330 ,-2.87789 
377 ,68.3984 ,1.37792 ,-0.32410 ,-3.18010 
378 ,68.5905 ,1.37981 ,-0.31041 ,-3.04578 
379 ,68.7824 ,1.38163 ,-0.34464 ,-3.38156 
380 ,68.9587 ,1.38353 ,-0.33437 ,-3.28083 
381 ,69.1509 ,1.38545 ,-0.35490 ,-3.48230 
382 ,69.3267 ,1.38720 ,-0.35490 ,-3.48230 
383 ,69.5190 ,1.38914 ,-0.38570 ,-3.78450 
384 ,69.7111 ,1.39106 ,-0.38570 ,-3.78450 
385 ,69.8869 ,1.39281 ,-0.38912 ,-3.81808 
386 ,70.0789 ,1.39468 ,-0.40966 ,-4.01955 
387 ,70.2549 ,1.39647 ,-0.40623 ,-3.98597 
388 ,70.4473 ,1.39838 ,-0.41650 ,-4.08671 
389 ,70.6394 ,1.40032 ,-0.44730 ,-4.38891 
390 ,70.8313 ,1.40221 ,-0.43703 ,-4.28818 
391 ,71.0235 ,1.40405 ,-0.45757 ,-4.48965 
392 ,71.2157 ,1.40602 ,-0.47126 ,-4.62396 
393 ,71.3913 ,1.40780 ,-0.46441 ,-4.55681 
394 ,71.5514 ,1.40953 ,-0.49179 ,-4.82543 
395 ,71.7274 ,1.41121 ,-0.48152 ,-4.72470 
396 ,71.9035 ,1.41294 ,-0.50206 ,-4.92617 
397 ,72.0798 ,1.41473 ,-0.51574 ,-5.06048 
398 ,72.2721 ,1.41664 ,-0.50890 ,-4.99332 
399 ,72.4321 ,1.41838 ,-0.51574 ,-5.06048 
400 ,72.6083 ,1.41998 ,-0.52943 ,-5.19479 
401 ,72.7843 ,1.42176 ,-0.54997 ,-5.39626 
402 ,72.9762 ,1.42362 ,-0.54997 ,-5.39626 
403 ,73.2005 ,1.42581 ,-0.56708 ,-5.56415 
404 ,73.3925 ,1.42779 ,-0.56365 ,-5.53058 
405 ,73.5845 ,1.42969 ,-0.58761 ,-5.76562 
406 ,73.7926 ,1.43173 ,-0.59788 ,-5.86636 
407 ,73.9687 ,1.43359 ,-0.60472 ,-5.93352 
408 ,74.1449 ,1.43539 ,-0.62868 ,-6.16856 
409 ,74.3209 ,1.43714 ,-0.63210 ,-6.20214 
410 ,74.4966 ,1.43886 ,-0.63210 ,-6.20214 
411 ,74.6731 ,1.44060 ,-0.63210 ,-6.20214 
412 ,74.8651 ,1.44259 ,-0.66290 ,-6.50435 
413 ,75.0413 ,1.44426 ,-0.65947 ,-6.47077 
414 ,75.2332 ,1.44617 ,-0.65605 ,-6.43719 
415 ,75.4094 ,1.44801 ,-0.68343 ,-6.70582 
416 ,75.5851 ,1.44974 ,-0.69712 ,-6.84013 
417 ,75.7615 ,1.45157 ,-0.70396 ,-6.90729 
418 ,75.9379 ,1.45329 ,-0.70396 ,-6.90729 
419 ,76.1137 ,1.45503 ,-0.71765 ,-7.04160 
420 ,76.3219 ,1.45696 ,-0.72792 ,-7.14233 
421 ,76.5136 ,1.45901 ,-0.72107 ,-7.07518 
422 ,76.6900 ,1.46078 ,-0.73818 ,-7.24307 
423 ,76.8980 ,1.46277 ,-0.76214 ,-7.47812 
424 ,77.1221 ,1.46497 ,-0.76214 ,-7.47812 
425 ,77.2982 ,1.46686 ,-0.77925 ,-7.64601 
426 ,77.4902 ,1.46876 ,-0.77583 ,-7.61243 
427 ,77.6820 ,1.47060 ,-0.80663 ,-7.91464 
428 ,77.8582 ,1.47244 ,-0.79294 ,-7.78032 
429 ,78.0347 ,1.47423 ,-0.79636 ,-7.81390 
430 ,78.2425 ,1.47620 ,-0.81347 ,-7.98179 
431 ,78.4184 ,1.47806 ,-0.82032 ,-8.04895 
432 ,78.5946 ,1.47984 ,-0.80663 ,-7.91464 
433 ,78.7704 ,1.48162 ,-0.83743 ,-8.21684 
434 ,78.9469 ,1.48337 ,-0.85112 ,-8.35115 
435 ,79.1387 ,1.48525 ,-0.85454 ,-8.38473 
436 ,79.3150 ,1.48704 ,-0.85796 ,-8.41831 
437 ,79.5070 ,1.48892 ,-0.87165 ,-8.55262 
438 ,79.6832 ,1.49066 ,-0.89218 ,-8.75409 
439 ,79.8591 ,1.49258 ,-0.87507 ,-8.58620 
440 ,80.0355 ,1.49423 ,-0.87849 ,-8.61978 
441 ,80.2275 ,1.49611 ,-0.92298 ,-9.05630 
442 ,80.4035 ,1.49794 ,-0.92983 ,-9.12345 
443 ,80.5956 ,1.49984 ,-0.91956 ,-9.02272 
444 ,80.7717 ,1.50162 ,-0.91614 ,-8.98914 
445 ,80.9477 ,1.50334 ,-0.95036 ,-9.32492 
446 ,81.1397 ,1.50526 ,-0.95378 ,-9.35850 
447 ,81.3158 ,1.50697 ,-0.95036 ,-9.32492 
448 ,81.4920 ,1.50880 ,-0.97089 ,-9.52639 
449 ,81.6681 ,1.51054 ,-0.98116 ,-9.62713 
450 ,81.8918 ,1.51264 ,-0.98800 ,-9.69429 
451 ,82.0681 ,1.51453 ,-1.00169 ,-9.82860 
452 ,82.2606 ,1.51647 ,-0.98800 ,-9.69429 
453 ,82.4524 ,1.51842 ,-1.00511 ,-9.86218 
454 ,82.6442 ,1.52027 ,-1.02907 ,-10.09723 
455 ,82.8205 ,1.52208 ,-1.03591 ,-10.16438 
456 ,83.0122 ,1.52393 ,-1.04618 ,-10.26512 
457 ,83.1885 ,1.52574 ,-1.06329 ,-10.43301 
458 ,83.3805 ,1.52771 ,-1.06329 ,-10.43301 
459 ,83.5728 ,1.52959 ,-1.07014 ,-10.50016 
460 ,83.7647 ,1.53151 ,-1.09409 ,-10.73521 
461 ,83.9569 ,1.53345 ,-1.07014 ,-10.50016 
462 ,84.1487 ,1.53533 ,-1.10093 ,-10.80237 
