Data stamp = , 01-04-2022 01:32:25 560

Calibration Values: 
Slope = , 26.54 , g/V 
Offset Voltage at no contact = , -0.501760 , V 

No , Time , Stage Position ,   Mass , Force 
   ,  (s) ,      (mm)      ,   (g)  , (mN)  

1 ,0.0000 ,0.64946 ,5.28825 ,51.88832 
2 ,0.2033 ,0.64953 ,5.26430 ,51.65327 
3 ,0.5232 ,0.65033 ,5.28141 ,51.82116 
4 ,0.7155 ,0.65173 ,5.28483 ,51.85474 
5 ,0.8915 ,0.65322 ,5.27456 ,51.75401 
6 ,1.0675 ,0.65488 ,5.25403 ,51.55254 
7 ,1.2437 ,0.65659 ,5.26772 ,51.68685 
8 ,1.4198 ,0.65832 ,5.26087 ,51.61969 
9 ,1.5958 ,0.66029 ,5.22665 ,51.28391 
10 ,1.7715 ,0.66196 ,5.22665 ,51.28391 
11 ,1.9481 ,0.66374 ,5.19243 ,50.94813 
12 ,2.1241 ,0.66551 ,5.19585 ,50.98170 
13 ,2.3001 ,0.66724 ,5.18216 ,50.84739 
14 ,2.4762 ,0.66899 ,5.19243 ,50.94813 
15 ,2.6842 ,0.67096 ,5.17190 ,50.74666 
16 ,2.8603 ,0.67276 ,5.16505 ,50.67950 
17 ,3.0364 ,0.67459 ,5.15479 ,50.57876 
18 ,3.2125 ,0.67635 ,5.14110 ,50.44445 
19 ,3.3886 ,0.67808 ,5.12056 ,50.24298 
20 ,3.5486 ,0.67985 ,5.10345 ,50.07509 
21 ,3.7408 ,0.68161 ,5.10688 ,50.10867 
22 ,3.9168 ,0.68339 ,5.09661 ,50.00793 
23 ,4.1087 ,0.68533 ,5.06923 ,49.73931 
24 ,4.2847 ,0.68708 ,5.06923 ,49.73931 
25 ,4.4609 ,0.68883 ,5.06239 ,49.67215 
26 ,4.6532 ,0.69068 ,5.03501 ,49.40352 
27 ,4.8451 ,0.69266 ,5.01106 ,49.16848 
28 ,5.0373 ,0.69450 ,5.00763 ,49.13490 
29 ,5.2133 ,0.69646 ,4.98710 ,48.93343 
30 ,5.3733 ,0.69807 ,4.98368 ,48.89985 
31 ,5.5492 ,0.69973 ,4.95972 ,48.66480 
32 ,5.7255 ,0.70145 ,4.93235 ,48.39618 
33 ,5.9172 ,0.70334 ,4.94261 ,48.49691 
34 ,6.0937 ,0.70511 ,4.92550 ,48.32902 
35 ,6.2697 ,0.70693 ,4.90155 ,48.09397 
36 ,6.4618 ,0.70879 ,4.89470 ,48.02681 
37 ,6.6375 ,0.71057 ,4.87417 ,47.82534 
38 ,6.8140 ,0.71238 ,4.86048 ,47.69103 
39 ,6.9899 ,0.71410 ,4.84679 ,47.55672 
40 ,7.1980 ,0.71604 ,4.81941 ,47.28809 
41 ,7.3742 ,0.71795 ,4.80915 ,47.18736 
42 ,7.5663 ,0.71984 ,4.78519 ,46.95231 
43 ,7.7422 ,0.72164 ,4.76124 ,46.71726 
44 ,7.9183 ,0.72339 ,4.76466 ,46.75084 
45 ,8.1103 ,0.72525 ,4.72017 ,46.31432 
46 ,8.2866 ,0.72704 ,4.70990 ,46.21359 
47 ,8.4785 ,0.72895 ,4.68595 ,45.97854 
48 ,8.6547 ,0.73076 ,4.67911 ,45.91138 
49 ,8.8305 ,0.73247 ,4.65173 ,45.64275 
50 ,9.0227 ,0.73433 ,4.62777 ,45.40771 
51 ,9.1989 ,0.73618 ,4.62435 ,45.37413 
52 ,9.3749 ,0.73793 ,4.59697 ,45.10550 
53 ,9.5508 ,0.73975 ,4.59355 ,45.07192 
54 ,9.7270 ,0.74144 ,4.56275 ,44.76972 
55 ,9.9032 ,0.74322 ,4.53195 ,44.46751 
56 ,10.0792 ,0.74499 ,4.53537 ,44.50109 
57 ,10.2712 ,0.74691 ,4.51142 ,44.26604 
58 ,10.4633 ,0.74878 ,4.48404 ,43.99742 
59 ,10.6553 ,0.75076 ,4.47378 ,43.89668 
60 ,10.8150 ,0.75245 ,4.43613 ,43.52732 
61 ,10.9915 ,0.75410 ,4.44640 ,43.62806 
62 ,11.1675 ,0.75589 ,4.40875 ,43.25870 
63 ,11.3437 ,0.75759 ,4.40533 ,43.22512 
64 ,11.5197 ,0.75939 ,4.39507 ,43.12438 
65 ,11.7118 ,0.76130 ,4.38138 ,42.99007 
66 ,11.8875 ,0.76318 ,4.34716 ,42.65429 
67 ,12.0639 ,0.76481 ,4.33004 ,42.48639 
68 ,12.2560 ,0.76663 ,4.32662 ,42.45282 
69 ,12.4482 ,0.76854 ,4.30609 ,42.25135 
70 ,12.6722 ,0.77078 ,4.29924 ,42.18419 
71 ,12.8483 ,0.77271 ,4.26160 ,41.81483 
72 ,13.0243 ,0.77441 ,4.24107 ,41.61336 
73 ,13.2165 ,0.77632 ,4.23765 ,41.57978 
74 ,13.3926 ,0.77812 ,4.21711 ,41.37831 
75 ,13.5686 ,0.77991 ,4.20342 ,41.24400 
76 ,13.7446 ,0.78161 ,4.18631 ,41.07611 
77 ,13.9208 ,0.78339 ,4.17605 ,40.97537 
78 ,14.1129 ,0.78535 ,4.16236 ,40.84106 
79 ,14.3048 ,0.78720 ,4.13498 ,40.57243 
80 ,14.4970 ,0.78908 ,4.13498 ,40.57243 
81 ,14.6890 ,0.79106 ,4.09049 ,40.13591 
82 ,14.8651 ,0.79279 ,4.07338 ,39.96802 
83 ,15.0408 ,0.79460 ,4.06312 ,39.86729 
84 ,15.2173 ,0.79635 ,4.05969 ,39.83371 
85 ,15.4092 ,0.79820 ,4.02547 ,39.49793 
86 ,15.5854 ,0.79999 ,4.01520 ,39.39719 
87 ,15.7455 ,0.80176 ,3.99809 ,39.22930 
88 ,15.9212 ,0.80339 ,3.99467 ,39.19572 
89 ,16.0973 ,0.80512 ,3.98441 ,39.09499 
90 ,16.2737 ,0.80686 ,3.97072 ,38.96067 
91 ,16.4658 ,0.80887 ,3.94676 ,38.72562 
92 ,16.6415 ,0.81065 ,3.91254 ,38.38984 
93 ,16.8179 ,0.81235 ,3.92623 ,38.52415 
94 ,16.9940 ,0.81410 ,3.90570 ,38.32268 
95 ,17.1856 ,0.81604 ,3.86805 ,37.95332 
96 ,17.3781 ,0.81782 ,3.86463 ,37.91975 
97 ,17.5702 ,0.81986 ,3.84067 ,37.68470 
98 ,17.7461 ,0.82162 ,3.81672 ,37.44965 
99 ,17.9385 ,0.82356 ,3.79961 ,37.28176 
100 ,18.1144 ,0.82534 ,3.79619 ,37.24818 
101 ,18.3067 ,0.82716 ,3.76196 ,36.91240 
102 ,18.5143 ,0.82920 ,3.76881 ,36.97955 
103 ,18.6907 ,0.83105 ,3.73459 ,36.64377 
104 ,18.8667 ,0.83283 ,3.71405 ,36.44230 
105 ,19.0429 ,0.83457 ,3.70037 ,36.30799 
106 ,19.2666 ,0.83668 ,3.67641 ,36.07294 
107 ,19.4430 ,0.83859 ,3.66272 ,35.93863 
108 ,19.6190 ,0.84035 ,3.65930 ,35.90505 
109 ,19.7951 ,0.84212 ,3.64561 ,35.77073 
110 ,19.9711 ,0.84391 ,3.62850 ,35.60284 
111 ,20.1471 ,0.84559 ,3.58743 ,35.19990 
112 ,20.3231 ,0.84735 ,3.59428 ,35.26706 
113 ,20.5154 ,0.84926 ,3.59770 ,35.30064 
114 ,20.7074 ,0.85123 ,3.55663 ,34.89770 
115 ,20.8836 ,0.85299 ,3.53268 ,34.66265 
116 ,21.0756 ,0.85490 ,3.54295 ,34.76338 
117 ,21.2514 ,0.85663 ,3.51557 ,34.49476 
118 ,21.4275 ,0.85838 ,3.49846 ,34.32687 
119 ,21.6040 ,0.86019 ,3.46766 ,34.02466 
120 ,21.7798 ,0.86198 ,3.47108 ,34.05824 
121 ,21.9560 ,0.86372 ,3.45739 ,33.92393 
122 ,22.1321 ,0.86551 ,3.43686 ,33.72246 
123 ,22.3400 ,0.86751 ,3.41633 ,33.52099 
124 ,22.5322 ,0.86946 ,3.39921 ,33.35310 
125 ,22.7084 ,0.87124 ,3.37868 ,33.15163 
126 ,22.8844 ,0.87303 ,3.36499 ,33.01731 
127 ,23.0606 ,0.87477 ,3.35130 ,32.88300 
128 ,23.2525 ,0.87666 ,3.33762 ,32.74869 
129 ,23.4286 ,0.87844 ,3.31708 ,32.54722 
130 ,23.6206 ,0.88035 ,3.29313 ,32.31217 
131 ,23.8445 ,0.88249 ,3.27602 ,32.14428 
132 ,24.0209 ,0.88439 ,3.26917 ,32.07712 
133 ,24.2129 ,0.88622 ,3.25206 ,31.90923 
134 ,24.3890 ,0.88799 ,3.23495 ,31.74134 
135 ,24.5811 ,0.88995 ,3.21100 ,31.50629 
136 ,24.7571 ,0.89170 ,3.21442 ,31.53987 
137 ,24.9493 ,0.89361 ,3.17677 ,31.17051 
138 ,25.1253 ,0.89536 ,3.17335 ,31.13693 
139 ,25.3014 ,0.89713 ,3.15624 ,30.96904 
140 ,25.4771 ,0.89886 ,3.15966 ,31.00262 
141 ,25.6535 ,0.90062 ,3.14255 ,30.83472 
142 ,25.8295 ,0.90243 ,3.11518 ,30.56610 
143 ,26.0061 ,0.90417 ,3.09464 ,30.36463 
144 ,26.2297 ,0.90626 ,3.07411 ,30.16316 
145 ,26.4218 ,0.90832 ,3.05700 ,29.99527 
146 ,26.6137 ,0.91016 ,3.04673 ,29.89453 
147 ,26.8063 ,0.91217 ,3.02620 ,29.69306 
148 ,26.9821 ,0.91398 ,3.00909 ,29.52517 
149 ,27.1742 ,0.91590 ,2.99882 ,29.42444 
150 ,27.3501 ,0.91768 ,2.99882 ,29.42444 
151 ,27.5423 ,0.91954 ,2.96460 ,29.08865 
152 ,27.7180 ,0.92136 ,2.95091 ,28.95434 
153 ,27.8946 ,0.92307 ,2.95433 ,28.98792 
154 ,28.0864 ,0.92499 ,2.92011 ,28.65213 
155 ,28.2623 ,0.92679 ,2.90985 ,28.55140 
156 ,28.4547 ,0.92854 ,2.89958 ,28.45066 
157 ,28.6306 ,0.93042 ,2.88931 ,28.34993 
158 ,28.8068 ,0.93221 ,2.86193 ,28.08130 
159 ,28.9829 ,0.93397 ,2.85167 ,27.98057 
160 ,29.1591 ,0.93568 ,2.84825 ,27.94699 
161 ,29.3349 ,0.93747 ,2.83456 ,27.81268 
162 ,29.5272 ,0.93941 ,2.80034 ,27.47689 
163 ,29.7352 ,0.94138 ,2.79007 ,27.37616 
164 ,29.9114 ,0.94318 ,2.77638 ,27.24185 
165 ,30.1193 ,0.94521 ,2.75243 ,27.00680 
166 ,30.2953 ,0.94709 ,2.76269 ,27.10753 
167 ,30.4554 ,0.94877 ,2.74216 ,26.90606 
168 ,30.6315 ,0.95043 ,2.72505 ,26.73817 
169 ,30.8078 ,0.95218 ,2.70794 ,26.57028 
170 ,30.9996 ,0.95406 ,2.69767 ,26.46954 
171 ,31.1918 ,0.95607 ,2.67714 ,26.26807 
172 ,31.3676 ,0.95776 ,2.65318 ,26.03303 
173 ,31.5440 ,0.95954 ,2.63949 ,25.89871 
174 ,31.7199 ,0.96132 ,2.62238 ,25.73082 
175 ,31.8962 ,0.96307 ,2.62923 ,25.79798 
176 ,32.1043 ,0.96500 ,2.59158 ,25.42862 
177 ,32.2962 ,0.96710 ,2.59501 ,25.46220 
178 ,32.4723 ,0.96881 ,2.58816 ,25.39504 
179 ,32.6485 ,0.97057 ,2.56421 ,25.15999 
180 ,32.8402 ,0.97248 ,2.53683 ,24.89136 
181 ,33.0165 ,0.97424 ,2.52656 ,24.79063 
182 ,33.1925 ,0.97604 ,2.52656 ,24.79063 
183 ,33.3686 ,0.97777 ,2.50261 ,24.55558 
184 ,33.5446 ,0.97957 ,2.47523 ,24.28696 
185 ,33.7207 ,0.98127 ,2.47181 ,24.25338 
186 ,33.8969 ,0.98312 ,2.46839 ,24.21980 
187 ,34.0729 ,0.98483 ,2.44785 ,24.01833 
188 ,34.2490 ,0.98658 ,2.43416 ,23.88402 
189 ,34.4408 ,0.98844 ,2.40336 ,23.58181 
190 ,34.6168 ,0.99026 ,2.39652 ,23.51465 
191 ,34.7772 ,0.99198 ,2.39652 ,23.51465 
192 ,34.9693 ,0.99378 ,2.37599 ,23.31318 
193 ,35.1775 ,0.99571 ,2.34861 ,23.04456 
194 ,35.3534 ,0.99765 ,2.35203 ,23.07814 
195 ,35.5296 ,0.99945 ,2.33492 ,22.91024 
196 ,35.7217 ,1.00121 ,2.30412 ,22.60804 
197 ,35.8976 ,1.00308 ,2.28701 ,22.44015 
198 ,36.0897 ,1.00497 ,2.28359 ,22.40657 
199 ,36.2657 ,1.00676 ,2.26648 ,22.23868 
200 ,36.4416 ,1.00851 ,2.24937 ,22.07079 
201 ,36.6178 ,1.01029 ,2.24252 ,22.00363 
202 ,36.7940 ,1.01208 ,2.23226 ,21.90290 
203 ,36.9701 ,1.01377 ,2.22199 ,21.80216 
204 ,37.1462 ,1.01554 ,2.19119 ,21.49996 
205 ,37.3223 ,1.01733 ,2.17408 ,21.33206 
206 ,37.5144 ,1.01915 ,2.18435 ,21.43280 
207 ,37.6903 ,1.02099 ,2.15355 ,21.13059 
208 ,37.8665 ,1.02271 ,2.13301 ,20.92912 
209 ,38.0423 ,1.02449 ,2.11248 ,20.72766 
210 ,38.2185 ,1.02629 ,2.11248 ,20.72766 
211 ,38.3946 ,1.02801 ,2.09537 ,20.55976 
212 ,38.5707 ,1.02978 ,2.10564 ,20.66050 
213 ,38.7469 ,1.03157 ,2.07141 ,20.32472 
214 ,38.9229 ,1.03332 ,2.04404 ,20.05609 
215 ,39.1149 ,1.03526 ,2.04404 ,20.05609 
216 ,39.2907 ,1.03696 ,2.04746 ,20.08967 
217 ,39.4670 ,1.03873 ,2.00297 ,19.65315 
218 ,39.6592 ,1.04067 ,1.99955 ,19.61957 
219 ,39.8351 ,1.04243 ,1.98928 ,19.51884 
220 ,40.0113 ,1.04419 ,1.98244 ,19.45168 
221 ,40.1874 ,1.04596 ,1.96533 ,19.28379 
222 ,40.3792 ,1.04790 ,1.93795 ,19.01516 
223 ,40.5556 ,1.04964 ,1.92426 ,18.88085 
224 ,40.7635 ,1.05161 ,1.92084 ,18.84727 
225 ,40.9397 ,1.05348 ,1.89346 ,18.57864 
226 ,41.1316 ,1.05540 ,1.89688 ,18.61222 
227 ,41.3079 ,1.05718 ,1.86951 ,18.34360 
228 ,41.4999 ,1.05903 ,1.84897 ,18.14213 
229 ,41.6758 ,1.06077 ,1.83186 ,17.97423 
230 ,41.8520 ,1.06256 ,1.83186 ,17.97423 
231 ,42.0280 ,1.06434 ,1.79764 ,17.63845 
232 ,42.2041 ,1.06610 ,1.78053 ,17.47056 
233 ,42.3802 ,1.06786 ,1.77369 ,17.40340 
234 ,42.5562 ,1.06966 ,1.76342 ,17.30267 
235 ,42.7324 ,1.07139 ,1.74289 ,17.10120 
236 ,42.9245 ,1.07330 ,1.72920 ,16.96689 
237 ,43.1163 ,1.07511 ,1.71551 ,16.83257 
238 ,43.3088 ,1.07706 ,1.70182 ,16.69826 
239 ,43.4847 ,1.07890 ,1.68129 ,16.49679 
240 ,43.6767 ,1.08076 ,1.67102 ,16.39605 
241 ,43.8848 ,1.08285 ,1.63680 ,16.06027 
242 ,44.0610 ,1.08463 ,1.62653 ,15.95954 
243 ,44.2530 ,1.08659 ,1.61627 ,15.85880 
244 ,44.4291 ,1.08836 ,1.61969 ,15.89238 
245 ,44.6207 ,1.09024 ,1.58889 ,15.59018 
246 ,44.7973 ,1.09203 ,1.57862 ,15.48944 
247 ,44.9733 ,1.09382 ,1.55467 ,15.25439 
248 ,45.1655 ,1.09573 ,1.53413 ,15.05292 
249 ,45.3414 ,1.09751 ,1.52045 ,14.91861 
250 ,45.5334 ,1.09942 ,1.51702 ,14.88503 
251 ,45.7256 ,1.10130 ,1.48622 ,14.58283 
252 ,45.9015 ,1.10306 ,1.46911 ,14.41493 
253 ,46.0775 ,1.10480 ,1.47253 ,14.44851 
254 ,46.2538 ,1.10659 ,1.46227 ,14.34778 
255 ,46.4300 ,1.10833 ,1.44174 ,14.14631 
256 ,46.6220 ,1.11029 ,1.41436 ,13.87768 
257 ,46.7980 ,1.11216 ,1.40067 ,13.74337 
258 ,47.0062 ,1.11395 ,1.39040 ,13.64263 
259 ,47.1983 ,1.11592 ,1.37671 ,13.50832 
260 ,47.3903 ,1.11790 ,1.35276 ,13.27327 
261 ,47.5664 ,1.11967 ,1.33907 ,13.13896 
262 ,47.7423 ,1.12144 ,1.31854 ,12.93749 
263 ,47.9344 ,1.12337 ,1.31512 ,12.90391 
264 ,48.1265 ,1.12529 ,1.30485 ,12.80318 
265 ,48.3186 ,1.12710 ,1.28774 ,12.63528 
266 ,48.4946 ,1.12901 ,1.27063 ,12.46739 
267 ,48.6868 ,1.13087 ,1.25009 ,12.26592 
268 ,48.8624 ,1.13271 ,1.22614 ,12.03088 
269 ,49.0391 ,1.13439 ,1.21929 ,11.96372 
270 ,49.2469 ,1.13651 ,1.20903 ,11.86298 
271 ,49.4232 ,1.13825 ,1.18850 ,11.66151 
272 ,49.6152 ,1.14017 ,1.19192 ,11.69509 
273 ,49.8233 ,1.14217 ,1.14743 ,11.25857 
274 ,49.9995 ,1.14409 ,1.15427 ,11.32573 
275 ,50.1915 ,1.14595 ,1.14743 ,11.25857 
276 ,50.3672 ,1.14769 ,1.12347 ,11.02353 
277 ,50.5434 ,1.14947 ,1.09952 ,10.78848 
278 ,50.7196 ,1.15127 ,1.08925 ,10.68774 
279 ,50.8955 ,1.15301 ,1.07556 ,10.55343 
280 ,51.0717 ,1.15476 ,1.07214 ,10.51985 
281 ,51.2477 ,1.15661 ,1.05845 ,10.38554 
282 ,51.4079 ,1.15822 ,1.03450 ,10.15049 
283 ,51.5839 ,1.15984 ,1.02081 ,10.01618 
284 ,51.7760 ,1.16169 ,0.99685 ,9.78113 
285 ,51.9837 ,1.16379 ,1.00370 ,9.84829 
286 ,52.1762 ,1.16571 ,0.97974 ,9.61324 
287 ,52.3682 ,1.16768 ,0.97632 ,9.57966 
288 ,52.5443 ,1.16948 ,0.94552 ,9.27745 
289 ,52.7204 ,1.17123 ,0.93525 ,9.17672 
290 ,52.9285 ,1.17316 ,0.92157 ,9.04241 
291 ,53.1205 ,1.17524 ,0.90446 ,8.87451 
292 ,53.2966 ,1.17693 ,0.90446 ,8.87451 
293 ,53.4728 ,1.17877 ,0.89761 ,8.80736 
294 ,53.6487 ,1.18052 ,0.88050 ,8.63947 
295 ,53.8248 ,1.18228 ,0.86339 ,8.47158 
296 ,54.0008 ,1.18402 ,0.83259 ,8.16937 
297 ,54.1769 ,1.18590 ,0.84286 ,8.27011 
298 ,54.3531 ,1.18759 ,0.83601 ,8.20295 
299 ,54.5291 ,1.18929 ,0.81890 ,8.03506 
300 ,54.7050 ,1.19110 ,0.79495 ,7.80001 
301 ,54.8812 ,1.19281 ,0.76415 ,7.49780 
302 ,55.0569 ,1.19458 ,0.76072 ,7.46423 
303 ,55.2170 ,1.19630 ,0.75388 ,7.39707 
304 ,55.3930 ,1.19794 ,0.74019 ,7.26276 
305 ,55.5857 ,1.19973 ,0.75046 ,7.36349 
306 ,55.7937 ,1.20187 ,0.71966 ,7.06129 
307 ,55.9696 ,1.20366 ,0.70939 ,6.96055 
308 ,56.1458 ,1.20547 ,0.68544 ,6.72550 
309 ,56.3057 ,1.20718 ,0.66833 ,6.55761 
310 ,56.4820 ,1.20887 ,0.65806 ,6.45688 
311 ,56.6581 ,1.21060 ,0.64437 ,6.32256 
312 ,56.8499 ,1.21256 ,0.64779 ,6.35614 
313 ,57.0263 ,1.21433 ,0.62384 ,6.12109 
314 ,57.2184 ,1.21621 ,0.59988 ,5.88605 
315 ,57.4100 ,1.21806 ,0.61015 ,5.98678 
316 ,57.5865 ,1.21987 ,0.59304 ,5.81889 
317 ,57.7624 ,1.22165 ,0.55882 ,5.48311 
318 ,57.9546 ,1.22352 ,0.56566 ,5.55026 
319 ,58.1468 ,1.22534 ,0.54171 ,5.31522 
320 ,58.3223 ,1.22735 ,0.53144 ,5.21448 
321 ,58.4989 ,1.22900 ,0.51091 ,5.01301 
322 ,58.7070 ,1.23096 ,0.51775 ,5.08017 
323 ,58.8990 ,1.23302 ,0.47326 ,4.64365 
324 ,59.0750 ,1.23472 ,0.48011 ,4.71081 
325 ,59.2512 ,1.23652 ,0.46300 ,4.54291 
326 ,59.4269 ,1.23827 ,0.45957 ,4.50934 
327 ,59.6032 ,1.24000 ,0.43220 ,4.24071 
328 ,59.7952 ,1.24185 ,0.42877 ,4.20713 
329 ,59.9715 ,1.24369 ,0.42877 ,4.20713 
330 ,60.1634 ,1.24566 ,0.40482 ,3.97208 
331 ,60.3556 ,1.24749 ,0.39113 ,3.83777 
332 ,60.5476 ,1.24940 ,0.38429 ,3.77061 
333 ,60.7558 ,1.25153 ,0.35006 ,3.43483 
334 ,60.9478 ,1.25348 ,0.35691 ,3.50199 
335 ,61.1238 ,1.25523 ,0.33638 ,3.30052 
336 ,61.3000 ,1.25695 ,0.30900 ,3.03189 
337 ,61.4756 ,1.25872 ,0.30215 ,2.96473 
338 ,61.6521 ,1.26055 ,0.30215 ,2.96473 
339 ,61.8282 ,1.26226 ,0.29873 ,2.93116 
340 ,62.0042 ,1.26409 ,0.28847 ,2.83042 
341 ,62.1639 ,1.26573 ,0.26109 ,2.56179 
342 ,62.3239 ,1.26736 ,0.25424 ,2.49464 
343 ,62.4844 ,1.26895 ,0.23713 ,2.32675 
344 ,62.6605 ,1.27057 ,0.23371 ,2.29317 
345 ,62.8365 ,1.27236 ,0.20633 ,2.02454 
346 ,63.0286 ,1.27422 ,0.22344 ,2.19243 
347 ,63.2048 ,1.27608 ,0.20976 ,2.05812 
348 ,63.3808 ,1.27778 ,0.17896 ,1.75592 
349 ,63.5565 ,1.27954 ,0.17211 ,1.68876 
350 ,63.7330 ,1.28134 ,0.16869 ,1.65518 
351 ,63.9250 ,1.28326 ,0.17553 ,1.72234 
352 ,64.1170 ,1.28508 ,0.14473 ,1.42013 
353 ,64.2931 ,1.28689 ,0.13105 ,1.28582 
354 ,64.4529 ,1.28865 ,0.13789 ,1.35298 
355 ,64.6289 ,1.29026 ,0.11051 ,1.08435 
356 ,64.8054 ,1.29205 ,0.11051 ,1.08435 
357 ,65.0134 ,1.29403 ,0.10367 ,1.01719 
358 ,65.1894 ,1.29588 ,0.08656 ,0.84930 
359 ,65.3656 ,1.29765 ,0.06945 ,0.68141 
360 ,65.5733 ,1.29954 ,0.06602 ,0.64783 
361 ,65.7497 ,1.30144 ,0.05918 ,0.58067 
362 ,65.9258 ,1.30320 ,0.04207 ,0.41278 
363 ,66.1019 ,1.30498 ,0.02496 ,0.24489 
364 ,66.2780 ,1.30677 ,0.01469 ,0.14416 
365 ,66.4541 ,1.30851 ,0.00100 ,0.00984 
366 ,66.6461 ,1.31044 ,0.00100 ,0.00984 
367 ,66.8061 ,1.31212 ,-0.01953 ,-0.19163 
368 ,66.9822 ,1.31381 ,-0.03664 ,-0.35952 
369 ,67.1580 ,1.31553 ,-0.05033 ,-0.49383 
370 ,67.3342 ,1.31735 ,-0.04691 ,-0.46025 
371 ,67.5108 ,1.31904 ,-0.05375 ,-0.52741 
372 ,67.6865 ,1.32085 ,-0.05717 ,-0.56099 
373 ,67.8624 ,1.32259 ,-0.08455 ,-0.82961 
374 ,68.0386 ,1.32434 ,-0.10166 ,-0.99751 
375 ,68.2305 ,1.32632 ,-0.10508 ,-1.03108 
376 ,68.4063 ,1.32799 ,-0.10166 ,-0.99751 
377 ,68.5828 ,1.32980 ,-0.11193 ,-1.09824 
378 ,68.7588 ,1.33156 ,-0.14615 ,-1.43402 
379 ,68.9347 ,1.33328 ,-0.14273 ,-1.40045 
380 ,69.1112 ,1.33503 ,-0.14273 ,-1.40045 
381 ,69.2871 ,1.33686 ,-0.14615 ,-1.43402 
382 ,69.4789 ,1.33875 ,-0.18722 ,-1.83696 
383 ,69.6392 ,1.34046 ,-0.19064 ,-1.87054 
384 ,69.8311 ,1.34222 ,-0.19748 ,-1.93770 
385 ,70.0074 ,1.34404 ,-0.19748 ,-1.93770 
386 ,70.1994 ,1.34589 ,-0.21802 ,-2.13917 
387 ,70.3916 ,1.34777 ,-0.23855 ,-2.34064 
388 ,70.5676 ,1.34968 ,-0.23855 ,-2.34064 
389 ,70.7437 ,1.35137 ,-0.21802 ,-2.13917 
390 ,70.9676 ,1.35346 ,-0.25908 ,-2.54211 
391 ,71.1437 ,1.35538 ,-0.25908 ,-2.54211 
392 ,71.3359 ,1.35732 ,-0.28988 ,-2.84431 
393 ,71.5123 ,1.35910 ,-0.28988 ,-2.84431 
394 ,71.7040 ,1.36099 ,-0.29330 ,-2.87789 
395 ,71.8798 ,1.36276 ,-0.32068 ,-3.14652 
396 ,72.0398 ,1.36445 ,-0.32752 ,-3.21367 
397 ,72.2161 ,1.36612 ,-0.33437 ,-3.28083 
398 ,72.4083 ,1.36800 ,-0.33095 ,-3.24725 
399 ,72.5845 ,1.36977 ,-0.34806 ,-3.41514 
400 ,72.7926 ,1.37179 ,-0.34806 ,-3.41514 
401 ,72.9685 ,1.37369 ,-0.36859 ,-3.61661 
402 ,73.1446 ,1.37551 ,-0.37886 ,-3.71735 
403 ,73.3207 ,1.37716 ,-0.39939 ,-3.91882 
404 ,73.4967 ,1.37892 ,-0.39939 ,-3.91882 
405 ,73.6728 ,1.38064 ,-0.39939 ,-3.91882 
406 ,73.8649 ,1.38255 ,-0.40623 ,-3.98597 
407 ,74.0570 ,1.38437 ,-0.43361 ,-4.25460 
408 ,74.2491 ,1.38641 ,-0.43703 ,-4.28818 
409 ,74.4570 ,1.38845 ,-0.45414 ,-4.45607 
410 ,74.6331 ,1.39023 ,-0.43703 ,-4.28818 
411 ,74.8096 ,1.39202 ,-0.45072 ,-4.42249 
412 ,75.0014 ,1.39398 ,-0.48152 ,-4.72470 
413 ,75.1772 ,1.39571 ,-0.49179 ,-4.82543 
414 ,75.3532 ,1.39746 ,-0.48837 ,-4.79185 
415 ,75.5297 ,1.39922 ,-0.49179 ,-4.82543 
416 ,75.7218 ,1.40115 ,-0.50890 ,-4.99332 
417 ,75.8978 ,1.40294 ,-0.53285 ,-5.22837 
418 ,76.0738 ,1.40466 ,-0.53285 ,-5.22837 
419 ,76.2657 ,1.40647 ,-0.52601 ,-5.16121 
420 ,76.4580 ,1.40844 ,-0.55339 ,-5.42984 
421 ,76.6342 ,1.41027 ,-0.54997 ,-5.39626 
422 ,76.8262 ,1.41224 ,-0.54312 ,-5.32911 
423 ,77.0183 ,1.41411 ,-0.58077 ,-5.69847 
424 ,77.1943 ,1.41596 ,-0.57050 ,-5.59773 
425 ,77.3704 ,1.41763 ,-0.58761 ,-5.76562 
426 ,77.5623 ,1.41943 ,-0.57734 ,-5.66489 
427 ,77.7385 ,1.42131 ,-0.61156 ,-6.00067 
428 ,77.9146 ,1.42310 ,-0.62183 ,-6.10141 
429 ,78.1068 ,1.42498 ,-0.60472 ,-5.93352 
430 ,78.2828 ,1.42676 ,-0.64579 ,-6.33646 
431 ,78.4428 ,1.42848 ,-0.64579 ,-6.33646 
432 ,78.6188 ,1.43015 ,-0.66632 ,-6.53793 
433 ,78.7949 ,1.43187 ,-0.65947 ,-6.47077 
434 ,78.9711 ,1.43359 ,-0.66290 ,-6.50435 
435 ,79.1472 ,1.43539 ,-0.65263 ,-6.40361 
436 ,79.3232 ,1.43718 ,-0.68343 ,-6.70582 
437 ,79.5152 ,1.43903 ,-0.69370 ,-6.80655 
438 ,79.6914 ,1.44084 ,-0.69712 ,-6.84013 
439 ,79.8673 ,1.44257 ,-0.69027 ,-6.77297 
440 ,80.0756 ,1.44464 ,-0.71765 ,-7.04160 
441 ,80.2515 ,1.44643 ,-0.74161 ,-7.27665 
442 ,80.4436 ,1.44826 ,-0.73476 ,-7.20949 
443 ,80.6197 ,1.45014 ,-0.75187 ,-7.37738 
444 ,80.8122 ,1.45203 ,-0.75872 ,-7.44454 
445 ,81.0197 ,1.45397 ,-0.76898 ,-7.54527 
446 ,81.2122 ,1.45604 ,-0.76898 ,-7.54527 
447 ,81.3881 ,1.45782 ,-0.77583 ,-7.61243 
448 ,81.5640 ,1.45954 ,-0.78267 ,-7.67959 
449 ,81.7402 ,1.46129 ,-0.80663 ,-7.91464 
450 ,81.9162 ,1.46301 ,-0.80663 ,-7.91464 
451 ,82.0925 ,1.46483 ,-0.81347 ,-7.98179 
452 ,82.2685 ,1.46668 ,-0.81689 ,-8.01537 
453 ,82.4605 ,1.46852 ,-0.84427 ,-8.28400 
454 ,82.6363 ,1.47030 ,-0.84427 ,-8.28400 
455 ,82.8130 ,1.47201 ,-0.84085 ,-8.25042 
456 ,82.9889 ,1.47375 ,-0.85454 ,-8.38473 
457 ,83.1649 ,1.47563 ,-0.84769 ,-8.31758 
458 ,83.3406 ,1.47732 ,-0.87507 ,-8.58620 
459 ,83.5331 ,1.47922 ,-0.87165 ,-8.55262 
460 ,83.7249 ,1.48114 ,-0.88192 ,-8.65336 
461 ,83.9010 ,1.48295 ,-0.89903 ,-8.82125 
462 ,84.0771 ,1.48470 ,-0.91272 ,-8.95556 
463 ,84.2533 ,1.48643 ,-0.91614 ,-8.98914 
