Data stamp = , 31-03-2022 17:35:27 389

Calibration Values: 
Slope = , 26.54 , g/V 
Offset Voltage at no contact = , -0.501760 , V 

No , Time , Stage Position ,   Mass , Force 
   ,  (s) ,      (mm)      ,   (g)  , (mN)  

1 ,0.0000 ,0.69951 ,4.96657 ,48.73196 
2 ,0.2260 ,0.69963 ,4.96999 ,48.76554 
3 ,0.5779 ,0.70060 ,4.96657 ,48.73196 
4 ,0.7538 ,0.70206 ,4.96315 ,48.69838 
5 ,0.9461 ,0.70365 ,4.96315 ,48.69838 
6 ,1.1545 ,0.70565 ,4.95972 ,48.66480 
7 ,1.3466 ,0.70769 ,4.98710 ,48.93343 
8 ,1.5382 ,0.70964 ,4.97341 ,48.79911 
9 ,1.7143 ,0.71137 ,4.96999 ,48.76554 
10 ,1.8905 ,0.71314 ,4.95630 ,48.63122 
11 ,2.0664 ,0.71496 ,4.97341 ,48.79911 
12 ,2.2424 ,0.71668 ,4.95630 ,48.63122 
13 ,2.4185 ,0.71844 ,4.93235 ,48.39618 
14 ,2.5946 ,0.72019 ,4.91523 ,48.22828 
15 ,2.7707 ,0.72197 ,4.89470 ,48.02681 
16 ,2.9467 ,0.72372 ,4.89470 ,48.02681 
17 ,3.1228 ,0.72548 ,4.90497 ,48.12755 
18 ,3.3154 ,0.72729 ,4.86390 ,47.72461 
19 ,3.5394 ,0.72958 ,4.84679 ,47.55672 
20 ,3.7156 ,0.73139 ,4.81599 ,47.25451 
21 ,3.9076 ,0.73335 ,4.82626 ,47.35525 
22 ,4.0836 ,0.73505 ,4.79888 ,47.08662 
23 ,4.2433 ,0.73678 ,4.77835 ,46.88515 
24 ,4.4198 ,0.73846 ,4.75782 ,46.68368 
25 ,4.6118 ,0.74035 ,4.74413 ,46.54937 
26 ,4.8200 ,0.74230 ,4.73386 ,46.44863 
27 ,5.0120 ,0.74430 ,4.69622 ,46.07927 
28 ,5.2043 ,0.74628 ,4.68595 ,45.97854 
29 ,5.3802 ,0.74806 ,4.66884 ,45.81065 
30 ,5.5722 ,0.75000 ,4.64488 ,45.57560 
31 ,5.7479 ,0.75173 ,4.62777 ,45.40771 
32 ,5.9245 ,0.75348 ,4.61066 ,45.23981 
33 ,6.1006 ,0.75529 ,4.59355 ,45.07192 
34 ,6.2924 ,0.75716 ,4.55933 ,44.73614 
35 ,6.4846 ,0.75901 ,4.55249 ,44.66898 
36 ,6.6768 ,0.76100 ,4.52511 ,44.40036 
37 ,6.8528 ,0.76280 ,4.51142 ,44.26604 
38 ,7.0287 ,0.76452 ,4.49773 ,44.13173 
39 ,7.2051 ,0.76630 ,4.47720 ,43.93026 
40 ,7.3806 ,0.76806 ,4.44982 ,43.66163 
41 ,7.5570 ,0.76979 ,4.43271 ,43.49374 
42 ,7.7331 ,0.77157 ,4.41218 ,43.29227 
43 ,7.9093 ,0.77331 ,4.40875 ,43.25870 
44 ,8.0854 ,0.77510 ,4.39507 ,43.12438 
45 ,8.2613 ,0.77686 ,4.36769 ,42.85576 
46 ,8.4370 ,0.77861 ,4.35058 ,42.68786 
47 ,8.6135 ,0.78036 ,4.33347 ,42.51997 
48 ,8.8375 ,0.78243 ,4.30951 ,42.28492 
49 ,9.0138 ,0.78435 ,4.29240 ,42.11703 
50 ,9.2054 ,0.78632 ,4.28898 ,42.08345 
51 ,9.3818 ,0.78803 ,4.26160 ,41.81483 
52 ,9.5738 ,0.78989 ,4.24107 ,41.61336 
53 ,9.7500 ,0.79173 ,4.22396 ,41.44547 
54 ,9.9420 ,0.79365 ,4.20342 ,41.24400 
55 ,10.1180 ,0.79543 ,4.18631 ,41.07611 
56 ,10.2939 ,0.79715 ,4.16236 ,40.84106 
57 ,10.4702 ,0.79890 ,4.15894 ,40.80748 
58 ,10.6463 ,0.80066 ,4.14867 ,40.70674 
59 ,10.8223 ,0.80247 ,4.10760 ,40.30380 
60 ,10.9984 ,0.80419 ,4.08365 ,40.06876 
61 ,11.1746 ,0.80593 ,4.09734 ,40.20307 
62 ,11.3506 ,0.80773 ,4.08023 ,40.03518 
63 ,11.5424 ,0.80967 ,4.04943 ,39.73297 
64 ,11.7186 ,0.81141 ,4.02547 ,39.49793 
65 ,11.9106 ,0.81329 ,4.01520 ,39.39719 
66 ,12.1189 ,0.81537 ,3.98783 ,39.12856 
67 ,12.3110 ,0.81725 ,3.98098 ,39.06141 
68 ,12.4868 ,0.81912 ,3.96729 ,38.92709 
69 ,12.6627 ,0.82082 ,3.92965 ,38.55773 
70 ,12.8552 ,0.82264 ,3.91596 ,38.42342 
71 ,13.0472 ,0.82470 ,3.90227 ,38.28911 
72 ,13.2233 ,0.82649 ,3.88858 ,38.15479 
73 ,13.4154 ,0.82830 ,3.87147 ,37.98690 
74 ,13.6076 ,0.83030 ,3.85779 ,37.85259 
75 ,13.7995 ,0.83219 ,3.82699 ,37.55038 
76 ,13.9755 ,0.83404 ,3.80645 ,37.34891 
77 ,14.1518 ,0.83570 ,3.80303 ,37.31534 
78 ,14.3437 ,0.83766 ,3.76539 ,36.94597 
79 ,14.5199 ,0.83935 ,3.73801 ,36.67735 
80 ,14.6959 ,0.84121 ,3.75170 ,36.81166 
81 ,14.8720 ,0.84290 ,3.74143 ,36.71093 
82 ,15.0480 ,0.84468 ,3.71748 ,36.47588 
83 ,15.2242 ,0.84645 ,3.67983 ,36.10652 
84 ,15.4002 ,0.84824 ,3.66272 ,35.93863 
85 ,15.5923 ,0.85013 ,3.66614 ,35.97220 
86 ,15.7682 ,0.85194 ,3.64561 ,35.77073 
87 ,15.9445 ,0.85366 ,3.61823 ,35.50211 
88 ,16.1524 ,0.85563 ,3.60797 ,35.40137 
89 ,16.3286 ,0.85749 ,3.57717 ,35.09917 
90 ,16.5048 ,0.85926 ,3.56006 ,34.93128 
91 ,16.6964 ,0.86117 ,3.55321 ,34.86412 
92 ,16.8725 ,0.86295 ,3.53952 ,34.72981 
93 ,17.0489 ,0.86467 ,3.51899 ,34.52834 
94 ,17.2409 ,0.86660 ,3.48135 ,34.15898 
95 ,17.4168 ,0.86832 ,3.46766 ,34.02466 
96 ,17.6091 ,0.87035 ,3.46081 ,33.95751 
97 ,17.8014 ,0.87223 ,3.42317 ,33.58814 
98 ,17.9771 ,0.87394 ,3.41975 ,33.55457 
99 ,18.1533 ,0.87573 ,3.40948 ,33.45383 
100 ,18.3294 ,0.87751 ,3.38895 ,33.25236 
101 ,18.5209 ,0.87937 ,3.35815 ,32.95016 
102 ,18.6973 ,0.88112 ,3.34104 ,32.78227 
103 ,18.8731 ,0.88293 ,3.33762 ,32.74869 
104 ,19.0493 ,0.88463 ,3.32735 ,32.64795 
105 ,19.2253 ,0.88640 ,3.28971 ,32.27859 
106 ,19.3855 ,0.88813 ,3.28628 ,32.24501 
107 ,19.5456 ,0.88972 ,3.26917 ,32.07712 
108 ,19.7218 ,0.89143 ,3.25206 ,31.90923 
109 ,19.9136 ,0.89325 ,3.24180 ,31.80849 
110 ,20.0898 ,0.89507 ,3.22468 ,31.64060 
111 ,20.2822 ,0.89692 ,3.21784 ,31.57345 
112 ,20.4744 ,0.89895 ,3.20073 ,31.40555 
113 ,20.6502 ,0.90068 ,3.17677 ,31.17051 
114 ,20.8264 ,0.90239 ,3.14940 ,30.90188 
115 ,21.0025 ,0.90415 ,3.13913 ,30.80115 
116 ,21.1783 ,0.90596 ,3.13571 ,30.76757 
117 ,21.3545 ,0.90772 ,3.12544 ,30.66683 
118 ,21.5304 ,0.90954 ,3.09122 ,30.33105 
119 ,21.7070 ,0.91128 ,3.07069 ,30.12958 
120 ,21.8829 ,0.91304 ,3.05015 ,29.92811 
121 ,22.0748 ,0.91484 ,3.06042 ,30.02884 
122 ,22.2510 ,0.91667 ,3.03304 ,29.76022 
123 ,22.4271 ,0.91845 ,3.00224 ,29.45801 
124 ,22.6191 ,0.92036 ,3.00224 ,29.45801 
125 ,22.8114 ,0.92230 ,2.96802 ,29.12223 
126 ,23.0033 ,0.92418 ,2.96460 ,29.08865 
127 ,23.1795 ,0.92596 ,2.95091 ,28.95434 
128 ,23.3875 ,0.92801 ,2.92011 ,28.65213 
129 ,23.5793 ,0.92996 ,2.90985 ,28.55140 
130 ,23.7557 ,0.93176 ,2.89273 ,28.38351 
131 ,23.9316 ,0.93348 ,2.88247 ,28.28277 
132 ,24.1079 ,0.93524 ,2.85167 ,27.98057 
133 ,24.2835 ,0.93703 ,2.84482 ,27.91341 
134 ,24.4599 ,0.93877 ,2.83798 ,27.84625 
135 ,24.6357 ,0.94056 ,2.82087 ,27.67836 
136 ,24.8281 ,0.94246 ,2.79691 ,27.44332 
137 ,25.0044 ,0.94423 ,2.77980 ,27.27542 
138 ,25.1802 ,0.94598 ,2.76611 ,27.14111 
139 ,25.3719 ,0.94786 ,2.74558 ,26.93964 
140 ,25.5483 ,0.94966 ,2.73189 ,26.80533 
141 ,25.7244 ,0.95146 ,2.71478 ,26.63744 
142 ,25.9164 ,0.95330 ,2.70109 ,26.50312 
143 ,26.0921 ,0.95508 ,2.67372 ,26.23450 
144 ,26.2685 ,0.95684 ,2.66345 ,26.13376 
145 ,26.4440 ,0.95859 ,2.65318 ,26.03303 
146 ,26.6206 ,0.96037 ,2.64634 ,25.96587 
147 ,26.8128 ,0.96215 ,2.62923 ,25.79798 
148 ,26.9887 ,0.96409 ,2.59843 ,25.49577 
149 ,27.1809 ,0.96583 ,2.59843 ,25.49577 
150 ,27.3729 ,0.96788 ,2.56763 ,25.19357 
151 ,27.5489 ,0.96964 ,2.54710 ,24.99210 
152 ,27.7247 ,0.97142 ,2.52998 ,24.82421 
153 ,27.9172 ,0.97328 ,2.52998 ,24.82421 
154 ,28.0932 ,0.97509 ,2.50603 ,24.58916 
155 ,28.3013 ,0.97710 ,2.49918 ,24.52200 
156 ,28.4774 ,0.97891 ,2.47523 ,24.28696 
157 ,28.6535 ,0.98070 ,2.45812 ,24.11906 
158 ,28.8615 ,0.98271 ,2.45127 ,24.05191 
159 ,29.0377 ,0.98455 ,2.43074 ,23.85044 
160 ,29.2138 ,0.98631 ,2.40679 ,23.61539 
161 ,29.3898 ,0.98803 ,2.39310 ,23.48108 
162 ,29.5658 ,0.98996 ,2.39652 ,23.51465 
163 ,29.7419 ,0.99156 ,2.37941 ,23.34676 
164 ,29.9340 ,0.99353 ,2.35888 ,23.14529 
165 ,30.1260 ,0.99532 ,2.34861 ,23.04456 
166 ,30.3020 ,0.99716 ,2.34519 ,23.01098 
167 ,30.4781 ,0.99895 ,2.32465 ,22.80951 
168 ,30.6538 ,1.00070 ,2.29728 ,22.54088 
169 ,30.8300 ,1.00243 ,2.28017 ,22.37299 
170 ,31.0062 ,1.00420 ,2.27332 ,22.30584 
171 ,31.1824 ,1.00598 ,2.26306 ,22.20510 
172 ,31.3584 ,1.00775 ,2.25279 ,22.10437 
173 ,31.5346 ,1.00949 ,2.21515 ,21.73500 
174 ,31.7263 ,1.01134 ,2.20488 ,21.63427 
175 ,31.9187 ,1.01328 ,2.19119 ,21.49996 
176 ,32.0948 ,1.01511 ,2.18092 ,21.39922 
177 ,32.3028 ,1.01708 ,2.17750 ,21.36564 
178 ,32.4786 ,1.01889 ,2.16381 ,21.23133 
179 ,32.6547 ,1.02065 ,2.12617 ,20.86197 
180 ,32.8147 ,1.02239 ,2.11248 ,20.72766 
181 ,32.9912 ,1.02408 ,2.10221 ,20.62692 
182 ,33.1832 ,1.02594 ,2.10221 ,20.62692 
183 ,33.3592 ,1.02775 ,2.08510 ,20.45903 
184 ,33.5351 ,1.02949 ,2.06115 ,20.22398 
185 ,33.7115 ,1.03122 ,2.05773 ,20.19040 
186 ,33.8874 ,1.03310 ,2.05088 ,20.12325 
187 ,34.0636 ,1.03472 ,2.03719 ,19.98893 
188 ,34.2556 ,1.03661 ,2.01324 ,19.75388 
189 ,34.4313 ,1.03842 ,1.99613 ,19.58599 
190 ,34.6078 ,1.04018 ,2.00297 ,19.65315 
191 ,34.7999 ,1.04207 ,1.96190 ,19.25021 
192 ,34.9598 ,1.04381 ,1.96190 ,19.25021 
193 ,35.1361 ,1.04545 ,1.95164 ,19.14948 
194 ,35.3123 ,1.04725 ,1.92768 ,18.91443 
195 ,35.5042 ,1.04906 ,1.91742 ,18.81369 
196 ,35.6803 ,1.05093 ,1.91057 ,18.74654 
197 ,35.8724 ,1.05285 ,1.89004 ,18.54507 
198 ,36.0480 ,1.05461 ,1.88319 ,18.47791 
199 ,36.2244 ,1.05638 ,1.86951 ,18.34360 
200 ,36.4164 ,1.05826 ,1.84213 ,18.07497 
201 ,36.5926 ,1.06004 ,1.83871 ,18.04139 
202 ,36.7847 ,1.06193 ,1.83528 ,18.00781 
203 ,36.9608 ,1.06371 ,1.80791 ,17.73919 
204 ,37.1529 ,1.06565 ,1.78395 ,17.50414 
205 ,37.3450 ,1.06759 ,1.79422 ,17.60487 
206 ,37.5211 ,1.06937 ,1.77369 ,17.40340 
207 ,37.7130 ,1.07125 ,1.74973 ,17.16836 
208 ,37.8892 ,1.07307 ,1.75657 ,17.23551 
209 ,38.0649 ,1.07476 ,1.73946 ,17.06762 
210 ,38.2414 ,1.07654 ,1.72235 ,16.89973 
211 ,38.4334 ,1.07843 ,1.70524 ,16.73184 
212 ,38.6095 ,1.08024 ,1.69840 ,16.66468 
213 ,38.7855 ,1.08197 ,1.68813 ,16.56395 
214 ,38.9775 ,1.08384 ,1.65049 ,16.19458 
215 ,39.1537 ,1.08563 ,1.63680 ,16.06027 
216 ,39.3298 ,1.08742 ,1.64707 ,16.16101 
217 ,39.5218 ,1.08920 ,1.62653 ,15.95954 
218 ,39.6978 ,1.09105 ,1.59916 ,15.69091 
219 ,39.8897 ,1.09299 ,1.59231 ,15.62375 
220 ,40.0660 ,1.09480 ,1.58547 ,15.55660 
221 ,40.2261 ,1.09645 ,1.55467 ,15.25439 
222 ,40.4023 ,1.09817 ,1.55809 ,15.28797 
223 ,40.5941 ,1.10008 ,1.54098 ,15.12008 
224 ,40.7864 ,1.10196 ,1.54098 ,15.12008 
225 ,40.9624 ,1.10372 ,1.51360 ,14.85145 
226 ,41.1545 ,1.10566 ,1.48622 ,14.58283 
227 ,41.3306 ,1.10735 ,1.49649 ,14.68356 
228 ,41.5069 ,1.10919 ,1.48965 ,14.61640 
229 ,41.6825 ,1.11091 ,1.45885 ,14.31420 
230 ,41.8585 ,1.11271 ,1.44174 ,14.14631 
231 ,42.0349 ,1.11445 ,1.43831 ,14.11273 
232 ,42.2110 ,1.11621 ,1.43489 ,14.07915 
233 ,42.3868 ,1.11799 ,1.41778 ,13.91126 
234 ,42.5790 ,1.11987 ,1.39725 ,13.70979 
235 ,42.7550 ,1.12160 ,1.38698 ,13.60906 
236 ,42.9312 ,1.12343 ,1.37671 ,13.50832 
237 ,43.1074 ,1.12520 ,1.37671 ,13.50832 
238 ,43.2992 ,1.12707 ,1.32880 ,13.03822 
239 ,43.4754 ,1.12885 ,1.31854 ,12.93749 
240 ,43.6674 ,1.13073 ,1.31854 ,12.93749 
241 ,43.8435 ,1.13252 ,1.29458 ,12.70244 
242 ,44.0196 ,1.13424 ,1.28774 ,12.63528 
243 ,44.1957 ,1.13605 ,1.28774 ,12.63528 
244 ,44.3716 ,1.13777 ,1.28089 ,12.56813 
245 ,44.5479 ,1.13958 ,1.25694 ,12.33308 
246 ,44.7559 ,1.14157 ,1.23641 ,12.13161 
247 ,44.9320 ,1.14342 ,1.23298 ,12.09803 
248 ,45.1077 ,1.14523 ,1.19876 ,11.76225 
249 ,45.2842 ,1.14692 ,1.20218 ,11.79583 
250 ,45.4599 ,1.14871 ,1.17823 ,11.56078 
251 ,45.6363 ,1.15046 ,1.16454 ,11.42647 
252 ,45.8283 ,1.15240 ,1.16454 ,11.42647 
253 ,46.0205 ,1.15422 ,1.15085 ,11.29215 
254 ,46.1964 ,1.15609 ,1.13032 ,11.09068 
255 ,46.3726 ,1.15784 ,1.13374 ,11.12426 
256 ,46.5643 ,1.15973 ,1.10294 ,10.82206 
257 ,46.7408 ,1.16147 ,1.09610 ,10.75490 
258 ,46.9328 ,1.16341 ,1.08925 ,10.68774 
259 ,47.1090 ,1.16518 ,1.06530 ,10.45270 
260 ,47.2850 ,1.16695 ,1.04134 ,10.21765 
261 ,47.4771 ,1.16883 ,1.05161 ,10.31838 
262 ,47.6530 ,1.17062 ,1.03108 ,10.11691 
263 ,47.8289 ,1.17233 ,1.01054 ,9.91544 
264 ,48.0053 ,1.17409 ,0.98659 ,9.68039 
265 ,48.1812 ,1.17593 ,0.97632 ,9.57966 
266 ,48.3574 ,1.17760 ,0.98317 ,9.64682 
267 ,48.5333 ,1.17941 ,0.97290 ,9.54608 
268 ,48.7096 ,1.18115 ,0.94552 ,9.27745 
269 ,48.9017 ,1.18303 ,0.92841 ,9.10956 
270 ,49.0778 ,1.18489 ,0.92841 ,9.10956 
271 ,49.2538 ,1.18665 ,0.91472 ,8.97525 
272 ,49.4460 ,1.18849 ,0.88734 ,8.70662 
273 ,49.6220 ,1.19042 ,0.89419 ,8.77378 
274 ,49.8142 ,1.19206 ,0.87366 ,8.57231 
275 ,50.0061 ,1.19412 ,0.84970 ,8.33726 
276 ,50.1983 ,1.19597 ,0.83601 ,8.20295 
277 ,50.4061 ,1.19807 ,0.81548 ,8.00148 
278 ,50.5825 ,1.19989 ,0.82232 ,8.06864 
279 ,50.7580 ,1.20164 ,0.79837 ,7.83359 
280 ,50.9345 ,1.20337 ,0.80521 ,7.90074 
281 ,51.1106 ,1.20514 ,0.77784 ,7.63212 
282 ,51.3027 ,1.20699 ,0.76415 ,7.49780 
283 ,51.4948 ,1.20887 ,0.75730 ,7.43065 
284 ,51.6869 ,1.21100 ,0.74019 ,7.26276 
285 ,51.8950 ,1.21298 ,0.72992 ,7.16202 
286 ,52.0866 ,1.21493 ,0.69570 ,6.82624 
287 ,52.2628 ,1.21667 ,0.69913 ,6.85982 
288 ,52.4388 ,1.21847 ,0.67859 ,6.65835 
289 ,52.6310 ,1.22025 ,0.68201 ,6.69193 
290 ,52.8230 ,1.22229 ,0.65806 ,6.45688 
291 ,52.9994 ,1.22406 ,0.64095 ,6.28899 
292 ,53.1754 ,1.22578 ,0.65121 ,6.38972 
293 ,53.3514 ,1.22755 ,0.62726 ,6.15467 
294 ,53.5437 ,1.22954 ,0.61699 ,6.05394 
295 ,53.7198 ,1.23127 ,0.59646 ,5.85247 
296 ,53.9115 ,1.23315 ,0.58277 ,5.71815 
297 ,54.0879 ,1.23494 ,0.56908 ,5.58384 
298 ,54.2800 ,1.23685 ,0.57251 ,5.61742 
299 ,54.4558 ,1.23860 ,0.56566 ,5.55026 
300 ,54.6321 ,1.24038 ,0.53486 ,5.24806 
301 ,54.8239 ,1.24225 ,0.51775 ,5.08017 
302 ,55.0001 ,1.24405 ,0.50406 ,4.94585 
303 ,55.1762 ,1.24579 ,0.49380 ,4.84512 
304 ,55.3682 ,1.24768 ,0.46642 ,4.57649 
305 ,55.5444 ,1.24946 ,0.46300 ,4.54291 
306 ,55.7204 ,1.25122 ,0.46642 ,4.57649 
307 ,55.8964 ,1.25302 ,0.44246 ,4.34144 
308 ,56.0725 ,1.25471 ,0.43562 ,4.27429 
309 ,56.2647 ,1.25665 ,0.42877 ,4.20713 
310 ,56.4408 ,1.25850 ,0.41509 ,4.07282 
311 ,56.6168 ,1.26022 ,0.40140 ,3.93850 
312 ,56.7929 ,1.26194 ,0.37744 ,3.70346 
313 ,56.9688 ,1.26373 ,0.35691 ,3.50199 
314 ,57.1609 ,1.26558 ,0.36033 ,3.53557 
315 ,57.3372 ,1.26742 ,0.35006 ,3.43483 
316 ,57.5292 ,1.26931 ,0.32953 ,3.23336 
317 ,57.7054 ,1.27108 ,0.32269 ,3.16620 
318 ,57.8973 ,1.27296 ,0.30558 ,2.99831 
319 ,58.0734 ,1.27475 ,0.28504 ,2.79684 
320 ,58.2497 ,1.27656 ,0.28162 ,2.76326 
321 ,58.4576 ,1.27851 ,0.27820 ,2.72969 
322 ,58.6492 ,1.28051 ,0.25767 ,2.52822 
323 ,58.8253 ,1.28227 ,0.23371 ,2.29317 
324 ,58.9854 ,1.28402 ,0.24398 ,2.39390 
325 ,59.1615 ,1.28562 ,0.23029 ,2.25959 
326 ,59.3376 ,1.28739 ,0.21318 ,2.09170 
327 ,59.5136 ,1.28912 ,0.18922 ,1.85665 
328 ,59.6898 ,1.29091 ,0.18238 ,1.78949 
329 ,59.8980 ,1.29294 ,0.17211 ,1.68876 
330 ,60.0740 ,1.29476 ,0.16185 ,1.58802 
331 ,60.2499 ,1.29657 ,0.13789 ,1.35298 
332 ,60.4261 ,1.29829 ,0.13447 ,1.31940 
333 ,60.6183 ,1.30017 ,0.12078 ,1.18508 
334 ,60.7939 ,1.30192 ,0.11051 ,1.08435 
335 ,60.9701 ,1.30371 ,0.09340 ,0.91646 
336 ,61.1460 ,1.30546 ,0.09340 ,0.91646 
337 ,61.3225 ,1.30725 ,0.08314 ,0.81572 
338 ,61.5308 ,1.30937 ,0.05918 ,0.58067 
339 ,61.7387 ,1.31133 ,0.05576 ,0.54710 
340 ,61.9148 ,1.31314 ,0.04891 ,0.47994 
341 ,62.0906 ,1.31490 ,0.03180 ,0.31205 
342 ,62.2830 ,1.31686 ,0.04549 ,0.44636 
343 ,62.4589 ,1.31856 ,0.01469 ,0.14416 
344 ,62.6351 ,1.32033 ,0.00100 ,0.00984 
345 ,62.8113 ,1.32209 ,-0.01953 ,-0.19163 
346 ,62.9873 ,1.32391 ,-0.01953 ,-0.19163 
347 ,63.1633 ,1.32563 ,-0.01269 ,-0.12447 
348 ,63.3395 ,1.32740 ,-0.04691 ,-0.46025 
349 ,63.5313 ,1.32931 ,-0.04691 ,-0.46025 
350 ,63.7077 ,1.33108 ,-0.05375 ,-0.52741 
351 ,63.8995 ,1.33301 ,-0.06744 ,-0.66172 
352 ,64.1078 ,1.33498 ,-0.08455 ,-0.82961 
353 ,64.2999 ,1.33705 ,-0.09482 ,-0.93035 
354 ,64.4918 ,1.33893 ,-0.11193 ,-1.09824 
355 ,64.7001 ,1.34100 ,-0.11193 ,-1.09824 
356 ,64.8759 ,1.34277 ,-0.12219 ,-1.19898 
357 ,65.0521 ,1.34452 ,-0.13588 ,-1.33329 
358 ,65.2281 ,1.34629 ,-0.12904 ,-1.26613 
359 ,65.4044 ,1.34806 ,-0.14273 ,-1.40045 
360 ,65.5960 ,1.34992 ,-0.14957 ,-1.46760 
361 ,65.7723 ,1.35175 ,-0.17695 ,-1.73623 
362 ,65.9645 ,1.35366 ,-0.18037 ,-1.76981 
363 ,66.1566 ,1.35547 ,-0.19064 ,-1.87054 
364 ,66.3487 ,1.35749 ,-0.19064 ,-1.87054 
365 ,66.5247 ,1.35924 ,-0.20775 ,-2.03843 
366 ,66.7164 ,1.36107 ,-0.23513 ,-2.30706 
367 ,66.8928 ,1.36289 ,-0.22486 ,-2.20632 
368 ,67.0689 ,1.36472 ,-0.23855 ,-2.34064 
369 ,67.2450 ,1.36649 ,-0.23855 ,-2.34064 
370 ,67.4210 ,1.36827 ,-0.26593 ,-2.60926 
371 ,67.5972 ,1.37000 ,-0.28304 ,-2.77716 
372 ,67.7732 ,1.37172 ,-0.30015 ,-2.94505 
373 ,67.9492 ,1.37345 ,-0.28646 ,-2.81073 
374 ,68.1254 ,1.37523 ,-0.29673 ,-2.91147 
375 ,68.3174 ,1.37711 ,-0.30357 ,-2.97863 
376 ,68.5098 ,1.37908 ,-0.30699 ,-3.01220 
377 ,68.7016 ,1.38098 ,-0.33779 ,-3.31441 
378 ,68.8778 ,1.38275 ,-0.35490 ,-3.48230 
379 ,69.0693 ,1.38471 ,-0.34121 ,-3.34799 
380 ,69.2459 ,1.38644 ,-0.34121 ,-3.34799 
381 ,69.4378 ,1.38835 ,-0.37886 ,-3.71735 
382 ,69.6138 ,1.39013 ,-0.37544 ,-3.68377 
383 ,69.8060 ,1.39205 ,-0.37886 ,-3.71735 
384 ,69.9981 ,1.39395 ,-0.41308 ,-4.05313 
385 ,70.1901 ,1.39587 ,-0.40966 ,-4.01955 
386 ,70.3663 ,1.39766 ,-0.40623 ,-3.98597 
387 ,70.5423 ,1.39940 ,-0.43703 ,-4.28818 
388 ,70.7184 ,1.40116 ,-0.44046 ,-4.32176 
389 ,70.8942 ,1.40307 ,-0.44388 ,-4.35534 
390 ,71.0545 ,1.40466 ,-0.44388 ,-4.35534 
391 ,71.2467 ,1.40642 ,-0.46783 ,-4.59038 
392 ,71.4227 ,1.40817 ,-0.48837 ,-4.79185 
393 ,71.5989 ,1.40998 ,-0.50206 ,-4.92617 
394 ,71.7909 ,1.41183 ,-0.48837 ,-4.79185 
395 ,71.9666 ,1.41367 ,-0.49521 ,-4.85901 
396 ,72.1432 ,1.41545 ,-0.51232 ,-5.02690 
397 ,72.3352 ,1.41734 ,-0.51232 ,-5.02690 
398 ,72.5273 ,1.41916 ,-0.54312 ,-5.32911 
399 ,72.7353 ,1.42126 ,-0.53628 ,-5.26195 
400 ,72.9113 ,1.42308 ,-0.54312 ,-5.32911 
401 ,73.0714 ,1.42479 ,-0.55681 ,-5.46342 
402 ,73.2474 ,1.42639 ,-0.57392 ,-5.63131 
403 ,73.4396 ,1.42839 ,-0.57734 ,-5.66489 
404 ,73.6155 ,1.43014 ,-0.59103 ,-5.79920 
405 ,73.7918 ,1.43187 ,-0.59103 ,-5.79920 
406 ,73.9678 ,1.43367 ,-0.60130 ,-5.89994 
407 ,74.1597 ,1.43550 ,-0.61841 ,-6.06783 
408 ,74.3520 ,1.43747 ,-0.61499 ,-6.03425 
409 ,74.5279 ,1.43922 ,-0.63210 ,-6.20214 
410 ,74.7041 ,1.44098 ,-0.63210 ,-6.20214 
411 ,74.8801 ,1.44273 ,-0.64579 ,-6.33646 
412 ,75.0561 ,1.44453 ,-0.65605 ,-6.43719 
413 ,75.2323 ,1.44629 ,-0.64921 ,-6.37003 
414 ,75.4244 ,1.44823 ,-0.68685 ,-6.73940 
415 ,75.6005 ,1.45002 ,-0.69027 ,-6.77297 
416 ,75.7765 ,1.45173 ,-0.68343 ,-6.70582 
417 ,75.9526 ,1.45349 ,-0.68685 ,-6.73940 
418 ,76.1288 ,1.45527 ,-0.69712 ,-6.84013 
419 ,76.3206 ,1.45713 ,-0.72107 ,-7.07518 
420 ,76.5132 ,1.45909 ,-0.72792 ,-7.14233 
421 ,76.6889 ,1.46085 ,-0.73818 ,-7.24307 
422 ,76.8650 ,1.46261 ,-0.74161 ,-7.27665 
423 ,77.0409 ,1.46436 ,-0.75872 ,-7.44454 
424 ,77.2171 ,1.46616 ,-0.76214 ,-7.47812 
425 ,77.4093 ,1.46802 ,-0.77241 ,-7.57885 
426 ,77.6013 ,1.46999 ,-0.78952 ,-7.74674 
427 ,77.7933 ,1.47193 ,-0.77241 ,-7.57885 
428 ,77.9855 ,1.47373 ,-0.79294 ,-7.78032 
429 ,78.1614 ,1.47556 ,-0.81005 ,-7.94821 
430 ,78.3374 ,1.47734 ,-0.81689 ,-8.01537 
431 ,78.5138 ,1.47913 ,-0.80663 ,-7.91464 
432 ,78.6897 ,1.48089 ,-0.82032 ,-8.04895 
433 ,78.8659 ,1.48257 ,-0.85454 ,-8.38473 
434 ,79.0737 ,1.48454 ,-0.85112 ,-8.35115 
435 ,79.2500 ,1.48646 ,-0.85112 ,-8.35115 
436 ,79.4417 ,1.48832 ,-0.88192 ,-8.65336 
437 ,79.6181 ,1.49009 ,-0.86823 ,-8.51904 
438 ,79.7941 ,1.49187 ,-0.86138 ,-8.45189 
439 ,79.9862 ,1.49370 ,-0.89560 ,-8.78767 
440 ,80.1623 ,1.49560 ,-0.89903 ,-8.82125 
441 ,80.3544 ,1.49751 ,-0.90929 ,-8.92198 
442 ,80.5305 ,1.49929 ,-0.92298 ,-9.05630 
443 ,80.7385 ,1.50133 ,-0.92640 ,-9.08988 
444 ,80.9146 ,1.50313 ,-0.94009 ,-9.22419 
445 ,81.0907 ,1.50480 ,-0.95378 ,-9.35850 
446 ,81.2828 ,1.50678 ,-0.97089 ,-9.52639 
447 ,81.4585 ,1.50854 ,-0.95720 ,-9.39208 
448 ,81.6509 ,1.51033 ,-0.98116 ,-9.62713 
449 ,81.8429 ,1.51236 ,-0.99827 ,-9.79502 
450 ,82.0192 ,1.51411 ,-0.99827 ,-9.79502 
451 ,82.2110 ,1.51600 ,-1.01196 ,-9.92933 
452 ,82.3873 ,1.51780 ,-1.02222 ,-10.03007 
453 ,82.5468 ,1.51952 ,-1.01880 ,-9.99649 
454 ,82.7234 ,1.52115 ,-1.03249 ,-10.13080 
455 ,82.8995 ,1.52294 ,-1.03591 ,-10.16438 
456 ,83.0755 ,1.52484 ,-1.05302 ,-10.33227 
457 ,83.2514 ,1.52641 ,-1.05645 ,-10.36585 
458 ,83.4276 ,1.52822 ,-1.07356 ,-10.53374 
459 ,83.6194 ,1.53010 ,-1.05645 ,-10.36585 
460 ,83.7957 ,1.53186 ,-1.06671 ,-10.46659 
461 ,83.9719 ,1.53360 ,-1.08725 ,-10.66806 
462 ,84.1480 ,1.53542 ,-1.09409 ,-10.73521 
