Data stamp = , 01-04-2022 06:08:52 972

Calibration Values: 
Slope = , 26.54 , g/V 
Offset Voltage at no contact = , -0.501760 , V 

No , Time , Stage Position ,   Mass , Force 
   ,  (s) ,      (mm)      ,   (g)  , (mN)  

1 ,0.0000 ,0.64957 ,5.26772 ,51.68685 
2 ,0.2186 ,0.64966 ,5.27456 ,51.75401 
3 ,0.4430 ,0.65020 ,5.27114 ,51.72043 
4 ,0.6349 ,0.65129 ,5.25745 ,51.58611 
5 ,0.8271 ,0.65269 ,5.27114 ,51.72043 
6 ,1.0031 ,0.65434 ,5.26430 ,51.65327 
7 ,1.1792 ,0.65606 ,5.27798 ,51.78758 
8 ,1.3389 ,0.65774 ,5.26772 ,51.68685 
9 ,1.5154 ,0.65944 ,5.26772 ,51.68685 
10 ,1.7236 ,0.66144 ,5.26430 ,51.65327 
11 ,1.9156 ,0.66341 ,5.23692 ,51.38464 
12 ,2.1076 ,0.66540 ,5.21981 ,51.21675 
13 ,2.2837 ,0.66711 ,5.22323 ,51.25033 
14 ,2.4597 ,0.66890 ,5.21639 ,51.18317 
15 ,2.6356 ,0.67067 ,5.18901 ,50.91455 
16 ,2.8280 ,0.67256 ,5.17532 ,50.78023 
17 ,3.0359 ,0.67450 ,5.15821 ,50.61234 
18 ,3.2121 ,0.67642 ,5.13768 ,50.41087 
19 ,3.3878 ,0.67822 ,5.12056 ,50.24298 
20 ,3.5957 ,0.68011 ,5.10345 ,50.07509 
21 ,3.7718 ,0.68199 ,5.10003 ,50.04151 
22 ,3.9639 ,0.68386 ,5.08977 ,49.94078 
23 ,4.1402 ,0.68569 ,5.07608 ,49.80646 
24 ,4.3801 ,0.68795 ,5.05897 ,49.63857 
25 ,4.5725 ,0.68992 ,5.03501 ,49.40352 
26 ,4.7803 ,0.69216 ,5.03159 ,49.36995 
27 ,4.9724 ,0.69399 ,4.99394 ,49.00058 
28 ,5.1490 ,0.69582 ,4.98710 ,48.93343 
29 ,5.3725 ,0.69798 ,4.95288 ,48.59764 
30 ,5.5966 ,0.70003 ,4.95630 ,48.63122 
31 ,5.7731 ,0.70202 ,4.92208 ,48.29544 
32 ,5.9648 ,0.70385 ,4.92208 ,48.29544 
33 ,6.2051 ,0.70603 ,4.91181 ,48.19471 
34 ,6.3814 ,0.70812 ,4.88101 ,47.89250 
35 ,6.5889 ,0.71015 ,4.85706 ,47.65745 
36 ,6.7651 ,0.71200 ,4.84337 ,47.52314 
37 ,6.9413 ,0.71371 ,4.83652 ,47.45598 
38 ,7.1332 ,0.71570 ,4.81599 ,47.25451 
39 ,7.3253 ,0.71747 ,4.79546 ,47.05304 
40 ,7.5179 ,0.71933 ,4.79204 ,47.01946 
41 ,7.7735 ,0.72190 ,4.73386 ,46.44863 
42 ,7.9656 ,0.72388 ,4.72359 ,46.34790 
43 ,8.1582 ,0.72575 ,4.71675 ,46.28074 
44 ,8.3817 ,0.72802 ,4.70648 ,46.18001 
45 ,8.5578 ,0.72986 ,4.67911 ,45.91138 
46 ,8.7502 ,0.73165 ,4.65515 ,45.67633 
47 ,8.9739 ,0.73400 ,4.62435 ,45.37413 
48 ,9.1500 ,0.73577 ,4.62435 ,45.37413 
49 ,9.3266 ,0.73757 ,4.61408 ,45.27339 
50 ,9.5502 ,0.73980 ,4.57644 ,44.90403 
51 ,9.7262 ,0.74152 ,4.56275 ,44.76972 
52 ,9.9185 ,0.74337 ,4.55933 ,44.73614 
53 ,10.1424 ,0.74561 ,4.53880 ,44.53467 
54 ,10.3185 ,0.74746 ,4.51484 ,44.29962 
55 ,10.5108 ,0.74929 ,4.48746 ,44.03100 
56 ,10.7506 ,0.75175 ,4.47720 ,43.93026 
57 ,10.9107 ,0.75353 ,4.47378 ,43.89668 
58 ,11.0868 ,0.75515 ,4.44982 ,43.66163 
59 ,11.2629 ,0.75689 ,4.42244 ,43.39301 
60 ,11.4230 ,0.75860 ,4.41902 ,43.35943 
61 ,11.5830 ,0.76022 ,4.39507 ,43.12438 
62 ,11.7751 ,0.76194 ,4.40191 ,43.19154 
63 ,11.9672 ,0.76392 ,4.36084 ,42.78860 
64 ,12.1432 ,0.76571 ,4.35400 ,42.72144 
65 ,12.3359 ,0.76753 ,4.32662 ,42.45282 
66 ,12.5595 ,0.76985 ,4.29582 ,42.15061 
67 ,12.7356 ,0.77164 ,4.28556 ,42.04988 
68 ,12.9117 ,0.77335 ,4.27187 ,41.91556 
69 ,13.0878 ,0.77511 ,4.25818 ,41.78125 
70 ,13.2798 ,0.77698 ,4.23765 ,41.57978 
71 ,13.4403 ,0.77876 ,4.22396 ,41.44547 
72 ,13.6164 ,0.78039 ,4.21027 ,41.31115 
73 ,13.7922 ,0.78218 ,4.18974 ,41.10968 
74 ,13.9684 ,0.78393 ,4.18631 ,41.07611 
75 ,14.1445 ,0.78568 ,4.16578 ,40.87464 
76 ,14.3203 ,0.78744 ,4.13840 ,40.60601 
77 ,14.4804 ,0.78919 ,4.11787 ,40.40454 
78 ,14.6568 ,0.79086 ,4.11103 ,40.33738 
79 ,14.8488 ,0.79274 ,4.09734 ,40.20307 
80 ,15.0246 ,0.79459 ,4.07338 ,39.96802 
81 ,15.2011 ,0.79629 ,4.06654 ,39.90087 
82 ,15.3931 ,0.79820 ,4.03916 ,39.63224 
83 ,15.5691 ,0.79994 ,4.03574 ,39.59866 
84 ,15.7453 ,0.80168 ,4.01178 ,39.36361 
85 ,15.9213 ,0.80345 ,3.98783 ,39.12856 
86 ,16.0970 ,0.80534 ,3.97414 ,38.99425 
87 ,16.2732 ,0.80698 ,3.97756 ,39.02783 
88 ,16.4496 ,0.80872 ,3.96387 ,38.89352 
89 ,16.6254 ,0.81052 ,3.92965 ,38.55773 
90 ,16.8013 ,0.81222 ,3.91596 ,38.42342 
91 ,16.9778 ,0.81405 ,3.88516 ,38.12122 
92 ,17.1701 ,0.81595 ,3.89543 ,38.22195 
93 ,17.3459 ,0.81769 ,3.85779 ,37.85259 
94 ,17.5221 ,0.81947 ,3.84067 ,37.68470 
95 ,17.7142 ,0.82135 ,3.84752 ,37.75185 
96 ,17.8900 ,0.82314 ,3.81672 ,37.44965 
97 ,18.0663 ,0.82487 ,3.80645 ,37.34891 
98 ,18.2743 ,0.82692 ,3.77908 ,37.08029 
99 ,18.4500 ,0.82875 ,3.76196 ,36.91240 
100 ,18.6264 ,0.83049 ,3.76196 ,36.91240 
101 ,18.8187 ,0.83234 ,3.74143 ,36.71093 
102 ,19.0106 ,0.83436 ,3.73459 ,36.64377 
103 ,19.1864 ,0.83608 ,3.69010 ,36.20725 
104 ,19.3629 ,0.83786 ,3.67299 ,36.03936 
105 ,19.5225 ,0.83960 ,3.66272 ,35.93863 
106 ,19.6989 ,0.84124 ,3.65588 ,35.87147 
107 ,19.8910 ,0.84317 ,3.65588 ,35.87147 
108 ,20.0674 ,0.84489 ,3.61823 ,35.50211 
109 ,20.2431 ,0.84669 ,3.58743 ,35.19990 
110 ,20.4192 ,0.84840 ,3.58743 ,35.19990 
111 ,20.5948 ,0.85019 ,3.57717 ,35.09917 
112 ,20.7715 ,0.85188 ,3.56006 ,34.93128 
113 ,20.9637 ,0.85389 ,3.53610 ,34.69623 
114 ,21.1392 ,0.85563 ,3.51899 ,34.52834 
115 ,21.3157 ,0.85738 ,3.52241 ,34.56192 
116 ,21.4915 ,0.85916 ,3.49846 ,34.32687 
117 ,21.6677 ,0.86089 ,3.46081 ,33.95751 
118 ,21.8438 ,0.86267 ,3.44028 ,33.75604 
119 ,22.0199 ,0.86439 ,3.45055 ,33.85677 
120 ,22.1956 ,0.86618 ,3.43001 ,33.65530 
121 ,22.3720 ,0.86790 ,3.41633 ,33.52099 
122 ,22.5480 ,0.86969 ,3.38553 ,33.21878 
123 ,22.7240 ,0.87144 ,3.36842 ,33.05089 
124 ,22.9002 ,0.87321 ,3.37526 ,33.11805 
125 ,23.0760 ,0.87499 ,3.35815 ,32.95016 
126 ,23.2524 ,0.87673 ,3.33762 ,32.74869 
127 ,23.4282 ,0.87853 ,3.30339 ,32.41290 
128 ,23.6046 ,0.88023 ,3.28971 ,32.27859 
129 ,23.7805 ,0.88201 ,3.28971 ,32.27859 
130 ,23.9568 ,0.88377 ,3.28286 ,32.21143 
131 ,24.1326 ,0.88551 ,3.26233 ,32.00996 
132 ,24.3088 ,0.88729 ,3.23837 ,31.77492 
133 ,24.4849 ,0.88911 ,3.20757 ,31.47271 
134 ,24.6770 ,0.89093 ,3.21784 ,31.57345 
135 ,24.8528 ,0.89272 ,3.19046 ,31.30482 
136 ,25.0609 ,0.89469 ,3.17335 ,31.13693 
137 ,25.2530 ,0.89669 ,3.15282 ,30.93546 
138 ,25.4293 ,0.89851 ,3.13913 ,30.80115 
139 ,25.6052 ,0.90024 ,3.12202 ,30.63325 
140 ,25.7814 ,0.90202 ,3.11518 ,30.56610 
141 ,25.9734 ,0.90387 ,3.09464 ,30.36463 
142 ,26.1655 ,0.90587 ,3.07753 ,30.19674 
143 ,26.3415 ,0.90761 ,3.07069 ,30.12958 
144 ,26.5175 ,0.90940 ,3.05015 ,29.92811 
145 ,26.6936 ,0.91115 ,3.02278 ,29.65948 
146 ,26.8697 ,0.91287 ,3.01251 ,29.55875 
147 ,27.0460 ,0.91467 ,2.99198 ,29.35728 
148 ,27.2380 ,0.91663 ,2.98171 ,29.25654 
149 ,27.4139 ,0.91832 ,2.97487 ,29.18939 
150 ,27.6061 ,0.92026 ,2.95091 ,28.95434 
151 ,27.7982 ,0.92225 ,2.93038 ,28.75287 
152 ,27.9902 ,0.92405 ,2.91327 ,28.58498 
153 ,28.1503 ,0.92582 ,2.89958 ,28.45066 
154 ,28.3263 ,0.92747 ,2.87905 ,28.24919 
155 ,28.4864 ,0.92918 ,2.88247 ,28.28277 
156 ,28.6785 ,0.93096 ,2.85851 ,28.04772 
157 ,28.8547 ,0.93272 ,2.83798 ,27.84625 
158 ,29.0463 ,0.93466 ,2.82429 ,27.71194 
159 ,29.2226 ,0.93641 ,2.81745 ,27.64479 
160 ,29.3990 ,0.93821 ,2.80718 ,27.54405 
161 ,29.5909 ,0.94005 ,2.78665 ,27.34258 
162 ,29.7830 ,0.94193 ,2.76269 ,27.10753 
163 ,29.9748 ,0.94399 ,2.74216 ,26.90606 
164 ,30.1671 ,0.94582 ,2.72847 ,26.77175 
165 ,30.3431 ,0.94759 ,2.72847 ,26.77175 
166 ,30.5193 ,0.94938 ,2.69083 ,26.40239 
167 ,30.6954 ,0.95113 ,2.67714 ,26.26807 
168 ,30.8875 ,0.95302 ,2.68056 ,26.30165 
169 ,31.0795 ,0.95495 ,2.65660 ,26.06661 
170 ,31.2395 ,0.95673 ,2.63607 ,25.86514 
171 ,31.4156 ,0.95837 ,2.62581 ,25.76440 
172 ,31.5917 ,0.96011 ,2.61554 ,25.66367 
173 ,31.7679 ,0.96188 ,2.60527 ,25.56293 
174 ,31.9600 ,0.96379 ,2.58816 ,25.39504 
175 ,32.1358 ,0.96554 ,2.55394 ,25.05926 
176 ,32.3119 ,0.96732 ,2.54025 ,24.92494 
177 ,32.5042 ,0.96922 ,2.54367 ,24.95852 
178 ,32.6800 ,0.97102 ,2.52998 ,24.82421 
179 ,32.8562 ,0.97276 ,2.50945 ,24.62274 
180 ,33.0323 ,0.97452 ,2.48550 ,24.38769 
181 ,33.2401 ,0.97646 ,2.48892 ,24.42127 
182 ,33.4165 ,0.97834 ,2.44443 ,23.98475 
183 ,33.6086 ,0.98022 ,2.43759 ,23.91759 
184 ,33.7846 ,0.98203 ,2.43759 ,23.91759 
185 ,33.9607 ,0.98375 ,2.40679 ,23.61539 
186 ,34.1367 ,0.98556 ,2.39310 ,23.48108 
187 ,34.3284 ,0.98736 ,2.37599 ,23.31318 
188 ,34.5050 ,0.98923 ,2.37599 ,23.31318 
189 ,34.6970 ,0.99118 ,2.34861 ,23.04456 
190 ,34.8730 ,0.99293 ,2.33150 ,22.87667 
191 ,35.0492 ,0.99465 ,2.33150 ,22.87667 
192 ,35.2252 ,0.99644 ,2.31439 ,22.70877 
193 ,35.4010 ,0.99816 ,2.28359 ,22.40657 
194 ,35.5773 ,0.99997 ,2.26648 ,22.23868 
195 ,35.7853 ,1.00191 ,2.25621 ,22.13794 
196 ,35.9774 ,1.00396 ,2.23568 ,21.93647 
197 ,36.1534 ,1.00567 ,2.22541 ,21.83574 
198 ,36.3454 ,1.00767 ,2.20488 ,21.63427 
199 ,36.5214 ,1.00937 ,2.20830 ,21.66785 
200 ,36.6978 ,1.01111 ,2.17750 ,21.36564 
201 ,36.8737 ,1.01293 ,2.16381 ,21.23133 
202 ,37.0499 ,1.01466 ,2.15697 ,21.16417 
203 ,37.2258 ,1.01638 ,2.15012 ,21.09702 
204 ,37.4020 ,1.01820 ,2.12275 ,20.82839 
205 ,37.5620 ,1.01988 ,2.09879 ,20.59334 
206 ,37.7381 ,1.02156 ,2.09195 ,20.52619 
207 ,37.9142 ,1.02332 ,2.07484 ,20.35829 
208 ,38.1062 ,1.02522 ,2.07826 ,20.39187 
209 ,38.2824 ,1.02701 ,2.03719 ,19.98893 
210 ,38.4583 ,1.02880 ,2.03719 ,19.98893 
211 ,38.6344 ,1.03049 ,2.02008 ,19.82104 
212 ,38.8265 ,1.03243 ,2.00982 ,19.72031 
213 ,39.0026 ,1.03417 ,1.99270 ,19.55241 
214 ,39.1944 ,1.03607 ,1.98586 ,19.48526 
215 ,39.3868 ,1.03803 ,1.96533 ,19.28379 
216 ,39.5785 ,1.03994 ,1.93795 ,19.01516 
217 ,39.7549 ,1.04173 ,1.91742 ,18.81369 
218 ,39.9467 ,1.04365 ,1.91399 ,18.78011 
219 ,40.1225 ,1.04546 ,1.89004 ,18.54507 
220 ,40.2986 ,1.04715 ,1.87977 ,18.44433 
221 ,40.4751 ,1.04890 ,1.87977 ,18.44433 
222 ,40.6669 ,1.05088 ,1.84897 ,18.14213 
223 ,40.8434 ,1.05263 ,1.84555 ,18.10855 
224 ,41.0355 ,1.05441 ,1.81817 ,17.83992 
225 ,41.2275 ,1.05644 ,1.81133 ,17.77276 
226 ,41.4036 ,1.05814 ,1.78737 ,17.53772 
227 ,41.5958 ,1.06002 ,1.79764 ,17.63845 
228 ,41.7877 ,1.06200 ,1.76000 ,17.26909 
229 ,41.9640 ,1.06381 ,1.76342 ,17.30267 
230 ,42.1554 ,1.06566 ,1.75315 ,17.20193 
231 ,42.3314 ,1.06744 ,1.73946 ,17.06762 
232 ,42.5077 ,1.06923 ,1.71551 ,16.83257 
233 ,42.7159 ,1.07132 ,1.68471 ,16.53037 
234 ,42.9082 ,1.07324 ,1.69498 ,16.63110 
235 ,43.1001 ,1.07518 ,1.66075 ,16.29532 
236 ,43.2763 ,1.07690 ,1.67102 ,16.39605 
237 ,43.4684 ,1.07874 ,1.64022 ,16.09385 
238 ,43.6445 ,1.08057 ,1.61284 ,15.82522 
239 ,43.8522 ,1.08267 ,1.60258 ,15.72449 
240 ,44.0287 ,1.08444 ,1.59573 ,15.65733 
241 ,44.2048 ,1.08616 ,1.57520 ,15.45586 
242 ,44.3969 ,1.08809 ,1.57862 ,15.48944 
243 ,44.5730 ,1.08984 ,1.56151 ,15.32155 
244 ,44.7490 ,1.09159 ,1.54098 ,15.12008 
245 ,44.9409 ,1.09352 ,1.52045 ,14.91861 
246 ,45.1171 ,1.09528 ,1.53071 ,15.01934 
247 ,45.3092 ,1.09720 ,1.48622 ,14.58283 
248 ,45.4852 ,1.09897 ,1.47938 ,14.51567 
249 ,45.6615 ,1.10076 ,1.47596 ,14.48209 
250 ,45.8374 ,1.10257 ,1.45542 ,14.28062 
251 ,46.0133 ,1.10439 ,1.44174 ,14.14631 
252 ,46.1893 ,1.10599 ,1.42805 ,14.01199 
253 ,46.3656 ,1.10776 ,1.40409 ,13.77695 
254 ,46.5417 ,1.10955 ,1.40751 ,13.81053 
255 ,46.7177 ,1.11127 ,1.40067 ,13.74337 
256 ,46.8939 ,1.11303 ,1.38356 ,13.57548 
257 ,47.1020 ,1.11507 ,1.36303 ,13.37401 
258 ,47.2781 ,1.11694 ,1.34591 ,13.20612 
259 ,47.4703 ,1.11883 ,1.32538 ,13.00465 
260 ,47.6462 ,1.12057 ,1.30827 ,12.83675 
261 ,47.8383 ,1.12252 ,1.30827 ,12.83675 
262 ,48.0140 ,1.12423 ,1.30143 ,12.76960 
263 ,48.1905 ,1.12605 ,1.27747 ,12.53455 
264 ,48.3665 ,1.12777 ,1.25694 ,12.33308 
265 ,48.5425 ,1.12956 ,1.24667 ,12.23235 
266 ,48.7183 ,1.13135 ,1.24325 ,12.19877 
267 ,48.8945 ,1.13312 ,1.23298 ,12.09803 
268 ,49.0867 ,1.13496 ,1.21929 ,11.96372 
269 ,49.2787 ,1.13689 ,1.21245 ,11.89656 
270 ,49.4545 ,1.13873 ,1.19534 ,11.72867 
271 ,49.6310 ,1.14044 ,1.17138 ,11.49362 
272 ,49.8071 ,1.14217 ,1.16796 ,11.46004 
273 ,49.9832 ,1.14395 ,1.14058 ,11.19142 
274 ,50.1593 ,1.14573 ,1.15427 ,11.32573 
275 ,50.3513 ,1.14759 ,1.10636 ,10.85563 
276 ,50.5273 ,1.14936 ,1.10636 ,10.85563 
277 ,50.7031 ,1.15118 ,1.09952 ,10.78848 
278 ,50.8952 ,1.15304 ,1.06872 ,10.48627 
279 ,51.0717 ,1.15484 ,1.06187 ,10.41912 
280 ,51.2314 ,1.15656 ,1.05503 ,10.35196 
281 ,51.4238 ,1.15828 ,1.03108 ,10.11691 
282 ,51.6157 ,1.16026 ,1.04134 ,10.21765 
283 ,51.8079 ,1.16223 ,1.02081 ,10.01618 
284 ,51.9839 ,1.16390 ,1.00370 ,9.84829 
285 ,52.1601 ,1.16572 ,1.00712 ,9.88186 
286 ,52.3356 ,1.16744 ,0.98317 ,9.64682 
287 ,52.5122 ,1.16921 ,0.95921 ,9.41177 
288 ,52.6882 ,1.17102 ,0.95579 ,9.37819 
289 ,52.8642 ,1.17271 ,0.95237 ,9.34461 
290 ,53.0404 ,1.17450 ,0.93525 ,9.17672 
291 ,53.2165 ,1.17622 ,0.91472 ,8.97525 
292 ,53.4082 ,1.17819 ,0.88734 ,8.70662 
293 ,53.5846 ,1.17992 ,0.89761 ,8.80736 
294 ,53.7606 ,1.18176 ,0.88734 ,8.70662 
295 ,53.9368 ,1.18345 ,0.85654 ,8.40442 
296 ,54.1129 ,1.18524 ,0.84286 ,8.27011 
297 ,54.2886 ,1.18698 ,0.84286 ,8.27011 
298 ,54.4647 ,1.18874 ,0.83259 ,8.16937 
299 ,54.6410 ,1.19050 ,0.81548 ,8.00148 
300 ,54.8172 ,1.19230 ,0.79152 ,7.76643 
301 ,55.0093 ,1.19419 ,0.79152 ,7.76643 
302 ,55.2013 ,1.19610 ,0.76757 ,7.53138 
303 ,55.3774 ,1.19791 ,0.75730 ,7.43065 
304 ,55.5530 ,1.19963 ,0.73677 ,7.22918 
305 ,55.7295 ,1.20142 ,0.72992 ,7.16202 
306 ,55.9213 ,1.20318 ,0.72992 ,7.16202 
307 ,56.0975 ,1.20506 ,0.71281 ,6.99413 
308 ,56.2739 ,1.20684 ,0.67859 ,6.65835 
309 ,56.4498 ,1.20861 ,0.68544 ,6.72550 
310 ,56.6418 ,1.21050 ,0.67175 ,6.59119 
311 ,56.8179 ,1.21223 ,0.64779 ,6.35614 
312 ,57.0098 ,1.21417 ,0.64779 ,6.35614 
313 ,57.1860 ,1.21595 ,0.64437 ,6.32256 
314 ,57.3621 ,1.21769 ,0.62042 ,6.08752 
315 ,57.5383 ,1.21949 ,0.61015 ,5.98678 
316 ,57.7142 ,1.22124 ,0.58962 ,5.78531 
317 ,57.9224 ,1.22321 ,0.59646 ,5.85247 
318 ,58.1144 ,1.22513 ,0.56566 ,5.55026 
319 ,58.2906 ,1.22699 ,0.54855 ,5.38237 
320 ,58.4665 ,1.22878 ,0.56224 ,5.51668 
321 ,58.6586 ,1.23066 ,0.52459 ,5.14732 
322 ,58.8509 ,1.23254 ,0.52459 ,5.14732 
323 ,59.0270 ,1.23439 ,0.52459 ,5.14732 
324 ,59.2189 ,1.23627 ,0.49037 ,4.81154 
325 ,59.3950 ,1.23806 ,0.48353 ,4.74438 
326 ,59.5871 ,1.23990 ,0.48695 ,4.77796 
327 ,59.7628 ,1.24172 ,0.46300 ,4.54291 
328 ,59.9389 ,1.24347 ,0.45273 ,4.44218 
329 ,60.1154 ,1.24518 ,0.44588 ,4.37502 
330 ,60.3074 ,1.24704 ,0.43562 ,4.27429 
331 ,60.4830 ,1.24894 ,0.42535 ,4.17355 
332 ,60.6596 ,1.25069 ,0.39797 ,3.90493 
333 ,60.8196 ,1.25239 ,0.38771 ,3.80419 
334 ,60.9957 ,1.25408 ,0.37744 ,3.70346 
335 ,61.1717 ,1.25589 ,0.38429 ,3.77061 
336 ,61.3480 ,1.25752 ,0.36375 ,3.56914 
337 ,61.5399 ,1.25946 ,0.33980 ,3.33410 
338 ,61.7159 ,1.26128 ,0.35006 ,3.43483 
339 ,61.8921 ,1.26300 ,0.34322 ,3.36767 
340 ,62.0842 ,1.26493 ,0.31926 ,3.13263 
341 ,62.2760 ,1.26683 ,0.31242 ,3.06547 
342 ,62.4523 ,1.26860 ,0.30558 ,2.99831 
343 ,62.6283 ,1.27032 ,0.28847 ,2.83042 
344 ,62.8042 ,1.27210 ,0.26793 ,2.62895 
345 ,62.9803 ,1.27385 ,0.25424 ,2.49464 
346 ,63.1726 ,1.27580 ,0.26109 ,2.56179 
347 ,63.3486 ,1.27755 ,0.24398 ,2.39390 
348 ,63.5406 ,1.27944 ,0.22687 ,2.22601 
349 ,63.7168 ,1.28119 ,0.22344 ,2.19243 
350 ,63.8929 ,1.28300 ,0.21318 ,2.09170 
351 ,64.0689 ,1.28484 ,0.19264 ,1.89023 
352 ,64.2610 ,1.28667 ,0.16869 ,1.65518 
353 ,64.4372 ,1.28844 ,0.16185 ,1.58802 
354 ,64.6293 ,1.29035 ,0.17896 ,1.75592 
355 ,64.8053 ,1.29215 ,0.14816 ,1.45371 
356 ,64.9809 ,1.29384 ,0.14131 ,1.38655 
357 ,65.1575 ,1.29564 ,0.12078 ,1.18508 
358 ,65.3655 ,1.29766 ,0.10709 ,1.05077 
359 ,65.5412 ,1.29944 ,0.10025 ,0.98361 
360 ,65.7176 ,1.30119 ,0.09340 ,0.91646 
361 ,65.8936 ,1.30295 ,0.07971 ,0.78214 
362 ,66.0853 ,1.30482 ,0.08998 ,0.88288 
363 ,66.2618 ,1.30667 ,0.06260 ,0.61425 
364 ,66.4538 ,1.30856 ,0.07971 ,0.78214 
365 ,66.6300 ,1.31031 ,0.04549 ,0.44636 
366 ,66.8221 ,1.31230 ,0.02496 ,0.24489 
367 ,66.9979 ,1.31405 ,0.01811 ,0.17773 
368 ,67.1579 ,1.31575 ,0.01811 ,0.17773 
369 ,67.3343 ,1.31743 ,0.00443 ,0.04342 
370 ,67.5264 ,1.31932 ,-0.01611 ,-0.15805 
371 ,67.7185 ,1.32111 ,-0.02637 ,-0.25878 
372 ,67.8945 ,1.32302 ,-0.02295 ,-0.22520 
373 ,68.0708 ,1.32474 ,-0.04348 ,-0.42667 
374 ,68.2466 ,1.32649 ,-0.05375 ,-0.52741 
375 ,68.4225 ,1.32827 ,-0.06744 ,-0.66172 
376 ,68.5988 ,1.33002 ,-0.07086 ,-0.69530 
377 ,68.7909 ,1.33197 ,-0.08455 ,-0.82961 
378 ,68.9671 ,1.33374 ,-0.10508 ,-1.03108 
379 ,69.1591 ,1.33563 ,-0.09482 ,-0.93035 
380 ,69.3507 ,1.33748 ,-0.12904 ,-1.26613 
381 ,69.5273 ,1.33929 ,-0.13246 ,-1.29971 
382 ,69.7032 ,1.34107 ,-0.13588 ,-1.33329 
383 ,69.8953 ,1.34296 ,-0.13588 ,-1.33329 
384 ,70.0713 ,1.34478 ,-0.14957 ,-1.46760 
385 ,70.2633 ,1.34667 ,-0.17011 ,-1.66907 
386 ,70.4556 ,1.34855 ,-0.17695 ,-1.73623 
387 ,70.6636 ,1.35063 ,-0.17695 ,-1.73623 
388 ,70.8397 ,1.35241 ,-0.19064 ,-1.87054 
389 ,71.0157 ,1.35414 ,-0.20090 ,-1.97128 
390 ,71.2079 ,1.35602 ,-0.19748 ,-1.93770 
391 ,71.3674 ,1.35784 ,-0.22828 ,-2.23990 
392 ,71.5440 ,1.35946 ,-0.22828 ,-2.23990 
393 ,71.7361 ,1.36143 ,-0.23170 ,-2.27348 
394 ,71.9281 ,1.36328 ,-0.26593 ,-2.60926 
395 ,72.1042 ,1.36504 ,-0.27277 ,-2.67642 
396 ,72.2804 ,1.36684 ,-0.26935 ,-2.64284 
397 ,72.4720 ,1.36876 ,-0.28304 ,-2.77716 
398 ,72.6485 ,1.37048 ,-0.29330 ,-2.87789 
399 ,72.8244 ,1.37230 ,-0.30357 ,-2.97863 
400 ,73.0006 ,1.37405 ,-0.31041 ,-3.04578 
401 ,73.1925 ,1.37595 ,-0.31384 ,-3.07936 
402 ,73.3689 ,1.37771 ,-0.34464 ,-3.38156 
403 ,73.5449 ,1.37947 ,-0.34464 ,-3.38156 
404 ,73.7370 ,1.38128 ,-0.34464 ,-3.38156 
405 ,73.9130 ,1.38315 ,-0.34464 ,-3.38156 
406 ,74.1050 ,1.38506 ,-0.37201 ,-3.65019 
407 ,74.2971 ,1.38698 ,-0.36517 ,-3.58303 
408 ,74.4735 ,1.38876 ,-0.38570 ,-3.78450 
409 ,74.6654 ,1.39064 ,-0.38228 ,-3.75093 
410 ,74.8573 ,1.39259 ,-0.40281 ,-3.95240 
411 ,75.0334 ,1.39441 ,-0.43019 ,-4.22102 
412 ,75.2096 ,1.39615 ,-0.43703 ,-4.28818 
413 ,75.4016 ,1.39804 ,-0.43361 ,-4.25460 
414 ,75.5774 ,1.39979 ,-0.44046 ,-4.32176 
415 ,75.7538 ,1.40157 ,-0.45757 ,-4.48965 
416 ,75.9619 ,1.40358 ,-0.45757 ,-4.48965 
417 ,76.1377 ,1.40539 ,-0.47810 ,-4.69112 
418 ,76.3295 ,1.40731 ,-0.50548 ,-4.95975 
419 ,76.5061 ,1.40906 ,-0.49521 ,-4.85901 
420 ,76.6979 ,1.41106 ,-0.51574 ,-5.06048 
421 ,76.8743 ,1.41277 ,-0.51574 ,-5.06048 
422 ,77.0661 ,1.41467 ,-0.52601 ,-5.16121 
423 ,77.2422 ,1.41638 ,-0.52259 ,-5.12764 
424 ,77.4183 ,1.41816 ,-0.54654 ,-5.36268 
425 ,77.5944 ,1.41989 ,-0.56365 ,-5.53058 
426 ,77.7703 ,1.42170 ,-0.57050 ,-5.59773 
427 ,77.9625 ,1.42358 ,-0.54997 ,-5.39626 
428 ,78.1547 ,1.42546 ,-0.57050 ,-5.59773 
429 ,78.3306 ,1.42731 ,-0.60472 ,-5.93352 
430 ,78.5069 ,1.42906 ,-0.60472 ,-5.93352 
431 ,78.6828 ,1.43088 ,-0.60472 ,-5.93352 
432 ,78.8588 ,1.43256 ,-0.62183 ,-6.10141 
433 ,79.0509 ,1.43451 ,-0.63210 ,-6.20214 
434 ,79.2270 ,1.43625 ,-0.63894 ,-6.26930 
435 ,79.4030 ,1.43802 ,-0.63894 ,-6.26930 
436 ,79.5792 ,1.43982 ,-0.64579 ,-6.33646 
437 ,79.7710 ,1.44170 ,-0.66632 ,-6.53793 
438 ,79.9473 ,1.44348 ,-0.66974 ,-6.57150 
439 ,80.1233 ,1.44521 ,-0.66632 ,-6.53793 
440 ,80.2996 ,1.44699 ,-0.68685 ,-6.73940 
441 ,80.4757 ,1.44883 ,-0.69027 ,-6.77297 
442 ,80.6516 ,1.45055 ,-0.71765 ,-7.04160 
443 ,80.8277 ,1.45228 ,-0.71765 ,-7.04160 
444 ,81.0035 ,1.45409 ,-0.72792 ,-7.14233 
445 ,81.1799 ,1.45579 ,-0.71765 ,-7.04160 
446 ,81.3719 ,1.45767 ,-0.74845 ,-7.34380 
447 ,81.5480 ,1.45944 ,-0.74845 ,-7.34380 
448 ,81.7400 ,1.46136 ,-0.76898 ,-7.54527 
449 ,81.9318 ,1.46318 ,-0.78267 ,-7.67959 
450 ,82.1083 ,1.46508 ,-0.79294 ,-7.78032 
451 ,82.3004 ,1.46702 ,-0.78610 ,-7.71317 
452 ,82.4762 ,1.46885 ,-0.80321 ,-7.88106 
453 ,82.6686 ,1.47056 ,-0.82374 ,-8.08253 
454 ,82.8604 ,1.47251 ,-0.80321 ,-7.88106 
455 ,83.0526 ,1.47452 ,-0.83401 ,-8.18326 
456 ,83.2285 ,1.47624 ,-0.83401 ,-8.18326 
457 ,83.4049 ,1.47805 ,-0.83743 ,-8.21684 
458 ,83.5968 ,1.47986 ,-0.84769 ,-8.31758 
459 ,83.7890 ,1.48185 ,-0.86138 ,-8.45189 
460 ,83.9651 ,1.48360 ,-0.86481 ,-8.48547 
461 ,84.1571 ,1.48556 ,-0.89560 ,-8.78767 
462 ,84.3331 ,1.48730 ,-0.90929 ,-8.92198 
463 ,84.5094 ,1.48908 ,-0.90587 ,-8.88841 
