Data stamp = , 01-04-2022 10:39:49 632

Calibration Values: 
Slope = , 26.54 , g/V 
Offset Voltage at no contact = , -0.501760 , V 

No , Time , Stage Position ,   Mass , Force 
   ,  (s) ,      (mm)      ,   (g)  , (mN)  

1 ,0.0000 ,0.64946 ,5.08292 ,49.87362 
2 ,0.2210 ,0.64957 ,5.07608 ,49.80646 
3 ,0.5094 ,0.65032 ,5.08634 ,49.90720 
4 ,0.7013 ,0.65163 ,5.09661 ,50.00793 
5 ,0.8934 ,0.65312 ,5.08634 ,49.90720 
6 ,1.0694 ,0.65494 ,5.08292 ,49.87362 
7 ,1.2455 ,0.65667 ,5.08634 ,49.90720 
8 ,1.4375 ,0.65845 ,5.09661 ,50.00793 
9 ,1.6134 ,0.66035 ,5.08292 ,49.87362 
10 ,1.7897 ,0.66209 ,5.09319 ,49.97436 
11 ,1.9655 ,0.66386 ,5.10688 ,50.10867 
12 ,2.1418 ,0.66564 ,5.10345 ,50.07509 
13 ,2.3019 ,0.66737 ,5.09661 ,50.00793 
14 ,2.4621 ,0.66897 ,5.10345 ,50.07509 
15 ,2.6381 ,0.67055 ,5.10688 ,50.10867 
16 ,2.8141 ,0.67233 ,5.07950 ,49.84004 
17 ,3.0223 ,0.67429 ,5.08977 ,49.94078 
18 ,3.1981 ,0.67620 ,5.08977 ,49.94078 
19 ,3.3904 ,0.67810 ,5.05554 ,49.60499 
20 ,3.5826 ,0.68005 ,5.06923 ,49.73931 
21 ,3.7586 ,0.68182 ,5.05212 ,49.57142 
22 ,3.9506 ,0.68367 ,5.03501 ,49.40352 
23 ,4.1266 ,0.68547 ,5.01790 ,49.23563 
24 ,4.3025 ,0.68724 ,5.02132 ,49.26921 
25 ,4.4788 ,0.68899 ,5.02132 ,49.26921 
26 ,4.6867 ,0.69104 ,4.98026 ,48.86627 
27 ,4.8631 ,0.69283 ,4.98026 ,48.86627 
28 ,5.0551 ,0.69471 ,4.95630 ,48.63122 
29 ,5.2312 ,0.69651 ,4.94946 ,48.56407 
30 ,5.4071 ,0.69826 ,4.92208 ,48.29544 
31 ,5.5833 ,0.70003 ,4.92550 ,48.32902 
32 ,5.7596 ,0.70184 ,4.90839 ,48.16113 
33 ,5.9515 ,0.70366 ,4.88101 ,47.89250 
34 ,6.1435 ,0.70566 ,4.87417 ,47.82534 
35 ,6.3196 ,0.70738 ,4.86390 ,47.72461 
36 ,6.4956 ,0.70914 ,4.85706 ,47.65745 
37 ,6.6717 ,0.71088 ,4.81941 ,47.28809 
38 ,6.8479 ,0.71267 ,4.80230 ,47.12020 
39 ,7.0559 ,0.71467 ,4.80230 ,47.12020 
40 ,7.2320 ,0.71651 ,4.77150 ,46.81800 
41 ,7.4079 ,0.71831 ,4.74755 ,46.58295 
42 ,7.5841 ,0.72002 ,4.73728 ,46.48221 
43 ,7.7602 ,0.72171 ,4.71675 ,46.28074 
44 ,7.9363 ,0.72359 ,4.69622 ,46.07927 
45 ,8.1284 ,0.72550 ,4.67226 ,45.84422 
46 ,8.3046 ,0.72722 ,4.65515 ,45.67633 
47 ,8.4805 ,0.72898 ,4.64831 ,45.60918 
48 ,8.6566 ,0.73073 ,4.62435 ,45.37413 
49 ,8.8326 ,0.73254 ,4.60040 ,45.13908 
50 ,9.0088 ,0.73426 ,4.59355 ,45.07192 
51 ,9.2009 ,0.73617 ,4.57644 ,44.90403 
52 ,9.3930 ,0.73808 ,4.54222 ,44.56825 
53 ,9.5846 ,0.74002 ,4.52511 ,44.40036 
54 ,9.7610 ,0.74178 ,4.53195 ,44.46751 
55 ,9.9371 ,0.74351 ,4.50800 ,44.23247 
56 ,10.1293 ,0.74539 ,4.46351 ,43.79595 
57 ,10.3049 ,0.74729 ,4.46693 ,43.82953 
58 ,10.4651 ,0.74891 ,4.44298 ,43.59448 
59 ,10.6410 ,0.75058 ,4.42586 ,43.42659 
60 ,10.8175 ,0.75236 ,4.41902 ,43.35943 
61 ,11.0095 ,0.75429 ,4.38138 ,42.99007 
62 ,11.1856 ,0.75605 ,4.37111 ,42.88933 
63 ,11.3615 ,0.75778 ,4.35742 ,42.75502 
64 ,11.5377 ,0.75955 ,4.35058 ,42.68786 
65 ,11.7295 ,0.76151 ,4.32320 ,42.41924 
66 ,11.9058 ,0.76323 ,4.30951 ,42.28492 
67 ,12.0979 ,0.76516 ,4.29924 ,42.18419 
68 ,12.2740 ,0.76692 ,4.28556 ,42.04988 
69 ,12.4500 ,0.76869 ,4.26160 ,41.81483 
70 ,12.6262 ,0.77039 ,4.23422 ,41.54620 
71 ,12.8181 ,0.77236 ,4.23765 ,41.57978 
72 ,12.9941 ,0.77409 ,4.21711 ,41.37831 
73 ,13.1862 ,0.77599 ,4.18631 ,41.07611 
74 ,13.3624 ,0.77780 ,4.16920 ,40.90821 
75 ,13.5544 ,0.77969 ,4.16578 ,40.87464 
76 ,13.7304 ,0.78151 ,4.13840 ,40.60601 
77 ,13.9065 ,0.78320 ,4.12129 ,40.43812 
78 ,14.0987 ,0.78514 ,4.11445 ,40.37096 
79 ,14.2908 ,0.78708 ,4.09049 ,40.13591 
80 ,14.4670 ,0.78881 ,4.07680 ,40.00160 
81 ,14.6590 ,0.79075 ,4.06654 ,39.90087 
82 ,14.8349 ,0.79247 ,4.05627 ,39.80013 
83 ,15.0271 ,0.79438 ,4.02205 ,39.46435 
84 ,15.2190 ,0.79634 ,4.02889 ,39.53150 
85 ,15.3953 ,0.79811 ,3.99809 ,39.22930 
86 ,15.5872 ,0.79997 ,3.97072 ,38.96067 
87 ,15.7635 ,0.80180 ,3.95703 ,38.82636 
88 ,15.9392 ,0.80351 ,3.95361 ,38.79278 
89 ,16.1316 ,0.80537 ,3.92965 ,38.55773 
90 ,16.3236 ,0.80740 ,3.91596 ,38.42342 
91 ,16.5156 ,0.80931 ,3.90227 ,38.28911 
92 ,16.6916 ,0.81107 ,3.87832 ,38.05406 
93 ,16.8680 ,0.81288 ,3.85094 ,37.78543 
94 ,17.0759 ,0.81483 ,3.84752 ,37.75185 
95 ,17.2681 ,0.81676 ,3.83383 ,37.61754 
96 ,17.4438 ,0.81864 ,3.80303 ,37.31534 
97 ,17.6362 ,0.82044 ,3.79961 ,37.28176 
98 ,17.8280 ,0.82244 ,3.76539 ,36.94597 
99 ,18.0199 ,0.82432 ,3.75854 ,36.87882 
100 ,18.1960 ,0.82613 ,3.73801 ,36.67735 
101 ,18.3884 ,0.82799 ,3.72090 ,36.50946 
102 ,18.5642 ,0.82977 ,3.69352 ,36.24083 
103 ,18.7405 ,0.83154 ,3.69352 ,36.24083 
104 ,18.9167 ,0.83334 ,3.67641 ,36.07294 
105 ,19.0924 ,0.83509 ,3.66957 ,36.00578 
106 ,19.2689 ,0.83683 ,3.64219 ,35.73716 
107 ,19.4611 ,0.83879 ,3.61481 ,35.46853 
108 ,19.6367 ,0.84053 ,3.61823 ,35.50211 
109 ,19.8131 ,0.84231 ,3.61139 ,35.43495 
110 ,19.9891 ,0.84409 ,3.58401 ,35.16632 
111 ,20.1649 ,0.84585 ,3.55663 ,34.89770 
112 ,20.3572 ,0.84769 ,3.54637 ,34.79696 
113 ,20.5492 ,0.84964 ,3.53610 ,34.69623 
114 ,20.7414 ,0.85155 ,3.50530 ,34.39402 
115 ,20.9173 ,0.85334 ,3.50188 ,34.36045 
116 ,21.0934 ,0.85503 ,3.49846 ,34.32687 
117 ,21.2694 ,0.85685 ,3.48135 ,34.15898 
118 ,21.4616 ,0.85869 ,3.45739 ,33.92393 
119 ,21.6376 ,0.86053 ,3.43344 ,33.68888 
120 ,21.8138 ,0.86226 ,3.42317 ,33.58814 
121 ,21.9899 ,0.86408 ,3.41975 ,33.55457 
122 ,22.1820 ,0.86588 ,3.39237 ,33.28594 
123 ,22.3739 ,0.86777 ,3.37184 ,33.08447 
124 ,22.5662 ,0.86975 ,3.35473 ,32.91658 
125 ,22.7580 ,0.87171 ,3.33762 ,32.74869 
126 ,22.9341 ,0.87348 ,3.32393 ,32.61437 
127 ,23.1263 ,0.87541 ,3.30339 ,32.41290 
128 ,23.3024 ,0.87714 ,3.28628 ,32.24501 
129 ,23.4945 ,0.87905 ,3.28286 ,32.21143 
130 ,23.6862 ,0.88098 ,3.24864 ,31.87565 
131 ,23.8786 ,0.88278 ,3.24180 ,31.80849 
132 ,24.0867 ,0.88491 ,3.21442 ,31.53987 
133 ,24.2627 ,0.88672 ,3.19731 ,31.37198 
134 ,24.4385 ,0.88848 ,3.19731 ,31.37198 
135 ,24.6150 ,0.89032 ,3.18362 ,31.23766 
136 ,24.8070 ,0.89220 ,3.15966 ,31.00262 
137 ,24.9831 ,0.89396 ,3.13571 ,30.76757 
138 ,25.1752 ,0.89583 ,3.13913 ,30.80115 
139 ,25.3511 ,0.89764 ,3.12202 ,30.63325 
140 ,25.5269 ,0.89934 ,3.10491 ,30.46536 
141 ,25.7034 ,0.90113 ,3.07753 ,30.19674 
142 ,25.8793 ,0.90293 ,3.06042 ,30.02884 
143 ,26.0556 ,0.90468 ,3.05358 ,29.96169 
144 ,26.2315 ,0.90644 ,3.05358 ,29.96169 
145 ,26.4234 ,0.90833 ,3.01251 ,29.55875 
146 ,26.5996 ,0.91014 ,3.00909 ,29.52517 
147 ,26.7756 ,0.91183 ,3.00567 ,29.49159 
148 ,26.9677 ,0.91380 ,2.97487 ,29.18939 
149 ,27.1439 ,0.91551 ,2.96118 ,29.05507 
150 ,27.3201 ,0.91728 ,2.94064 ,28.85360 
151 ,27.4959 ,0.91905 ,2.93722 ,28.82003 
152 ,27.6718 ,0.92088 ,2.91669 ,28.61856 
153 ,27.8480 ,0.92257 ,2.90985 ,28.55140 
154 ,28.0243 ,0.92438 ,2.88589 ,28.31635 
155 ,28.2003 ,0.92612 ,2.86536 ,28.11488 
156 ,28.3924 ,0.92804 ,2.87905 ,28.24919 
157 ,28.5685 ,0.92972 ,2.84825 ,27.94699 
158 ,28.7443 ,0.93157 ,2.82429 ,27.71194 
159 ,28.9208 ,0.93330 ,2.81060 ,27.57763 
160 ,29.0968 ,0.93510 ,2.79007 ,27.37616 
161 ,29.2727 ,0.93679 ,2.79691 ,27.44332 
162 ,29.4490 ,0.93855 ,2.77296 ,27.20827 
163 ,29.6251 ,0.94036 ,2.75585 ,27.04038 
164 ,29.8009 ,0.94212 ,2.73531 ,26.83891 
165 ,29.9931 ,0.94406 ,2.73874 ,26.87248 
166 ,30.1688 ,0.94582 ,2.71820 ,26.67101 
167 ,30.3452 ,0.94753 ,2.68740 ,26.36881 
168 ,30.5212 ,0.94928 ,2.68740 ,26.36881 
169 ,30.6969 ,0.95103 ,2.66003 ,26.10018 
170 ,30.8733 ,0.95280 ,2.66345 ,26.13376 
171 ,31.0815 ,0.95480 ,2.63607 ,25.86514 
172 ,31.2577 ,0.95668 ,2.61896 ,25.69724 
173 ,31.4337 ,0.95846 ,2.61554 ,25.66367 
174 ,31.6098 ,0.96021 ,2.60527 ,25.56293 
175 ,31.7858 ,0.96197 ,2.58132 ,25.32788 
176 ,31.9621 ,0.96375 ,2.56421 ,25.15999 
177 ,32.1379 ,0.96549 ,2.54367 ,24.95852 
178 ,32.3141 ,0.96719 ,2.54710 ,24.99210 
179 ,32.4898 ,0.96903 ,2.52998 ,24.82421 
180 ,32.6821 ,0.97086 ,2.49234 ,24.45485 
181 ,32.8741 ,0.97274 ,2.49576 ,24.48842 
182 ,33.0665 ,0.97476 ,2.47523 ,24.28696 
183 ,33.2581 ,0.97672 ,2.45127 ,24.05191 
184 ,33.4340 ,0.97844 ,2.44101 ,23.95117 
185 ,33.6101 ,0.98019 ,2.42390 ,23.78328 
186 ,33.7862 ,0.98194 ,2.43416 ,23.88402 
187 ,33.9622 ,0.98369 ,2.39310 ,23.48108 
188 ,34.1389 ,0.98551 ,2.37256 ,23.27961 
189 ,34.3309 ,0.98742 ,2.38283 ,23.38034 
190 ,34.4909 ,0.98910 ,2.36230 ,23.17887 
191 ,34.6670 ,0.99076 ,2.34519 ,23.01098 
192 ,34.8431 ,0.99248 ,2.31781 ,22.74235 
193 ,35.0188 ,0.99427 ,2.31097 ,22.67520 
194 ,35.1952 ,0.99601 ,2.29385 ,22.50731 
195 ,35.3873 ,0.99793 ,2.28017 ,22.37299 
196 ,35.5634 ,0.99974 ,2.25621 ,22.13794 
197 ,35.7395 ,1.00149 ,2.23910 ,21.97005 
198 ,35.9155 ,1.00321 ,2.23910 ,21.97005 
199 ,36.0913 ,1.00497 ,2.22883 ,21.86932 
200 ,36.2677 ,1.00673 ,2.21857 ,21.76858 
201 ,36.4438 ,1.00853 ,2.19803 ,21.56711 
202 ,36.6199 ,1.01033 ,2.17408 ,21.33206 
203 ,36.7958 ,1.01217 ,2.17066 ,21.29849 
204 ,36.9881 ,1.01399 ,2.15012 ,21.09702 
205 ,37.1640 ,1.01574 ,2.13986 ,20.99628 
206 ,37.3562 ,1.01759 ,2.11248 ,20.72766 
207 ,37.5481 ,1.01950 ,2.10221 ,20.62692 
208 ,37.7240 ,1.02128 ,2.08510 ,20.45903 
209 ,37.9164 ,1.02312 ,2.06799 ,20.29114 
210 ,38.1080 ,1.02514 ,2.07141 ,20.32472 
211 ,38.2680 ,1.02686 ,2.03719 ,19.98893 
212 ,38.4445 ,1.02848 ,2.02350 ,19.85462 
213 ,38.6206 ,1.03027 ,2.00982 ,19.72031 
214 ,38.8125 ,1.03212 ,2.01666 ,19.78746 
215 ,39.0046 ,1.03403 ,1.97217 ,19.35094 
216 ,39.1809 ,1.03589 ,1.96533 ,19.28379 
217 ,39.3570 ,1.03759 ,1.95506 ,19.18305 
218 ,39.5489 ,1.03954 ,1.94137 ,19.04874 
219 ,39.7251 ,1.04132 ,1.92084 ,18.84727 
220 ,39.9334 ,1.04326 ,1.90373 ,18.67938 
221 ,40.1093 ,1.04518 ,1.90373 ,18.67938 
222 ,40.2852 ,1.04690 ,1.87635 ,18.41075 
223 ,40.4615 ,1.04864 ,1.86266 ,18.27644 
224 ,40.6374 ,1.05043 ,1.83871 ,18.04139 
225 ,40.8136 ,1.05218 ,1.84213 ,18.07497 
226 ,40.9898 ,1.05399 ,1.82844 ,17.94066 
227 ,41.1659 ,1.05574 ,1.80791 ,17.73919 
228 ,41.3576 ,1.05759 ,1.79080 ,17.57129 
229 ,41.5338 ,1.05940 ,1.78395 ,17.50414 
230 ,41.7099 ,1.06117 ,1.77369 ,17.40340 
231 ,41.9181 ,1.06308 ,1.73604 ,17.03404 
232 ,42.1100 ,1.06517 ,1.73604 ,17.03404 
233 ,42.2861 ,1.06692 ,1.71551 ,16.83257 
234 ,42.4779 ,1.06875 ,1.69840 ,16.66468 
235 ,42.6545 ,1.07060 ,1.68813 ,16.56395 
236 ,42.8464 ,1.07250 ,1.66760 ,16.36248 
237 ,43.0380 ,1.07434 ,1.64364 ,16.12743 
238 ,43.2145 ,1.07616 ,1.64022 ,16.09385 
239 ,43.3745 ,1.07791 ,1.62311 ,15.92596 
240 ,43.5503 ,1.07955 ,1.61284 ,15.82522 
241 ,43.7106 ,1.08129 ,1.58889 ,15.59018 
242 ,43.9027 ,1.08305 ,1.57520 ,15.45586 
243 ,44.0789 ,1.08479 ,1.55124 ,15.22081 
244 ,44.3190 ,1.08700 ,1.53413 ,15.05292 
245 ,44.4950 ,1.08901 ,1.52729 ,14.98577 
246 ,44.6712 ,1.09075 ,1.51360 ,14.85145 
247 ,44.8471 ,1.09258 ,1.48622 ,14.58283 
248 ,45.0393 ,1.09445 ,1.49307 ,14.64998 
249 ,45.2634 ,1.09652 ,1.46911 ,14.41493 
250 ,45.4395 ,1.09844 ,1.44858 ,14.21346 
251 ,45.6151 ,1.10016 ,1.44858 ,14.21346 
252 ,45.7913 ,1.10199 ,1.43489 ,14.07915 
253 ,45.9836 ,1.10387 ,1.40067 ,13.74337 
254 ,46.1918 ,1.10591 ,1.40409 ,13.77695 
255 ,46.3677 ,1.10776 ,1.38356 ,13.57548 
256 ,46.5600 ,1.10964 ,1.35618 ,13.30685 
257 ,46.7360 ,1.11142 ,1.35276 ,13.27327 
258 ,46.9280 ,1.11330 ,1.33565 ,13.10538 
259 ,47.1041 ,1.11506 ,1.31512 ,12.90391 
260 ,47.2802 ,1.11681 ,1.28432 ,12.60171 
261 ,47.4882 ,1.11892 ,1.28432 ,12.60171 
262 ,47.6644 ,1.12064 ,1.26720 ,12.43381 
263 ,47.8401 ,1.12239 ,1.25694 ,12.33308 
264 ,48.0165 ,1.12418 ,1.25352 ,12.29950 
265 ,48.1926 ,1.12602 ,1.22956 ,12.06445 
266 ,48.3686 ,1.12773 ,1.22614 ,12.03088 
267 ,48.5606 ,1.12953 ,1.20218 ,11.79583 
268 ,48.7366 ,1.13137 ,1.19534 ,11.72867 
269 ,48.9128 ,1.13315 ,1.18165 ,11.59436 
270 ,49.1050 ,1.13506 ,1.15085 ,11.29215 
271 ,49.2811 ,1.13686 ,1.13716 ,11.15784 
272 ,49.4568 ,1.13863 ,1.12690 ,11.05710 
273 ,49.6491 ,1.14049 ,1.10979 ,10.88921 
274 ,49.8251 ,1.14224 ,1.09610 ,10.75490 
275 ,50.0009 ,1.14406 ,1.07899 ,10.58701 
276 ,50.1772 ,1.14574 ,1.08925 ,10.68774 
277 ,50.3535 ,1.14755 ,1.07556 ,10.55343 
278 ,50.5294 ,1.14934 ,1.05845 ,10.38554 
279 ,50.7055 ,1.15102 ,1.03108 ,10.11691 
280 ,50.8817 ,1.15282 ,1.01054 ,9.91544 
281 ,51.0736 ,1.15473 ,1.02423 ,10.04976 
282 ,51.2656 ,1.15664 ,1.00028 ,9.81471 
283 ,51.4419 ,1.15844 ,0.97290 ,9.54608 
284 ,51.6500 ,1.16040 ,0.97632 ,9.57966 
285 ,51.8260 ,1.16230 ,0.95579 ,9.37819 
286 ,52.0016 ,1.16403 ,0.93525 ,9.17672 
287 ,52.1781 ,1.16577 ,0.92499 ,9.07598 
288 ,52.3702 ,1.16772 ,0.91814 ,9.00883 
289 ,52.5459 ,1.16957 ,0.90446 ,8.87451 
290 ,52.7543 ,1.17145 ,0.90103 ,8.84094 
291 ,52.9303 ,1.17336 ,0.89077 ,8.74020 
292 ,53.1064 ,1.17520 ,0.86681 ,8.50515 
293 ,53.2825 ,1.17679 ,0.83601 ,8.20295 
294 ,53.4586 ,1.17864 ,0.82917 ,8.13579 
295 ,53.6347 ,1.18039 ,0.82232 ,8.06864 
296 ,53.8266 ,1.18222 ,0.80521 ,7.90074 
297 ,54.0028 ,1.18409 ,0.78468 ,7.69927 
298 ,54.1789 ,1.18591 ,0.78468 ,7.69927 
299 ,54.3869 ,1.18782 ,0.76072 ,7.46423 
300 ,54.5791 ,1.18974 ,0.75730 ,7.43065 
301 ,54.7548 ,1.19157 ,0.73335 ,7.19560 
302 ,54.9473 ,1.19334 ,0.74361 ,7.29633 
303 ,55.1229 ,1.19525 ,0.70939 ,6.96055 
304 ,55.3152 ,1.19708 ,0.69913 ,6.85982 
305 ,55.5074 ,1.19903 ,0.69570 ,6.82624 
306 ,55.6831 ,1.20082 ,0.66148 ,6.49046 
307 ,55.8598 ,1.20260 ,0.65121 ,6.38972 
308 ,56.0516 ,1.20448 ,0.65121 ,6.38972 
309 ,56.2112 ,1.20624 ,0.63410 ,6.22183 
310 ,56.4036 ,1.20793 ,0.61699 ,6.05394 
311 ,56.5798 ,1.20980 ,0.60673 ,5.95320 
312 ,56.7717 ,1.21165 ,0.59988 ,5.88605 
313 ,56.9800 ,1.21368 ,0.57935 ,5.68458 
314 ,57.1560 ,1.21562 ,0.56908 ,5.58384 
315 ,57.3161 ,1.21725 ,0.56908 ,5.58384 
316 ,57.5079 ,1.21900 ,0.54855 ,5.38237 
317 ,57.6842 ,1.22083 ,0.52802 ,5.18090 
318 ,57.8602 ,1.22264 ,0.50748 ,4.97943 
319 ,58.0360 ,1.22441 ,0.52459 ,5.14732 
320 ,58.1959 ,1.22607 ,0.50748 ,4.97943 
321 ,58.3721 ,1.22768 ,0.50748 ,4.97943 
322 ,58.5648 ,1.22967 ,0.46642 ,4.57649 
323 ,58.7566 ,1.23161 ,0.45957 ,4.50934 
324 ,58.9327 ,1.23325 ,0.44931 ,4.40860 
325 ,59.1087 ,1.23509 ,0.44246 ,4.34144 
326 ,59.3167 ,1.23704 ,0.41851 ,4.10640 
327 ,59.4929 ,1.23897 ,0.42193 ,4.13997 
328 ,59.6850 ,1.24082 ,0.38429 ,3.77061 
329 ,59.8611 ,1.24260 ,0.38086 ,3.73703 
330 ,60.0373 ,1.24437 ,0.37060 ,3.63630 
331 ,60.2133 ,1.24612 ,0.36718 ,3.60272 
332 ,60.4210 ,1.24803 ,0.34322 ,3.36767 
333 ,60.5974 ,1.24999 ,0.32611 ,3.19978 
334 ,60.7735 ,1.25172 ,0.33638 ,3.30052 
335 ,60.9495 ,1.25350 ,0.32611 ,3.19978 
336 ,61.1256 ,1.25520 ,0.29531 ,2.89758 
337 ,61.3018 ,1.25703 ,0.28847 ,2.83042 
338 ,61.4938 ,1.25886 ,0.28504 ,2.79684 
339 ,61.6857 ,1.26071 ,0.28162 ,2.76326 
340 ,61.8622 ,1.26259 ,0.24398 ,2.39390 
341 ,62.0702 ,1.26463 ,0.24055 ,2.36032 
342 ,62.2460 ,1.26643 ,0.23371 ,2.29317 
343 ,62.4223 ,1.26822 ,0.21660 ,2.12528 
344 ,62.5981 ,1.26992 ,0.19264 ,1.89023 
345 ,62.7905 ,1.27183 ,0.21318 ,2.09170 
346 ,62.9662 ,1.27370 ,0.17211 ,1.68876 
347 ,63.1425 ,1.27542 ,0.16869 ,1.65518 
348 ,63.3668 ,1.27750 ,0.16527 ,1.62160 
349 ,63.5424 ,1.27941 ,0.15500 ,1.52087 
350 ,63.7187 ,1.28118 ,0.13447 ,1.31940 
351 ,63.9107 ,1.28312 ,0.14473 ,1.42013 
352 ,64.0868 ,1.28482 ,0.11051 ,1.08435 
353 ,64.2790 ,1.28676 ,0.11051 ,1.08435 
354 ,64.4550 ,1.28855 ,0.10025 ,0.98361 
355 ,64.6306 ,1.29026 ,0.08656 ,0.84930 
356 ,64.8072 ,1.29205 ,0.08314 ,0.81572 
357 ,64.9992 ,1.29393 ,0.06260 ,0.61425 
358 ,65.1752 ,1.29569 ,0.06602 ,0.64783 
359 ,65.3513 ,1.29746 ,0.05234 ,0.51352 
360 ,65.5274 ,1.29922 ,0.03180 ,0.31205 
361 ,65.6875 ,1.30094 ,0.02154 ,0.21131 
362 ,65.8795 ,1.30266 ,0.02154 ,0.21131 
363 ,66.0715 ,1.30463 ,0.01127 ,0.11058 
364 ,66.2477 ,1.30642 ,0.00100 ,0.00984 
365 ,66.4236 ,1.30816 ,-0.00926 ,-0.09089 
366 ,66.6157 ,1.31001 ,-0.02637 ,-0.25878 
367 ,66.7918 ,1.31187 ,-0.02295 ,-0.22520 
368 ,66.9683 ,1.31367 ,-0.03664 ,-0.35952 
369 ,67.1601 ,1.31559 ,-0.05375 ,-0.52741 
370 ,67.3361 ,1.31731 ,-0.07086 ,-0.69530 
371 ,67.5122 ,1.31906 ,-0.06402 ,-0.62814 
372 ,67.6883 ,1.32079 ,-0.08113 ,-0.79604 
373 ,67.8644 ,1.32264 ,-0.09824 ,-0.96393 
374 ,68.0563 ,1.32454 ,-0.10508 ,-1.03108 
375 ,68.2326 ,1.32626 ,-0.10851 ,-1.06466 
376 ,68.4086 ,1.32805 ,-0.11535 ,-1.13182 
377 ,68.5846 ,1.32977 ,-0.13588 ,-1.33329 
378 ,68.7607 ,1.33156 ,-0.14957 ,-1.46760 
379 ,68.9368 ,1.33337 ,-0.15299 ,-1.50118 
380 ,69.1287 ,1.33528 ,-0.15299 ,-1.50118 
381 ,69.3050 ,1.33700 ,-0.15642 ,-1.53476 
382 ,69.4807 ,1.33878 ,-0.18722 ,-1.83696 
383 ,69.6569 ,1.34053 ,-0.18379 ,-1.80338 
384 ,69.8487 ,1.34239 ,-0.19064 ,-1.87054 
385 ,70.0253 ,1.34420 ,-0.20775 ,-2.03843 
386 ,70.2169 ,1.34611 ,-0.21802 ,-2.13917 
387 ,70.3770 ,1.34783 ,-0.21802 ,-2.13917 
388 ,70.5692 ,1.34957 ,-0.23170 ,-2.27348 
389 ,70.7454 ,1.35139 ,-0.23855 ,-2.34064 
390 ,70.9212 ,1.35311 ,-0.26935 ,-2.64284 
391 ,71.0976 ,1.35490 ,-0.26250 ,-2.57569 
392 ,71.2736 ,1.35663 ,-0.26593 ,-2.60926 
393 ,71.4496 ,1.35846 ,-0.27619 ,-2.71000 
394 ,71.6097 ,1.36019 ,-0.28646 ,-2.81073 
395 ,71.7858 ,1.36178 ,-0.30015 ,-2.94505 
396 ,71.9616 ,1.36359 ,-0.31726 ,-3.11294 
397 ,72.1381 ,1.36535 ,-0.33095 ,-3.24725 
398 ,72.3301 ,1.36726 ,-0.32068 ,-3.14652 
399 ,72.5062 ,1.36899 ,-0.32068 ,-3.14652 
400 ,72.6823 ,1.37077 ,-0.35490 ,-3.48230 
401 ,72.8743 ,1.37267 ,-0.35490 ,-3.48230 
402 ,73.0504 ,1.37440 ,-0.35148 ,-3.44872 
403 ,73.2264 ,1.37617 ,-0.36859 ,-3.61661 
404 ,73.4185 ,1.37810 ,-0.38228 ,-3.75093 
405 ,73.5944 ,1.37988 ,-0.37886 ,-3.71735 
406 ,73.7865 ,1.38179 ,-0.39597 ,-3.88524 
407 ,73.9630 ,1.38356 ,-0.40623 ,-3.98597 
408 ,74.1388 ,1.38533 ,-0.42677 ,-4.18744 
409 ,74.3310 ,1.38726 ,-0.41650 ,-4.08671 
410 ,74.5229 ,1.38909 ,-0.44046 ,-4.32176 
411 ,74.6991 ,1.39087 ,-0.45757 ,-4.48965 
412 ,74.8908 ,1.39284 ,-0.44730 ,-4.38891 
413 ,75.0673 ,1.39459 ,-0.46099 ,-4.52323 
414 ,75.2432 ,1.39640 ,-0.47468 ,-4.65754 
415 ,75.4195 ,1.39809 ,-0.48837 ,-4.79185 
416 ,75.6115 ,1.39994 ,-0.49179 ,-4.82543 
417 ,75.7875 ,1.40178 ,-0.49863 ,-4.89259 
418 ,75.9638 ,1.40355 ,-0.51232 ,-5.02690 
419 ,76.1398 ,1.40538 ,-0.53285 ,-5.22837 
420 ,76.3319 ,1.40712 ,-0.52259 ,-5.12764 
421 ,76.5239 ,1.40915 ,-0.53628 ,-5.26195 
422 ,76.7000 ,1.41096 ,-0.54654 ,-5.36268 
423 ,76.8920 ,1.41279 ,-0.54997 ,-5.39626 
424 ,77.0840 ,1.41475 ,-0.57392 ,-5.63131 
425 ,77.2600 ,1.41651 ,-0.58419 ,-5.73205 
426 ,77.4362 ,1.41826 ,-0.59788 ,-5.86636 
427 ,77.6122 ,1.42016 ,-0.59103 ,-5.79920 
428 ,77.7885 ,1.42182 ,-0.59445 ,-5.83278 
429 ,77.9804 ,1.42371 ,-0.62868 ,-6.16856 
430 ,78.1405 ,1.42545 ,-0.62868 ,-6.16856 
431 ,78.3164 ,1.42711 ,-0.62868 ,-6.16856 
432 ,78.5247 ,1.42909 ,-0.63210 ,-6.20214 
433 ,78.7168 ,1.43107 ,-0.65605 ,-6.43719 
434 ,78.9089 ,1.43297 ,-0.65947 ,-6.47077 
435 ,79.0849 ,1.43476 ,-0.67316 ,-6.60508 
436 ,79.2770 ,1.43664 ,-0.67659 ,-6.63866 
437 ,79.4530 ,1.43846 ,-0.68685 ,-6.73940 
438 ,79.6131 ,1.44014 ,-0.68685 ,-6.73940 
439 ,79.7892 ,1.44180 ,-0.69370 ,-6.80655 
440 ,79.9652 ,1.44359 ,-0.70739 ,-6.94086 
441 ,80.1413 ,1.44528 ,-0.72450 ,-7.10876 
442 ,80.3173 ,1.44708 ,-0.73134 ,-7.17591 
443 ,80.4929 ,1.44887 ,-0.74161 ,-7.27665 
444 ,80.6696 ,1.45055 ,-0.74161 ,-7.27665 
445 ,80.8455 ,1.45234 ,-0.74503 ,-7.31023 
446 ,81.0536 ,1.45431 ,-0.75530 ,-7.41096 
447 ,81.2298 ,1.45617 ,-0.76214 ,-7.47812 
448 ,81.4057 ,1.45793 ,-0.76898 ,-7.54527 
449 ,81.5819 ,1.45968 ,-0.79294 ,-7.78032 
450 ,81.7576 ,1.46146 ,-0.80321 ,-7.88106 
451 ,81.9338 ,1.46325 ,-0.80663 ,-7.91464 
452 ,82.1101 ,1.46500 ,-0.80663 ,-7.91464 
453 ,82.2862 ,1.46674 ,-0.83743 ,-8.21684 
454 ,82.4622 ,1.46853 ,-0.83401 ,-8.18326 
455 ,82.6382 ,1.47030 ,-0.84085 ,-8.25042 
456 ,82.8464 ,1.47229 ,-0.84085 ,-8.25042 
457 ,83.0382 ,1.47429 ,-0.86481 ,-8.48547 
458 ,83.2145 ,1.47601 ,-0.86138 ,-8.45189 
459 ,83.3905 ,1.47780 ,-0.85796 ,-8.41831 
460 ,83.5668 ,1.47952 ,-0.87849 ,-8.61978 
461 ,83.7428 ,1.48134 ,-0.88876 ,-8.72051 
462 ,83.9189 ,1.48311 ,-0.90587 ,-8.88841 
463 ,84.1110 ,1.48503 ,-0.90245 ,-8.85483 
