Data stamp = , 01-04-2022 05:22:59 067

Calibration Values: 
Slope = , 26.54 , g/V 
Offset Voltage at no contact = , -0.501760 , V 

No , Time , Stage Position ,   Mass , Force 
   ,  (s) ,      (mm)      ,   (g)  , (mN)  

1 ,0.0000 ,0.69936 ,4.91523 ,48.22828 
2 ,0.2137 ,0.69942 ,4.90839 ,48.16113 
3 ,0.6136 ,0.70056 ,4.91181 ,48.19471 
4 ,0.7896 ,0.70221 ,4.91866 ,48.26186 
5 ,0.9658 ,0.70378 ,4.92208 ,48.29544 
6 ,1.1419 ,0.70546 ,4.91523 ,48.22828 
7 ,1.3182 ,0.70716 ,4.90155 ,48.09397 
8 ,1.4943 ,0.70898 ,4.90497 ,48.12755 
9 ,1.6701 ,0.71078 ,4.92208 ,48.29544 
10 ,1.8465 ,0.71261 ,4.90155 ,48.09397 
11 ,2.0707 ,0.71455 ,4.87417 ,47.82534 
12 ,2.2625 ,0.71668 ,4.86390 ,47.72461 
13 ,2.4384 ,0.71846 ,4.85021 ,47.59030 
14 ,2.6148 ,0.72021 ,4.83310 ,47.42240 
15 ,2.7910 ,0.72196 ,4.82626 ,47.35525 
16 ,2.9669 ,0.72375 ,4.81599 ,47.25451 
17 ,3.1431 ,0.72551 ,4.78861 ,46.98589 
18 ,3.3192 ,0.72734 ,4.77493 ,46.85157 
19 ,3.5273 ,0.72927 ,4.75097 ,46.61653 
20 ,3.7033 ,0.73115 ,4.75782 ,46.68368 
21 ,3.8954 ,0.73303 ,4.71675 ,46.28074 
22 ,4.0876 ,0.73499 ,4.71675 ,46.28074 
23 ,4.2636 ,0.73675 ,4.69622 ,46.07927 
24 ,4.4556 ,0.73866 ,4.65173 ,45.64275 
25 ,4.6317 ,0.74037 ,4.63462 ,45.47486 
26 ,4.8077 ,0.74213 ,4.64146 ,45.54202 
27 ,4.9836 ,0.74386 ,4.62093 ,45.34055 
28 ,5.1919 ,0.74595 ,4.58671 ,45.00477 
29 ,5.3840 ,0.74781 ,4.56960 ,44.83688 
30 ,5.5762 ,0.74987 ,4.53880 ,44.53467 
31 ,5.7841 ,0.75182 ,4.52169 ,44.36678 
32 ,5.9601 ,0.75366 ,4.50457 ,44.19889 
33 ,6.1362 ,0.75547 ,4.46693 ,43.82953 
34 ,6.3124 ,0.75720 ,4.44982 ,43.66163 
35 ,6.4885 ,0.75898 ,4.43955 ,43.56090 
36 ,6.6802 ,0.76090 ,4.41560 ,43.32585 
37 ,6.8566 ,0.76261 ,4.40191 ,43.19154 
38 ,7.0328 ,0.76437 ,4.37795 ,42.95649 
39 ,7.2249 ,0.76637 ,4.36427 ,42.82218 
40 ,7.4008 ,0.76806 ,4.35058 ,42.68786 
41 ,7.5769 ,0.76985 ,4.31978 ,42.38566 
42 ,7.7531 ,0.77156 ,4.28898 ,42.08345 
43 ,7.9450 ,0.77350 ,4.28898 ,42.08345 
44 ,8.1212 ,0.77532 ,4.27187 ,41.91556 
45 ,8.2972 ,0.77704 ,4.25133 ,41.71409 
46 ,8.4891 ,0.77890 ,4.22738 ,41.47905 
47 ,8.6652 ,0.78074 ,4.22738 ,41.47905 
48 ,8.8413 ,0.78247 ,4.20342 ,41.24400 
49 ,9.0333 ,0.78441 ,4.17605 ,40.97537 
50 ,9.2255 ,0.78622 ,4.15551 ,40.77390 
51 ,9.4017 ,0.78807 ,4.15551 ,40.77390 
52 ,9.5778 ,0.78981 ,4.12814 ,40.50527 
53 ,9.7698 ,0.79172 ,4.11103 ,40.33738 
54 ,9.9459 ,0.79354 ,4.09049 ,40.13591 
55 ,10.1055 ,0.79523 ,4.07680 ,40.00160 
56 ,10.2821 ,0.79692 ,4.07338 ,39.96802 
57 ,10.4741 ,0.79876 ,4.03232 ,39.56508 
58 ,10.6502 ,0.80055 ,4.01863 ,39.43077 
59 ,10.8264 ,0.80233 ,4.01520 ,39.39719 
60 ,11.0024 ,0.80413 ,3.99467 ,39.19572 
61 ,11.1942 ,0.80598 ,3.97756 ,39.02783 
62 ,11.3704 ,0.80773 ,3.96387 ,38.89352 
63 ,11.5465 ,0.80956 ,3.93307 ,38.59131 
64 ,11.7228 ,0.81135 ,3.93650 ,38.62489 
65 ,11.9146 ,0.81308 ,3.91254 ,38.38984 
66 ,12.0907 ,0.81498 ,3.87832 ,38.05406 
67 ,12.2668 ,0.81674 ,3.87147 ,37.98690 
68 ,12.4429 ,0.81845 ,3.86805 ,37.95332 
69 ,12.6190 ,0.82025 ,3.85094 ,37.78543 
70 ,12.8110 ,0.82219 ,3.82356 ,37.51681 
71 ,12.9871 ,0.82393 ,3.80987 ,37.38249 
72 ,13.1631 ,0.82568 ,3.79276 ,37.21460 
73 ,13.3393 ,0.82741 ,3.77565 ,37.04671 
74 ,13.5309 ,0.82932 ,3.75854 ,36.87882 
75 ,13.7070 ,0.83113 ,3.73801 ,36.67735 
76 ,13.8831 ,0.83286 ,3.73117 ,36.61019 
77 ,14.0594 ,0.83460 ,3.73117 ,36.61019 
78 ,14.2675 ,0.83672 ,3.69694 ,36.27441 
79 ,14.4596 ,0.83868 ,3.67983 ,36.10652 
80 ,14.6516 ,0.84054 ,3.67983 ,36.10652 
81 ,14.8281 ,0.84231 ,3.63534 ,35.67000 
82 ,15.0039 ,0.84409 ,3.61823 ,35.50211 
83 ,15.1800 ,0.84579 ,3.62166 ,35.53569 
84 ,15.3558 ,0.84760 ,3.60797 ,35.40137 
85 ,15.5321 ,0.84935 ,3.58059 ,35.13275 
86 ,15.7081 ,0.85108 ,3.54979 ,34.83054 
87 ,15.8843 ,0.85290 ,3.55321 ,34.86412 
88 ,16.0603 ,0.85465 ,3.53952 ,34.72981 
89 ,16.2364 ,0.85640 ,3.52926 ,34.62907 
90 ,16.4122 ,0.85815 ,3.50188 ,34.36045 
91 ,16.5886 ,0.85991 ,3.48819 ,34.22613 
92 ,16.7804 ,0.86182 ,3.46424 ,33.99108 
93 ,16.9566 ,0.86363 ,3.46424 ,33.99108 
94 ,17.1488 ,0.86553 ,3.42317 ,33.58814 
95 ,17.3408 ,0.86742 ,3.42659 ,33.62172 
96 ,17.5328 ,0.86939 ,3.41633 ,33.52099 
97 ,17.7248 ,0.87120 ,3.38553 ,33.21878 
98 ,17.9010 ,0.87302 ,3.37526 ,33.11805 
99 ,18.0771 ,0.87483 ,3.36157 ,32.98374 
100 ,18.2693 ,0.87675 ,3.33419 ,32.71511 
101 ,18.4452 ,0.87850 ,3.31708 ,32.54722 
102 ,18.6214 ,0.88028 ,3.30339 ,32.41290 
103 ,18.8295 ,0.88219 ,3.29655 ,32.34575 
104 ,19.0055 ,0.88405 ,3.26575 ,32.04354 
105 ,19.1816 ,0.88586 ,3.26233 ,32.00996 
106 ,19.3736 ,0.88778 ,3.26233 ,32.00996 
107 ,19.5497 ,0.88952 ,3.22468 ,31.64060 
108 ,19.7417 ,0.89144 ,3.21100 ,31.50629 
109 ,19.9179 ,0.89319 ,3.19046 ,31.30482 
110 ,20.1099 ,0.89506 ,3.17677 ,31.17051 
111 ,20.3018 ,0.89701 ,3.15966 ,31.00262 
112 ,20.4942 ,0.89895 ,3.15624 ,30.96904 
113 ,20.6698 ,0.90074 ,3.13571 ,30.76757 
114 ,20.8462 ,0.90245 ,3.11860 ,30.59968 
115 ,21.0544 ,0.90454 ,3.11518 ,30.56610 
116 ,21.2307 ,0.90637 ,3.09464 ,30.36463 
117 ,21.4066 ,0.90807 ,3.07753 ,30.19674 
118 ,21.5824 ,0.90991 ,3.06042 ,30.02884 
119 ,21.7585 ,0.91157 ,3.03989 ,29.82737 
120 ,21.9349 ,0.91335 ,3.03647 ,29.79380 
121 ,22.1108 ,0.91517 ,3.02278 ,29.65948 
122 ,22.3029 ,0.91701 ,2.99198 ,29.35728 
123 ,22.4789 ,0.91880 ,2.97487 ,29.18939 
124 ,22.6548 ,0.92061 ,2.97487 ,29.18939 
125 ,22.8310 ,0.92241 ,2.95776 ,29.02150 
126 ,23.0232 ,0.92419 ,2.92011 ,28.65213 
127 ,23.1990 ,0.92599 ,2.91669 ,28.61856 
128 ,23.3752 ,0.92776 ,2.91669 ,28.61856 
129 ,23.5513 ,0.92954 ,2.89273 ,28.38351 
130 ,23.7435 ,0.93147 ,2.87220 ,28.18204 
131 ,23.9193 ,0.93319 ,2.83798 ,27.84625 
132 ,24.0956 ,0.93501 ,2.84140 ,27.87983 
133 ,24.2716 ,0.93673 ,2.84140 ,27.87983 
134 ,24.4638 ,0.93862 ,2.81060 ,27.57763 
135 ,24.6397 ,0.94044 ,2.78322 ,27.30900 
136 ,24.8159 ,0.94216 ,2.79007 ,27.37616 
137 ,25.0079 ,0.94409 ,2.77296 ,27.20827 
138 ,25.1839 ,0.94584 ,2.75243 ,27.00680 
139 ,25.3599 ,0.94762 ,2.73531 ,26.83891 
140 ,25.5681 ,0.94967 ,2.71478 ,26.63744 
141 ,25.7443 ,0.95142 ,2.70452 ,26.53670 
142 ,25.9366 ,0.95333 ,2.69425 ,26.43597 
143 ,26.1125 ,0.95515 ,2.68398 ,26.33523 
144 ,26.3045 ,0.95707 ,2.66345 ,26.13376 
145 ,26.4805 ,0.95877 ,2.63607 ,25.86514 
146 ,26.6567 ,0.96063 ,2.61554 ,25.66367 
147 ,26.8488 ,0.96248 ,2.61554 ,25.66367 
148 ,27.0248 ,0.96428 ,2.59843 ,25.49577 
149 ,27.2009 ,0.96601 ,2.57447 ,25.26073 
150 ,27.3769 ,0.96774 ,2.56078 ,25.12641 
151 ,27.5527 ,0.96962 ,2.56763 ,25.19357 
152 ,27.7290 ,0.97123 ,2.54710 ,24.99210 
153 ,27.9211 ,0.97318 ,2.51972 ,24.72347 
154 ,28.0972 ,0.97494 ,2.49576 ,24.48842 
155 ,28.2892 ,0.97681 ,2.50261 ,24.55558 
156 ,28.4650 ,0.97866 ,2.48550 ,24.38769 
157 ,28.6414 ,0.98037 ,2.45812 ,24.11906 
158 ,28.8176 ,0.98217 ,2.44443 ,23.98475 
159 ,28.9935 ,0.98391 ,2.43759 ,23.91759 
160 ,29.1697 ,0.98567 ,2.43074 ,23.85044 
161 ,29.3457 ,0.98745 ,2.41021 ,23.64897 
162 ,29.5379 ,0.98924 ,2.38968 ,23.44750 
163 ,29.7139 ,0.99118 ,2.35888 ,23.14529 
164 ,29.8900 ,0.99289 ,2.37599 ,23.31318 
165 ,30.0660 ,0.99459 ,2.35888 ,23.14529 
166 ,30.2420 ,0.99639 ,2.33150 ,22.87667 
167 ,30.4183 ,0.99812 ,2.30412 ,22.60804 
168 ,30.5944 ,0.99997 ,2.29728 ,22.54088 
169 ,30.7704 ,1.00172 ,2.28359 ,22.40657 
170 ,30.9465 ,1.00341 ,2.27674 ,22.33941 
171 ,31.1226 ,1.00523 ,2.27332 ,22.30584 
172 ,31.3147 ,1.00707 ,2.24252 ,22.00363 
173 ,31.5227 ,1.00920 ,2.22199 ,21.80216 
174 ,31.6988 ,1.01095 ,2.19803 ,21.56711 
175 ,31.8909 ,1.01280 ,2.20146 ,21.60069 
176 ,32.0668 ,1.01468 ,2.18435 ,21.43280 
177 ,32.2430 ,1.01654 ,2.15355 ,21.13059 
178 ,32.4187 ,1.01812 ,2.14328 ,21.02986 
179 ,32.5790 ,1.01987 ,2.13301 ,20.92912 
180 ,32.7710 ,1.02166 ,2.12959 ,20.89555 
181 ,32.9472 ,1.02344 ,2.11932 ,20.79481 
182 ,33.1233 ,1.02519 ,2.09537 ,20.55976 
183 ,33.2991 ,1.02691 ,2.07826 ,20.39187 
184 ,33.4756 ,1.02871 ,2.06799 ,20.29114 
185 ,33.6516 ,1.03046 ,2.05088 ,20.12325 
186 ,33.8437 ,1.03242 ,2.04746 ,20.08967 
187 ,34.0357 ,1.03433 ,2.01324 ,19.75388 
188 ,34.2117 ,1.03607 ,1.99955 ,19.61957 
189 ,34.3879 ,1.03784 ,1.99955 ,19.61957 
190 ,34.5960 ,1.03982 ,1.96533 ,19.28379 
191 ,34.7720 ,1.04166 ,1.96875 ,19.31737 
192 ,34.9481 ,1.04344 ,1.95506 ,19.18305 
193 ,35.1242 ,1.04523 ,1.94137 ,19.04874 
194 ,35.3003 ,1.04695 ,1.91057 ,18.74654 
195 ,35.4761 ,1.04877 ,1.90715 ,18.71296 
196 ,35.6685 ,1.05065 ,1.90373 ,18.67938 
197 ,35.8925 ,1.05276 ,1.87293 ,18.37717 
198 ,36.0846 ,1.05482 ,1.86951 ,18.34360 
199 ,36.2768 ,1.05666 ,1.84555 ,18.10855 
200 ,36.4526 ,1.05851 ,1.81475 ,17.80634 
201 ,36.6287 ,1.06023 ,1.82160 ,17.87350 
202 ,36.8048 ,1.06199 ,1.80106 ,17.67203 
203 ,36.9810 ,1.06380 ,1.80106 ,17.67203 
204 ,37.1730 ,1.06566 ,1.76684 ,17.33625 
205 ,37.3491 ,1.06741 ,1.76684 ,17.33625 
206 ,37.5252 ,1.06920 ,1.76684 ,17.33625 
207 ,37.7013 ,1.07097 ,1.74631 ,17.13478 
208 ,37.8935 ,1.07278 ,1.71893 ,16.86615 
209 ,38.0855 ,1.07479 ,1.69840 ,16.66468 
210 ,38.2616 ,1.07655 ,1.69840 ,16.66468 
211 ,38.4376 ,1.07833 ,1.67102 ,16.39605 
212 ,38.6135 ,1.08006 ,1.65733 ,16.26174 
213 ,38.8057 ,1.08203 ,1.64364 ,16.12743 
214 ,38.9819 ,1.08377 ,1.64364 ,16.12743 
215 ,39.1740 ,1.08570 ,1.61284 ,15.82522 
216 ,39.3499 ,1.08748 ,1.60258 ,15.72449 
217 ,39.5418 ,1.08936 ,1.59916 ,15.69091 
218 ,39.7180 ,1.09111 ,1.57862 ,15.48944 
219 ,39.9102 ,1.09293 ,1.54782 ,15.18724 
220 ,40.0863 ,1.09483 ,1.54782 ,15.18724 
221 ,40.2463 ,1.09652 ,1.54782 ,15.18724 
222 ,40.4226 ,1.09812 ,1.52729 ,14.98577 
223 ,40.6140 ,1.10002 ,1.49991 ,14.71714 
224 ,40.7905 ,1.10187 ,1.48280 ,14.54925 
225 ,40.9827 ,1.10372 ,1.48965 ,14.61640 
226 ,41.1747 ,1.10572 ,1.46569 ,14.38136 
227 ,41.3508 ,1.10741 ,1.44858 ,14.21346 
228 ,41.5270 ,1.10923 ,1.43489 ,14.07915 
229 ,41.6870 ,1.11092 ,1.42462 ,13.97842 
230 ,41.8628 ,1.11252 ,1.42120 ,13.94484 
231 ,42.0388 ,1.11433 ,1.41436 ,13.87768 
232 ,42.2151 ,1.11605 ,1.38356 ,13.57548 
233 ,42.4071 ,1.11787 ,1.37329 ,13.47474 
234 ,42.5834 ,1.11977 ,1.36645 ,13.40759 
235 ,42.7593 ,1.12155 ,1.35960 ,13.34043 
236 ,42.9358 ,1.12329 ,1.32880 ,13.03822 
237 ,43.1116 ,1.12503 ,1.30143 ,12.76960 
238 ,43.2877 ,1.12679 ,1.30827 ,12.83675 
239 ,43.4637 ,1.12859 ,1.29800 ,12.73602 
240 ,43.6394 ,1.13039 ,1.29116 ,12.66886 
241 ,43.7996 ,1.13203 ,1.26720 ,12.43381 
242 ,43.9757 ,1.13367 ,1.25352 ,12.29950 
243 ,44.1679 ,1.13558 ,1.23298 ,12.09803 
244 ,44.3439 ,1.13737 ,1.23298 ,12.09803 
245 ,44.5198 ,1.13912 ,1.22614 ,12.03088 
246 ,44.6958 ,1.14089 ,1.21587 ,11.93014 
247 ,44.8722 ,1.14271 ,1.18850 ,11.66151 
248 ,45.0482 ,1.14441 ,1.17138 ,11.49362 
249 ,45.2244 ,1.14621 ,1.16454 ,11.42647 
250 ,45.4005 ,1.14797 ,1.14401 ,11.22500 
251 ,45.5765 ,1.14966 ,1.14401 ,11.22500 
252 ,45.7526 ,1.15141 ,1.11321 ,10.92279 
253 ,45.9286 ,1.15323 ,1.09610 ,10.75490 
254 ,46.1046 ,1.15497 ,1.10636 ,10.85563 
255 ,46.2805 ,1.15673 ,1.09610 ,10.75490 
256 ,46.4568 ,1.15851 ,1.07556 ,10.55343 
257 ,46.6487 ,1.16033 ,1.04819 ,10.28480 
258 ,46.8410 ,1.16231 ,1.05503 ,10.35196 
259 ,47.0170 ,1.16409 ,1.03450 ,10.15049 
260 ,47.1931 ,1.16590 ,1.00370 ,9.84829 
261 ,47.3692 ,1.16762 ,1.00028 ,9.81471 
262 ,47.5613 ,1.16959 ,0.98317 ,9.64682 
263 ,47.7534 ,1.17138 ,0.99343 ,9.74755 
264 ,47.9452 ,1.17335 ,0.96263 ,9.44535 
265 ,48.1216 ,1.17515 ,0.95237 ,9.34461 
266 ,48.3297 ,1.17717 ,0.92499 ,9.07598 
267 ,48.5055 ,1.17897 ,0.91130 ,8.94167 
268 ,48.6818 ,1.18072 ,0.90446 ,8.87451 
269 ,48.8574 ,1.18244 ,0.89419 ,8.77378 
270 ,49.0336 ,1.18422 ,0.88392 ,8.67305 
271 ,49.2099 ,1.18601 ,0.85997 ,8.43800 
272 ,49.4019 ,1.18792 ,0.85997 ,8.43800 
273 ,49.5782 ,1.18972 ,0.84970 ,8.33726 
274 ,49.7701 ,1.19161 ,0.82575 ,8.10221 
275 ,49.9463 ,1.19337 ,0.79837 ,7.83359 
276 ,50.1065 ,1.19506 ,0.80521 ,7.90074 
277 ,50.2824 ,1.19670 ,0.79837 ,7.83359 
278 ,50.4744 ,1.19853 ,0.78126 ,7.66570 
279 ,50.6663 ,1.20057 ,0.76072 ,7.46423 
280 ,50.8427 ,1.20229 ,0.75388 ,7.39707 
281 ,51.0187 ,1.20415 ,0.74019 ,7.26276 
282 ,51.1948 ,1.20584 ,0.73677 ,7.22918 
283 ,51.3708 ,1.20760 ,0.70597 ,6.92697 
284 ,51.5470 ,1.20938 ,0.70597 ,6.92697 
285 ,51.7228 ,1.21114 ,0.67517 ,6.62477 
286 ,51.9151 ,1.21301 ,0.67175 ,6.59119 
287 ,52.0912 ,1.21479 ,0.65806 ,6.45688 
288 ,52.2833 ,1.21664 ,0.63410 ,6.22183 
289 ,52.4751 ,1.21866 ,0.63410 ,6.22183 
290 ,52.6516 ,1.22040 ,0.62384 ,6.12109 
291 ,52.8432 ,1.22228 ,0.61357 ,6.02036 
292 ,53.0196 ,1.22408 ,0.60673 ,5.95320 
293 ,53.1955 ,1.22589 ,0.59304 ,5.81889 
294 ,53.3878 ,1.22777 ,0.56908 ,5.58384 
295 ,53.5797 ,1.22968 ,0.56224 ,5.51668 
296 ,53.7559 ,1.23145 ,0.55197 ,5.41595 
297 ,53.9318 ,1.23321 ,0.53486 ,5.24806 
298 ,54.1240 ,1.23506 ,0.51433 ,5.04659 
299 ,54.2998 ,1.23691 ,0.50748 ,4.97943 
300 ,54.4760 ,1.23865 ,0.50064 ,4.91228 
301 ,54.6682 ,1.24057 ,0.48353 ,4.74438 
302 ,54.8441 ,1.24229 ,0.45957 ,4.50934 
303 ,55.0206 ,1.24413 ,0.45957 ,4.50934 
304 ,55.1965 ,1.24590 ,0.44931 ,4.40860 
305 ,55.3882 ,1.24777 ,0.42193 ,4.13997 
306 ,55.5647 ,1.24955 ,0.41166 ,4.03924 
307 ,55.7406 ,1.25131 ,0.40140 ,3.93850 
308 ,55.9326 ,1.25312 ,0.38429 ,3.77061 
309 ,56.1089 ,1.25496 ,0.37402 ,3.66988 
310 ,56.3009 ,1.25684 ,0.36375 ,3.56914 
311 ,56.4769 ,1.25872 ,0.36033 ,3.53557 
312 ,56.6531 ,1.26039 ,0.34664 ,3.40125 
313 ,56.8452 ,1.26235 ,0.32269 ,3.16620 
314 ,57.0212 ,1.26407 ,0.30900 ,3.03189 
315 ,57.2134 ,1.26602 ,0.31926 ,3.13263 
316 ,57.3896 ,1.26780 ,0.30215 ,2.96473 
317 ,57.5654 ,1.26952 ,0.27135 ,2.66253 
318 ,57.7415 ,1.27134 ,0.25767 ,2.52822 
319 ,57.9339 ,1.27320 ,0.26793 ,2.62895 
320 ,58.1094 ,1.27495 ,0.25767 ,2.52822 
321 ,58.2857 ,1.27673 ,0.23029 ,2.25959 
322 ,58.4779 ,1.27852 ,0.22687 ,2.22601 
323 ,58.6701 ,1.28058 ,0.20976 ,2.05812 
324 ,58.8620 ,1.28250 ,0.20633 ,2.02454 
325 ,59.0380 ,1.28427 ,0.18922 ,1.85665 
326 ,59.2142 ,1.28603 ,0.19607 ,1.92381 
327 ,59.3902 ,1.28778 ,0.17553 ,1.72234 
328 ,59.5819 ,1.28967 ,0.15158 ,1.48729 
329 ,59.7583 ,1.29144 ,0.13789 ,1.35298 
330 ,59.9505 ,1.29336 ,0.14473 ,1.42013 
331 ,60.1267 ,1.29517 ,0.13447 ,1.31940 
332 ,60.3347 ,1.29711 ,0.10709 ,1.05077 
333 ,60.5266 ,1.29909 ,0.09682 ,0.95004 
334 ,60.7026 ,1.30084 ,0.08314 ,0.81572 
335 ,60.8784 ,1.30262 ,0.07287 ,0.71499 
336 ,61.0385 ,1.30435 ,0.07971 ,0.78214 
337 ,61.2150 ,1.30604 ,0.06602 ,0.64783 
338 ,61.4229 ,1.30808 ,0.04549 ,0.44636 
339 ,61.5992 ,1.30988 ,0.03522 ,0.34563 
340 ,61.7912 ,1.31176 ,0.03522 ,0.34563 
341 ,61.9673 ,1.31355 ,0.02154 ,0.21131 
342 ,62.1435 ,1.31530 ,0.00100 ,0.00984 
343 ,62.3354 ,1.31721 ,-0.00242 ,-0.02373 
344 ,62.5114 ,1.31894 ,-0.01611 ,-0.15805 
345 ,62.6875 ,1.32074 ,-0.02295 ,-0.22520 
346 ,62.8634 ,1.32244 ,-0.04691 ,-0.46025 
347 ,63.0558 ,1.32442 ,-0.04691 ,-0.46025 
348 ,63.2476 ,1.32633 ,-0.05033 ,-0.49383 
349 ,63.4238 ,1.32814 ,-0.07086 ,-0.69530 
350 ,63.5999 ,1.32983 ,-0.09140 ,-0.89677 
351 ,63.7757 ,1.33159 ,-0.09140 ,-0.89677 
352 ,63.9522 ,1.33339 ,-0.10851 ,-1.06466 
353 ,64.1441 ,1.33530 ,-0.11535 ,-1.13182 
354 ,64.3202 ,1.33709 ,-0.13931 ,-1.36687 
355 ,64.4964 ,1.33881 ,-0.13931 ,-1.36687 
356 ,64.6725 ,1.34059 ,-0.14615 ,-1.43402 
357 ,64.8481 ,1.34237 ,-0.14273 ,-1.40045 
358 ,65.0248 ,1.34413 ,-0.16326 ,-1.60191 
359 ,65.2167 ,1.34604 ,-0.18037 ,-1.76981 
360 ,65.3927 ,1.34780 ,-0.18722 ,-1.83696 
361 ,65.5685 ,1.34951 ,-0.20090 ,-1.97128 
362 ,65.7448 ,1.35131 ,-0.20433 ,-2.00485 
363 ,65.9206 ,1.35301 ,-0.21802 ,-2.13917 
364 ,66.0970 ,1.35483 ,-0.23855 ,-2.34064 
365 ,66.2729 ,1.35656 ,-0.24197 ,-2.37422 
366 ,66.4492 ,1.35833 ,-0.23855 ,-2.34064 
367 ,66.6248 ,1.36013 ,-0.25566 ,-2.50853 
368 ,66.8013 ,1.36182 ,-0.27961 ,-2.74358 
369 ,66.9770 ,1.36362 ,-0.29330 ,-2.87789 
370 ,67.1534 ,1.36538 ,-0.30699 ,-3.01220 
371 ,67.3455 ,1.36723 ,-0.29330 ,-2.87789 
372 ,67.5212 ,1.36901 ,-0.31726 ,-3.11294 
373 ,67.6976 ,1.37080 ,-0.33095 ,-3.24725 
374 ,67.8737 ,1.37261 ,-0.32410 ,-3.18010 
375 ,68.0495 ,1.37434 ,-0.34806 ,-3.41514 
376 ,68.2260 ,1.37605 ,-0.32752 ,-3.21367 
377 ,68.4181 ,1.37797 ,-0.35148 ,-3.44872 
378 ,68.6101 ,1.37996 ,-0.36859 ,-3.61661 
379 ,68.7861 ,1.38170 ,-0.37201 ,-3.65019 
380 ,68.9783 ,1.38350 ,-0.38570 ,-3.78450 
381 ,69.1543 ,1.38535 ,-0.40623 ,-3.98597 
382 ,69.3304 ,1.38713 ,-0.40623 ,-3.98597 
383 ,69.5062 ,1.38888 ,-0.40966 ,-4.01955 
384 ,69.6984 ,1.39073 ,-0.43019 ,-4.22102 
385 ,69.8906 ,1.39275 ,-0.44388 ,-4.35534 
386 ,70.0667 ,1.39449 ,-0.44046 ,-4.32176 
387 ,70.2428 ,1.39629 ,-0.45757 ,-4.48965 
388 ,70.4507 ,1.39826 ,-0.47810 ,-4.69112 
389 ,70.6429 ,1.40017 ,-0.47126 ,-4.62396 
390 ,70.8189 ,1.40201 ,-0.50206 ,-4.92617 
391 ,70.9949 ,1.40376 ,-0.51574 ,-5.06048 
392 ,71.2026 ,1.40574 ,-0.49521 ,-4.85901 
393 ,71.3790 ,1.40763 ,-0.51917 ,-5.09406 
394 ,71.5711 ,1.40963 ,-0.52943 ,-5.19479 
395 ,71.7470 ,1.41131 ,-0.53285 ,-5.22837 
396 ,71.9396 ,1.41319 ,-0.54312 ,-5.32911 
397 ,72.1314 ,1.41508 ,-0.56708 ,-5.56415 
398 ,72.3074 ,1.41696 ,-0.56708 ,-5.56415 
399 ,72.4835 ,1.41867 ,-0.58419 ,-5.73205 
400 ,72.6598 ,1.42040 ,-0.58077 ,-5.69847 
401 ,72.8357 ,1.42221 ,-0.60130 ,-5.89994 
402 ,73.0280 ,1.42413 ,-0.59788 ,-5.86636 
403 ,73.2199 ,1.42601 ,-0.61156 ,-6.00067 
404 ,73.4119 ,1.42789 ,-0.63894 ,-6.26930 
405 ,73.5879 ,1.42969 ,-0.62868 ,-6.16856 
406 ,73.7637 ,1.43147 ,-0.64236 ,-6.30288 
407 ,73.9401 ,1.43321 ,-0.64579 ,-6.33646 
408 ,74.1157 ,1.43501 ,-0.64579 ,-6.33646 
409 ,74.2918 ,1.43671 ,-0.67316 ,-6.60508 
410 ,74.4679 ,1.43849 ,-0.69370 ,-6.80655 
411 ,74.6445 ,1.44027 ,-0.66974 ,-6.57150 
412 ,74.8524 ,1.44230 ,-0.69712 ,-6.84013 
413 ,75.0287 ,1.44406 ,-0.69370 ,-6.80655 
414 ,75.2046 ,1.44585 ,-0.71081 ,-6.97444 
415 ,75.3804 ,1.44766 ,-0.71423 ,-7.00802 
416 ,75.5725 ,1.44944 ,-0.71765 ,-7.04160 
417 ,75.7489 ,1.45132 ,-0.74161 ,-7.27665 
418 ,75.9409 ,1.45320 ,-0.73134 ,-7.17591 
419 ,76.1169 ,1.45501 ,-0.74161 ,-7.27665 
420 ,76.3090 ,1.45684 ,-0.75530 ,-7.41096 
421 ,76.5010 ,1.45878 ,-0.76214 ,-7.47812 
422 ,76.6773 ,1.46056 ,-0.77925 ,-7.64601 
423 ,76.8533 ,1.46238 ,-0.77583 ,-7.61243 
424 ,77.0454 ,1.46426 ,-0.79636 ,-7.81390 
425 ,77.2213 ,1.46600 ,-0.77925 ,-7.64601 
426 ,77.4295 ,1.46804 ,-0.81689 ,-8.01537 
427 ,77.5894 ,1.46980 ,-0.82032 ,-8.04895 
428 ,77.7977 ,1.47168 ,-0.82716 ,-8.11611 
429 ,77.9898 ,1.47369 ,-0.84427 ,-8.28400 
430 ,78.1658 ,1.47550 ,-0.85796 ,-8.41831 
431 ,78.3578 ,1.47738 ,-0.84769 ,-8.31758 
432 ,78.5340 ,1.47914 ,-0.85454 ,-8.38473 
433 ,78.7260 ,1.48096 ,-0.87849 ,-8.61978 
434 ,78.9180 ,1.48300 ,-0.86481 ,-8.48547 
435 ,79.1103 ,1.48477 ,-0.89218 ,-8.75409 
436 ,79.2863 ,1.48665 ,-0.90929 ,-8.92198 
437 ,79.4621 ,1.48841 ,-0.90929 ,-8.92198 
438 ,79.6543 ,1.49029 ,-0.91614 ,-8.98914 
439 ,79.8304 ,1.49207 ,-0.93667 ,-9.19061 
440 ,80.0225 ,1.49404 ,-0.94009 ,-9.22419 
441 ,80.2147 ,1.49583 ,-0.94694 ,-9.29135 
442 ,80.3907 ,1.49768 ,-0.96063 ,-9.42566 
443 ,80.5668 ,1.49948 ,-0.97431 ,-9.55997 
444 ,80.7429 ,1.50120 ,-0.96747 ,-9.49282 
445 ,80.9190 ,1.50294 ,-0.96063 ,-9.42566 
446 ,81.0951 ,1.50474 ,-0.98458 ,-9.66071 
447 ,81.2711 ,1.50650 ,-0.98458 ,-9.66071 
448 ,81.4631 ,1.50840 ,-1.00511 ,-9.86218 
449 ,81.6394 ,1.51013 ,-1.00854 ,-9.89576 
450 ,81.8152 ,1.51191 ,-1.01196 ,-9.92933 
451 ,82.0074 ,1.51379 ,-1.01880 ,-9.99649 
452 ,82.1993 ,1.51579 ,-1.03934 ,-10.19796 
453 ,82.3916 ,1.51759 ,-1.04618 ,-10.26512 
454 ,82.5676 ,1.51944 ,-1.07014 ,-10.50016 
455 ,82.7595 ,1.52143 ,-1.05987 ,-10.39943 
456 ,82.9358 ,1.52315 ,-1.06671 ,-10.46659 
457 ,83.1438 ,1.52514 ,-1.09409 ,-10.73521 
458 ,83.3199 ,1.52699 ,-1.09751 ,-10.76879 
459 ,83.4960 ,1.52874 ,-1.09067 ,-10.70163 
460 ,83.6721 ,1.53048 ,-1.10093 ,-10.80237 
461 ,83.8638 ,1.53239 ,-1.13516 ,-11.13815 
462 ,84.0400 ,1.53414 ,-1.13173 ,-11.10457 
