Data stamp = , 01-04-2022 04:10:42 691

Calibration Values: 
Slope = , 26.54 , g/V 
Offset Voltage at no contact = , -0.501760 , V 

No , Time , Stage Position ,   Mass , Force 
   ,  (s) ,      (mm)      ,   (g)  , (mN)  

1 ,0.0000 ,0.64955 ,5.25745 ,51.58611 
2 ,0.2299 ,0.64963 ,5.24034 ,51.41822 
3 ,0.6462 ,0.65086 ,5.24718 ,51.48538 
4 ,0.8382 ,0.65285 ,5.26087 ,51.61969 
5 ,1.0303 ,0.65460 ,5.25403 ,51.55254 
6 ,1.2225 ,0.65647 ,5.24034 ,51.41822 
7 ,1.4145 ,0.65842 ,5.25061 ,51.51896 
8 ,1.6067 ,0.66039 ,5.24034 ,51.41822 
9 ,1.7985 ,0.66226 ,5.24034 ,51.41822 
10 ,1.9748 ,0.66403 ,5.23007 ,51.31749 
11 ,2.1507 ,0.66578 ,5.21639 ,51.18317 
12 ,2.3270 ,0.66756 ,5.18901 ,50.91455 
13 ,2.5031 ,0.66931 ,5.18559 ,50.88097 
14 ,2.7111 ,0.67135 ,5.18559 ,50.88097 
15 ,2.9032 ,0.67330 ,5.14452 ,50.47803 
16 ,3.0794 ,0.67508 ,5.14452 ,50.47803 
17 ,3.2876 ,0.67705 ,5.12741 ,50.31014 
18 ,3.4635 ,0.67894 ,5.10345 ,50.07509 
19 ,3.6394 ,0.68071 ,5.08977 ,49.94078 
20 ,3.8316 ,0.68259 ,5.08977 ,49.94078 
21 ,4.0076 ,0.68435 ,5.06239 ,49.67215 
22 ,4.1996 ,0.68619 ,5.05212 ,49.57142 
23 ,4.3757 ,0.68810 ,5.03843 ,49.43710 
24 ,4.5519 ,0.68977 ,5.01106 ,49.16848 
25 ,4.7279 ,0.69157 ,4.99394 ,49.00058 
26 ,4.9041 ,0.69334 ,4.97683 ,48.83269 
27 ,5.0960 ,0.69514 ,4.97683 ,48.83269 
28 ,5.2882 ,0.69713 ,4.93577 ,48.42975 
29 ,5.4483 ,0.69887 ,4.92892 ,48.36260 
30 ,5.6084 ,0.70046 ,4.91181 ,48.19471 
31 ,5.7847 ,0.70215 ,4.90155 ,48.09397 
32 ,5.9766 ,0.70404 ,4.88786 ,47.95966 
33 ,6.1525 ,0.70582 ,4.86390 ,47.72461 
34 ,6.3286 ,0.70763 ,4.84679 ,47.55672 
35 ,6.5207 ,0.70947 ,4.82284 ,47.32167 
36 ,6.6969 ,0.71124 ,4.81599 ,47.25451 
37 ,6.8890 ,0.71318 ,4.77835 ,46.88515 
38 ,7.1130 ,0.71528 ,4.78519 ,46.95231 
39 ,7.2889 ,0.71712 ,4.74413 ,46.54937 
40 ,7.4652 ,0.71894 ,4.72702 ,46.38148 
41 ,7.6413 ,0.72070 ,4.72017 ,46.31432 
42 ,7.8171 ,0.72248 ,4.70306 ,46.14643 
43 ,7.9775 ,0.72417 ,4.68937 ,46.01212 
44 ,8.1535 ,0.72580 ,4.67226 ,45.84422 
45 ,8.3295 ,0.72755 ,4.64831 ,45.60918 
46 ,8.5056 ,0.72930 ,4.62093 ,45.34055 
47 ,8.6817 ,0.73107 ,4.60040 ,45.13908 
48 ,8.8738 ,0.73303 ,4.60382 ,45.17266 
49 ,9.0659 ,0.73486 ,4.57986 ,44.93761 
50 ,9.2580 ,0.73688 ,4.56617 ,44.80330 
51 ,9.4660 ,0.73878 ,4.52511 ,44.40036 
52 ,9.6901 ,0.74104 ,4.51826 ,44.33320 
53 ,9.8662 ,0.74293 ,4.49089 ,44.06457 
54 ,10.0422 ,0.74472 ,4.47720 ,43.93026 
55 ,10.2183 ,0.74650 ,4.46009 ,43.76237 
56 ,10.3942 ,0.74821 ,4.45324 ,43.69521 
57 ,10.5865 ,0.75012 ,4.41902 ,43.35943 
58 ,10.7626 ,0.75192 ,4.40533 ,43.22512 
59 ,10.9386 ,0.75373 ,4.40533 ,43.22512 
60 ,11.1306 ,0.75554 ,4.37453 ,42.92291 
61 ,11.3227 ,0.75740 ,4.35742 ,42.75502 
62 ,11.5144 ,0.75942 ,4.35400 ,42.72144 
63 ,11.6909 ,0.76118 ,4.33689 ,42.55355 
64 ,11.8667 ,0.76294 ,4.30951 ,42.28492 
65 ,12.0430 ,0.76468 ,4.29582 ,42.15061 
66 ,12.2190 ,0.76646 ,4.28213 ,42.01630 
67 ,12.3951 ,0.76820 ,4.27187 ,41.91556 
68 ,12.5709 ,0.76995 ,4.25476 ,41.74767 
69 ,12.7634 ,0.77183 ,4.22396 ,41.44547 
70 ,12.9395 ,0.77367 ,4.21027 ,41.31115 
71 ,13.1314 ,0.77552 ,4.20685 ,41.27758 
72 ,13.3076 ,0.77733 ,4.17262 ,40.94179 
73 ,13.4838 ,0.77914 ,4.17605 ,40.97537 
74 ,13.6593 ,0.78084 ,4.14525 ,40.67317 
75 ,13.8357 ,0.78262 ,4.13498 ,40.57243 
76 ,14.0114 ,0.78433 ,4.12129 ,40.43812 
77 ,14.1879 ,0.78612 ,4.10418 ,40.27023 
78 ,14.3639 ,0.78785 ,4.08023 ,40.03518 
79 ,14.5399 ,0.78963 ,4.06654 ,39.90087 
80 ,14.7317 ,0.79153 ,4.06312 ,39.86729 
81 ,14.8921 ,0.79330 ,4.03916 ,39.63224 
82 ,15.0683 ,0.79494 ,4.02889 ,39.53150 
83 ,15.2442 ,0.79671 ,4.01178 ,39.36361 
84 ,15.4205 ,0.79848 ,3.98783 ,39.12856 
85 ,15.5965 ,0.80027 ,3.96729 ,38.92709 
86 ,15.7724 ,0.80201 ,3.97072 ,38.96067 
87 ,15.9485 ,0.80373 ,3.94676 ,38.72562 
88 ,16.1246 ,0.80561 ,3.91938 ,38.45700 
89 ,16.3006 ,0.80724 ,3.90570 ,38.32268 
90 ,16.4769 ,0.80905 ,3.90570 ,38.32268 
91 ,16.6529 ,0.81079 ,3.88174 ,38.08764 
92 ,16.8288 ,0.81254 ,3.87832 ,38.05406 
93 ,17.0210 ,0.81437 ,3.85094 ,37.78543 
94 ,17.2128 ,0.81639 ,3.84752 ,37.75185 
95 ,17.3889 ,0.81813 ,3.82699 ,37.55038 
96 ,17.5488 ,0.81985 ,3.80303 ,37.31534 
97 ,17.7254 ,0.82149 ,3.78934 ,37.18102 
98 ,17.9170 ,0.82343 ,3.76881 ,36.97955 
99 ,18.0935 ,0.82522 ,3.75854 ,36.87882 
100 ,18.2857 ,0.82713 ,3.74143 ,36.71093 
101 ,18.4777 ,0.82894 ,3.70721 ,36.37514 
102 ,18.6537 ,0.83084 ,3.72090 ,36.50946 
103 ,18.8298 ,0.83254 ,3.69694 ,36.27441 
104 ,18.9893 ,0.83423 ,3.67983 ,36.10652 
105 ,19.1658 ,0.83588 ,3.65588 ,35.87147 
106 ,19.3579 ,0.83769 ,3.63877 ,35.70358 
107 ,19.5341 ,0.83960 ,3.63192 ,35.63642 
108 ,19.7102 ,0.84135 ,3.60797 ,35.40137 
109 ,19.9023 ,0.84325 ,3.58743 ,35.19990 
110 ,20.0622 ,0.84499 ,3.56690 ,34.99843 
111 ,20.2383 ,0.84659 ,3.57032 ,35.03201 
112 ,20.4144 ,0.84833 ,3.56348 ,34.96485 
113 ,20.6225 ,0.85044 ,3.52926 ,34.62907 
114 ,20.7985 ,0.85223 ,3.50872 ,34.42760 
115 ,20.9749 ,0.85403 ,3.50530 ,34.39402 
116 ,21.1507 ,0.85573 ,3.50188 ,34.36045 
117 ,21.3267 ,0.85752 ,3.48819 ,34.22613 
118 ,21.5028 ,0.85926 ,3.45397 ,33.89035 
119 ,21.6790 ,0.86102 ,3.42659 ,33.62172 
120 ,21.8870 ,0.86305 ,3.41290 ,33.48741 
121 ,22.0631 ,0.86481 ,3.40606 ,33.42025 
122 ,22.2711 ,0.86685 ,3.40264 ,33.38667 
123 ,22.4792 ,0.86897 ,3.36499 ,33.01731 
124 ,22.6553 ,0.87076 ,3.35473 ,32.91658 
125 ,22.8474 ,0.87260 ,3.35473 ,32.91658 
126 ,23.0231 ,0.87448 ,3.31366 ,32.51364 
127 ,23.1991 ,0.87620 ,3.29997 ,32.37933 
128 ,23.3757 ,0.87794 ,3.29313 ,32.31217 
129 ,23.5513 ,0.87974 ,3.28286 ,32.21143 
130 ,23.7277 ,0.88150 ,3.26575 ,32.04354 
131 ,23.9038 ,0.88324 ,3.25206 ,31.90923 
132 ,24.0959 ,0.88513 ,3.24180 ,31.80849 
133 ,24.2719 ,0.88694 ,3.21442 ,31.53987 
134 ,24.4481 ,0.88873 ,3.21100 ,31.50629 
135 ,24.6240 ,0.89045 ,3.20415 ,31.43913 
136 ,24.8000 ,0.89220 ,3.16309 ,31.03619 
137 ,24.9762 ,0.89399 ,3.15624 ,30.96904 
138 ,25.1521 ,0.89570 ,3.15624 ,30.96904 
139 ,25.3284 ,0.89750 ,3.15624 ,30.96904 
140 ,25.5204 ,0.89944 ,3.11175 ,30.53252 
141 ,25.6966 ,0.90115 ,3.10149 ,30.43178 
142 ,25.8726 ,0.90294 ,3.08780 ,30.29747 
143 ,26.0484 ,0.90472 ,3.08780 ,30.29747 
144 ,26.2245 ,0.90645 ,3.05700 ,29.99527 
145 ,26.4008 ,0.90825 ,3.03304 ,29.76022 
146 ,26.5929 ,0.91014 ,3.02620 ,29.69306 
147 ,26.7849 ,0.91204 ,2.99882 ,29.42444 
148 ,26.9774 ,0.91398 ,2.98855 ,29.32370 
149 ,27.1532 ,0.91580 ,2.98171 ,29.25654 
150 ,27.3292 ,0.91749 ,2.97144 ,29.15581 
151 ,27.5373 ,0.91948 ,2.94749 ,28.92076 
152 ,27.7293 ,0.92145 ,2.93038 ,28.75287 
153 ,27.9053 ,0.92327 ,2.92353 ,28.68571 
154 ,28.0811 ,0.92502 ,2.89958 ,28.45066 
155 ,28.2575 ,0.92676 ,2.87220 ,28.18204 
156 ,28.4333 ,0.92851 ,2.87220 ,28.18204 
157 ,28.6097 ,0.93030 ,2.85167 ,27.98057 
158 ,28.8178 ,0.93233 ,2.82429 ,27.71194 
159 ,28.9936 ,0.93418 ,2.82087 ,27.67836 
160 ,29.1699 ,0.93588 ,2.81060 ,27.57763 
161 ,29.3459 ,0.93763 ,2.79691 ,27.44332 
162 ,29.5219 ,0.93939 ,2.76269 ,27.10753 
163 ,29.6982 ,0.94119 ,2.75585 ,27.04038 
164 ,29.8741 ,0.94298 ,2.74216 ,26.90606 
165 ,30.0503 ,0.94470 ,2.73874 ,26.87248 
166 ,30.2262 ,0.94649 ,2.72505 ,26.73817 
167 ,30.4026 ,0.94821 ,2.69425 ,26.43597 
168 ,30.5785 ,0.95009 ,2.69425 ,26.43597 
169 ,30.7546 ,0.95171 ,2.67029 ,26.20092 
170 ,30.9467 ,0.95358 ,2.65318 ,26.03303 
171 ,31.1546 ,0.95568 ,2.63949 ,25.89871 
172 ,31.3308 ,0.95750 ,2.62238 ,25.73082 
173 ,31.5228 ,0.95944 ,2.60869 ,25.59651 
174 ,31.6988 ,0.96116 ,2.58474 ,25.36146 
175 ,31.8750 ,0.96296 ,2.57105 ,25.22715 
176 ,32.0512 ,0.96467 ,2.56421 ,25.15999 
177 ,32.2272 ,0.96648 ,2.56421 ,25.15999 
178 ,32.4031 ,0.96821 ,2.54367 ,24.95852 
179 ,32.5795 ,0.97000 ,2.51972 ,24.72347 
180 ,32.7871 ,0.97191 ,2.51287 ,24.65632 
181 ,32.9635 ,0.97379 ,2.48892 ,24.42127 
182 ,33.1396 ,0.97557 ,2.48550 ,24.38769 
183 ,33.3155 ,0.97735 ,2.45470 ,24.08549 
184 ,33.4919 ,0.97904 ,2.45812 ,24.11906 
185 ,33.6678 ,0.98086 ,2.45127 ,24.05191 
186 ,33.8599 ,0.98266 ,2.42048 ,23.74970 
187 ,34.0359 ,0.98459 ,2.39652 ,23.51465 
188 ,34.2280 ,0.98646 ,2.39994 ,23.54823 
189 ,34.4041 ,0.98819 ,2.39310 ,23.48108 
190 ,34.5962 ,0.99004 ,2.37256 ,23.27961 
191 ,34.7719 ,0.99191 ,2.34519 ,23.01098 
192 ,34.9804 ,0.99383 ,2.35203 ,23.07814 
193 ,35.1723 ,0.99590 ,2.32123 ,22.77593 
194 ,35.3485 ,0.99767 ,2.30754 ,22.64162 
195 ,35.5245 ,0.99946 ,2.30070 ,22.57446 
196 ,35.7004 ,1.00115 ,2.25963 ,22.17152 
197 ,35.8767 ,1.00293 ,2.25963 ,22.17152 
198 ,36.0367 ,1.00464 ,2.24937 ,22.07079 
199 ,36.2127 ,1.00628 ,2.23226 ,21.90290 
200 ,36.3890 ,1.00805 ,2.23226 ,21.90290 
201 ,36.5971 ,1.01004 ,2.20488 ,21.63427 
202 ,36.7729 ,1.01189 ,2.18435 ,21.43280 
203 ,36.9652 ,1.01386 ,2.18777 ,21.46638 
204 ,37.1571 ,1.01573 ,2.15355 ,21.13059 
205 ,37.3495 ,1.01762 ,2.16039 ,21.19775 
206 ,37.5412 ,1.01947 ,2.15012 ,21.09702 
207 ,37.7176 ,1.02138 ,2.09879 ,20.59334 
208 ,37.8935 ,1.02315 ,2.09879 ,20.59334 
209 ,38.0858 ,1.02494 ,2.09195 ,20.52619 
210 ,38.2777 ,1.02696 ,2.06115 ,20.22398 
211 ,38.4538 ,1.02868 ,2.03719 ,19.98893 
212 ,38.6299 ,1.03048 ,2.04061 ,20.02251 
213 ,38.8219 ,1.03236 ,2.03377 ,19.95535 
214 ,39.0137 ,1.03421 ,2.02008 ,19.82104 
215 ,39.1902 ,1.03607 ,1.99270 ,19.55241 
216 ,39.3981 ,1.03806 ,1.97902 ,19.41810 
217 ,39.5743 ,1.03989 ,1.95164 ,19.14948 
218 ,39.7825 ,1.04192 ,1.95506 ,19.18305 
219 ,39.9584 ,1.04377 ,1.94479 ,19.08232 
220 ,40.1344 ,1.04545 ,1.92084 ,18.84727 
221 ,40.3106 ,1.04727 ,1.91057 ,18.74654 
222 ,40.5026 ,1.04919 ,1.90031 ,18.64580 
223 ,40.6785 ,1.05093 ,1.87293 ,18.37717 
224 ,40.8547 ,1.05269 ,1.86951 ,18.34360 
225 ,41.0308 ,1.05444 ,1.84897 ,18.14213 
226 ,41.2228 ,1.05639 ,1.85240 ,18.17570 
227 ,41.4147 ,1.05827 ,1.82502 ,17.90708 
228 ,41.5910 ,1.06002 ,1.81817 ,17.83992 
229 ,41.7670 ,1.06183 ,1.79764 ,17.63845 
230 ,41.9431 ,1.06358 ,1.79080 ,17.57129 
231 ,42.1192 ,1.06531 ,1.77369 ,17.40340 
232 ,42.3112 ,1.06721 ,1.76342 ,17.30267 
233 ,42.5034 ,1.06919 ,1.74631 ,17.13478 
234 ,42.6954 ,1.07110 ,1.72578 ,16.93331 
235 ,42.8712 ,1.07285 ,1.70866 ,16.76542 
236 ,43.0476 ,1.07463 ,1.70866 ,16.76542 
237 ,43.2235 ,1.07639 ,1.69498 ,16.63110 
238 ,43.3998 ,1.07810 ,1.68471 ,16.53037 
239 ,43.5758 ,1.07993 ,1.65733 ,16.26174 
240 ,43.7678 ,1.08181 ,1.65733 ,16.26174 
241 ,43.9437 ,1.08355 ,1.64022 ,16.09385 
242 ,44.1198 ,1.08534 ,1.61969 ,15.89238 
243 ,44.2957 ,1.08710 ,1.59573 ,15.65733 
244 ,44.4721 ,1.08891 ,1.58889 ,15.59018 
245 ,44.6483 ,1.09065 ,1.57520 ,15.45586 
246 ,44.8243 ,1.09242 ,1.57520 ,15.45586 
247 ,45.0164 ,1.09426 ,1.54440 ,15.15366 
248 ,45.1920 ,1.09605 ,1.53071 ,15.01934 
249 ,45.3843 ,1.09790 ,1.52729 ,14.98577 
250 ,45.5606 ,1.09974 ,1.52387 ,14.95219 
251 ,45.7367 ,1.10153 ,1.48280 ,14.54925 
252 ,45.9448 ,1.10352 ,1.48965 ,14.61640 
253 ,46.1365 ,1.10553 ,1.45542 ,14.28062 
254 ,46.3129 ,1.10725 ,1.44858 ,14.21346 
255 ,46.5046 ,1.10913 ,1.44174 ,14.14631 
256 ,46.6810 ,1.11095 ,1.43147 ,14.04557 
257 ,46.8570 ,1.11270 ,1.41436 ,13.87768 
258 ,47.0330 ,1.11445 ,1.39040 ,13.64263 
259 ,47.1927 ,1.11614 ,1.39383 ,13.67621 
260 ,47.3693 ,1.11781 ,1.36987 ,13.44116 
261 ,47.5453 ,1.11967 ,1.36645 ,13.40759 
262 ,47.7374 ,1.12146 ,1.33223 ,13.07180 
263 ,47.9294 ,1.12345 ,1.31854 ,12.93749 
264 ,48.1056 ,1.12516 ,1.31854 ,12.93749 
265 ,48.2976 ,1.12714 ,1.30485 ,12.80318 
266 ,48.4894 ,1.12901 ,1.28432 ,12.60171 
267 ,48.6658 ,1.13080 ,1.27747 ,12.53455 
268 ,48.8579 ,1.13275 ,1.27063 ,12.46739 
269 ,49.0339 ,1.13449 ,1.23641 ,12.13161 
270 ,49.2101 ,1.13618 ,1.22614 ,12.03088 
271 ,49.3862 ,1.13800 ,1.22614 ,12.03088 
272 ,49.5619 ,1.13975 ,1.22272 ,11.99730 
273 ,49.7383 ,1.14154 ,1.19534 ,11.72867 
274 ,49.9142 ,1.14329 ,1.18850 ,11.66151 
275 ,50.0903 ,1.14500 ,1.17138 ,11.49362 
276 ,50.2823 ,1.14685 ,1.16112 ,11.39289 
277 ,50.4904 ,1.14902 ,1.14058 ,11.19142 
278 ,50.6663 ,1.15075 ,1.13374 ,11.12426 
279 ,50.8427 ,1.15250 ,1.12347 ,11.02353 
280 ,51.0187 ,1.15431 ,1.09610 ,10.75490 
281 ,51.1947 ,1.15603 ,1.08241 ,10.62059 
282 ,51.3709 ,1.15784 ,1.06187 ,10.41912 
283 ,51.5470 ,1.15962 ,1.06187 ,10.41912 
284 ,51.7550 ,1.16163 ,1.03792 ,10.18407 
285 ,51.9472 ,1.16354 ,1.04476 ,10.25123 
286 ,52.1392 ,1.16551 ,1.01396 ,9.94902 
287 ,52.3152 ,1.16727 ,1.00028 ,9.81471 
288 ,52.5074 ,1.16922 ,0.98659 ,9.68039 
289 ,52.6834 ,1.17096 ,0.97632 ,9.57966 
290 ,52.8595 ,1.17271 ,0.96948 ,9.51250 
291 ,53.0516 ,1.17464 ,0.94210 ,9.24388 
292 ,53.2277 ,1.17638 ,0.92157 ,9.04241 
293 ,53.4037 ,1.17813 ,0.93183 ,9.14314 
294 ,53.5800 ,1.17994 ,0.91814 ,9.00883 
295 ,53.7717 ,1.18180 ,0.87708 ,8.60589 
296 ,53.9481 ,1.18358 ,0.87366 ,8.57231 
297 ,54.1561 ,1.18558 ,0.84970 ,8.33726 
298 ,54.3321 ,1.18741 ,0.84286 ,8.27011 
299 ,54.5080 ,1.18919 ,0.83259 ,8.16937 
300 ,54.6843 ,1.19097 ,0.82232 ,8.06864 
301 ,54.8598 ,1.19267 ,0.83259 ,8.16937 
302 ,55.0360 ,1.19447 ,0.80179 ,7.86717 
303 ,55.1961 ,1.19620 ,0.77784 ,7.63212 
304 ,55.3725 ,1.19780 ,0.76072 ,7.46423 
305 ,55.5809 ,1.19992 ,0.76415 ,7.49780 
306 ,55.7726 ,1.20178 ,0.73335 ,7.19560 
307 ,55.9488 ,1.20359 ,0.71966 ,7.06129 
308 ,56.1249 ,1.20531 ,0.70939 ,6.96055 
309 ,56.3010 ,1.20710 ,0.70597 ,6.92697 
310 ,56.4770 ,1.20891 ,0.69913 ,6.85982 
311 ,56.6527 ,1.21057 ,0.67175 ,6.59119 
312 ,56.8290 ,1.21238 ,0.66148 ,6.49046 
313 ,57.0212 ,1.21432 ,0.65464 ,6.42330 
314 ,57.1972 ,1.21605 ,0.64779 ,6.35614 
315 ,57.3734 ,1.21777 ,0.63068 ,6.18825 
316 ,57.5494 ,1.21962 ,0.62384 ,6.12109 
317 ,57.7254 ,1.22130 ,0.61015 ,5.98678 
318 ,57.9016 ,1.22309 ,0.60330 ,5.91962 
319 ,58.0776 ,1.22489 ,0.58619 ,5.75173 
320 ,58.2537 ,1.22662 ,0.56908 ,5.58384 
321 ,58.4139 ,1.22833 ,0.55882 ,5.48311 
322 ,58.6218 ,1.23026 ,0.54855 ,5.38237 
323 ,58.7980 ,1.23200 ,0.54171 ,5.31522 
324 ,58.9903 ,1.23404 ,0.52117 ,5.11375 
325 ,59.1659 ,1.23572 ,0.50748 ,4.97943 
326 ,59.3580 ,1.23764 ,0.50064 ,4.91228 
327 ,59.5499 ,1.23958 ,0.47326 ,4.64365 
328 ,59.7263 ,1.24139 ,0.44931 ,4.40860 
329 ,59.9022 ,1.24305 ,0.44931 ,4.40860 
330 ,60.0782 ,1.24485 ,0.44588 ,4.37502 
331 ,60.2706 ,1.24668 ,0.43220 ,4.24071 
332 ,60.4787 ,1.24882 ,0.42877 ,4.20713 
333 ,60.6548 ,1.25067 ,0.41509 ,4.07282 
334 ,60.8308 ,1.25239 ,0.38771 ,3.80419 
335 ,61.0069 ,1.25415 ,0.37744 ,3.70346 
336 ,61.1824 ,1.25589 ,0.35349 ,3.46841 
337 ,61.3591 ,1.25765 ,0.36718 ,3.60272 
338 ,61.5510 ,1.25961 ,0.33638 ,3.30052 
339 ,61.7272 ,1.26131 ,0.31926 ,3.13263 
340 ,61.9033 ,1.26315 ,0.31242 ,3.06547 
341 ,62.0953 ,1.26503 ,0.31584 ,3.09905 
342 ,62.2713 ,1.26678 ,0.30215 ,2.96473 
343 ,62.4474 ,1.26851 ,0.26451 ,2.59537 
344 ,62.6234 ,1.27032 ,0.26793 ,2.62895 
345 ,62.8154 ,1.27227 ,0.26451 ,2.59537 
346 ,63.0076 ,1.27412 ,0.23713 ,2.32675 
347 ,63.1995 ,1.27600 ,0.24055 ,2.36032 
348 ,63.3916 ,1.27788 ,0.23371 ,2.29317 
349 ,63.5840 ,1.27989 ,0.20633 ,2.02454 
350 ,63.7599 ,1.28167 ,0.19949 ,1.95738 
351 ,63.9359 ,1.28342 ,0.19264 ,1.89023 
352 ,64.1122 ,1.28521 ,0.17553 ,1.72234 
353 ,64.3039 ,1.28705 ,0.16527 ,1.62160 
354 ,64.4806 ,1.28892 ,0.13789 ,1.35298 
355 ,64.6563 ,1.29065 ,0.13789 ,1.35298 
356 ,64.8325 ,1.29239 ,0.12762 ,1.25224 
357 ,65.0245 ,1.29432 ,0.10709 ,1.05077 
358 ,65.2005 ,1.29606 ,0.08656 ,0.84930 
359 ,65.3766 ,1.29787 ,0.08656 ,0.84930 
360 ,65.5685 ,1.29970 ,0.06945 ,0.68141 
361 ,65.7447 ,1.30152 ,0.05234 ,0.51352 
362 ,65.9208 ,1.30323 ,0.06260 ,0.61425 
363 ,66.0968 ,1.30505 ,0.04207 ,0.41278 
364 ,66.2730 ,1.30682 ,0.03522 ,0.34563 
365 ,66.4487 ,1.30851 ,0.03180 ,0.31205 
366 ,66.6252 ,1.31031 ,0.01469 ,0.14416 
367 ,66.8012 ,1.31208 ,0.00443 ,0.04342 
368 ,66.9933 ,1.31396 ,-0.00242 ,-0.02373 
369 ,67.1694 ,1.31576 ,-0.01611 ,-0.15805 
370 ,67.3614 ,1.31773 ,-0.04006 ,-0.39310 
371 ,67.5371 ,1.31947 ,-0.02637 ,-0.25878 
372 ,67.7136 ,1.32123 ,-0.04691 ,-0.46025 
373 ,67.9057 ,1.32313 ,-0.08113 ,-0.79604 
374 ,68.0816 ,1.32486 ,-0.07086 ,-0.69530 
375 ,68.2577 ,1.32661 ,-0.07771 ,-0.76246 
376 ,68.4339 ,1.32837 ,-0.08455 ,-0.82961 
377 ,68.6094 ,1.33027 ,-0.11877 ,-1.16540 
378 ,68.7856 ,1.33193 ,-0.11877 ,-1.16540 
379 ,68.9616 ,1.33371 ,-0.11535 ,-1.13182 
380 ,69.1217 ,1.33540 ,-0.13588 ,-1.33329 
381 ,69.2818 ,1.33699 ,-0.13246 ,-1.29971 
382 ,69.4580 ,1.33866 ,-0.16326 ,-1.60191 
383 ,69.6660 ,1.34065 ,-0.16668 ,-1.63549 
384 ,69.8585 ,1.34263 ,-0.16668 ,-1.63549 
385 ,70.0505 ,1.34454 ,-0.20090 ,-1.97128 
386 ,70.2261 ,1.34630 ,-0.19406 ,-1.90412 
387 ,70.4026 ,1.34809 ,-0.21459 ,-2.10559 
388 ,70.5789 ,1.34984 ,-0.21459 ,-2.10559 
389 ,70.7544 ,1.35164 ,-0.25224 ,-2.47495 
390 ,70.9308 ,1.35327 ,-0.22486 ,-2.20632 
391 ,71.1067 ,1.35512 ,-0.24539 ,-2.40779 
392 ,71.2829 ,1.35700 ,-0.26250 ,-2.57569 
393 ,71.4590 ,1.35863 ,-0.26593 ,-2.60926 
394 ,71.6512 ,1.36057 ,-0.26935 ,-2.64284 
395 ,71.8109 ,1.36225 ,-0.28646 ,-2.81073 
396 ,71.9872 ,1.36388 ,-0.29330 ,-2.87789 
397 ,72.1634 ,1.36567 ,-0.32068 ,-3.14652 
398 ,72.3555 ,1.36758 ,-0.30357 ,-2.97863 
399 ,72.5315 ,1.36939 ,-0.31726 ,-3.11294 
400 ,72.7076 ,1.37109 ,-0.32752 ,-3.21367 
401 ,72.8993 ,1.37300 ,-0.34464 ,-3.38156 
402 ,73.0757 ,1.37481 ,-0.33779 ,-3.31441 
403 ,73.2518 ,1.37652 ,-0.35832 ,-3.51588 
404 ,73.4277 ,1.37826 ,-0.35490 ,-3.48230 
405 ,73.6040 ,1.38006 ,-0.38570 ,-3.78450 
406 ,73.7958 ,1.38201 ,-0.38570 ,-3.78450 
407 ,73.9881 ,1.38385 ,-0.39939 ,-3.91882 
408 ,74.1641 ,1.38568 ,-0.40966 ,-4.01955 
409 ,74.3402 ,1.38742 ,-0.41992 ,-4.12029 
410 ,74.5163 ,1.38921 ,-0.42335 ,-4.15387 
411 ,74.6923 ,1.39097 ,-0.43703 ,-4.28818 
412 ,74.8685 ,1.39271 ,-0.43703 ,-4.28818 
413 ,75.0603 ,1.39453 ,-0.46783 ,-4.59038 
414 ,75.2366 ,1.39640 ,-0.46441 ,-4.55681 
415 ,75.4127 ,1.39812 ,-0.45757 ,-4.48965 
416 ,75.5889 ,1.39991 ,-0.46099 ,-4.52323 
417 ,75.7648 ,1.40169 ,-0.48494 ,-4.75828 
418 ,75.9409 ,1.40347 ,-0.50206 ,-4.92617 
419 ,76.1328 ,1.40533 ,-0.49521 ,-4.85901 
420 ,76.3571 ,1.40745 ,-0.51232 ,-5.02690 
421 ,76.5490 ,1.40951 ,-0.52601 ,-5.16121 
422 ,76.7252 ,1.41131 ,-0.52943 ,-5.19479 
423 ,76.9169 ,1.41316 ,-0.54654 ,-5.36268 
424 ,77.0773 ,1.41491 ,-0.54997 ,-5.39626 
425 ,77.2371 ,1.41648 ,-0.56365 ,-5.53058 
426 ,77.3970 ,1.41810 ,-0.56708 ,-5.56415 
427 ,77.5571 ,1.41969 ,-0.57734 ,-5.66489 
428 ,77.7656 ,1.42151 ,-0.59788 ,-5.86636 
429 ,77.9416 ,1.42343 ,-0.61499 ,-6.03425 
430 ,78.1013 ,1.42511 ,-0.61841 ,-6.06783 
431 ,78.2775 ,1.42682 ,-0.62868 ,-6.16856 
432 ,78.4697 ,1.42867 ,-0.62183 ,-6.10141 
433 ,78.6459 ,1.43043 ,-0.63552 ,-6.23572 
434 ,78.8218 ,1.43225 ,-0.63552 ,-6.23572 
435 ,78.9981 ,1.43397 ,-0.65947 ,-6.47077 
436 ,79.1901 ,1.43584 ,-0.64921 ,-6.37003 
437 ,79.3662 ,1.43765 ,-0.66290 ,-6.50435 
438 ,79.5423 ,1.43941 ,-0.68343 ,-6.70582 
439 ,79.7344 ,1.44128 ,-0.67316 ,-6.60508 
440 ,79.9102 ,1.44311 ,-0.68343 ,-6.70582 
441 ,80.0866 ,1.44486 ,-0.70054 ,-6.87371 
442 ,80.2783 ,1.44680 ,-0.72792 ,-7.14233 
443 ,80.4707 ,1.44866 ,-0.70739 ,-6.94086 
444 ,80.6467 ,1.45049 ,-0.73134 ,-7.17591 
445 ,80.8227 ,1.45225 ,-0.73818 ,-7.24307 
446 ,81.0149 ,1.45409 ,-0.74503 ,-7.31023 
447 ,81.1908 ,1.45588 ,-0.75187 ,-7.37738 
448 ,81.3831 ,1.45775 ,-0.77241 ,-7.57885 
449 ,81.5591 ,1.45968 ,-0.77583 ,-7.61243 
450 ,81.7352 ,1.46136 ,-0.78267 ,-7.67959 
451 ,81.9111 ,1.46308 ,-0.77241 ,-7.57885 
452 ,82.1034 ,1.46499 ,-0.79294 ,-7.78032 
453 ,82.2791 ,1.46677 ,-0.81005 ,-7.94821 
454 ,82.4555 ,1.46855 ,-0.82374 ,-8.08253 
455 ,82.6311 ,1.47031 ,-0.81347 ,-7.98179 
456 ,82.8076 ,1.47206 ,-0.82374 ,-8.08253 
457 ,82.9997 ,1.47398 ,-0.84427 ,-8.28400 
458 ,83.1918 ,1.47592 ,-0.85796 ,-8.41831 
459 ,83.3837 ,1.47785 ,-0.85112 ,-8.35115 
460 ,83.5598 ,1.47958 ,-0.87849 ,-8.61978 
461 ,83.7359 ,1.48134 ,-0.88534 ,-8.68694 
462 ,83.9118 ,1.48306 ,-0.88534 ,-8.68694 
463 ,84.0884 ,1.48481 ,-0.87849 ,-8.61978 
