Data stamp = , 01-04-2022 05:36:06 032

Calibration Values: 
Slope = , 26.54 , g/V 
Offset Voltage at no contact = , -0.501760 , V 

No , Time , Stage Position ,   Mass , Force 
   ,  (s) ,      (mm)      ,   (g)  , (mN)  

1 ,0.0000 ,0.69954 ,4.88101 ,47.89250 
2 ,0.2134 ,0.69963 ,4.88444 ,47.92608 
3 ,0.5176 ,0.70038 ,4.87417 ,47.82534 
4 ,0.7258 ,0.70183 ,4.87417 ,47.82534 
5 ,0.9176 ,0.70352 ,4.87759 ,47.85892 
6 ,1.0938 ,0.70521 ,4.87417 ,47.82534 
7 ,1.2541 ,0.70687 ,4.87417 ,47.82534 
8 ,1.4461 ,0.70869 ,4.86390 ,47.72461 
9 ,1.6224 ,0.71047 ,4.86732 ,47.75819 
10 ,1.7981 ,0.71234 ,4.84337 ,47.52314 
11 ,1.9744 ,0.71411 ,4.83652 ,47.45598 
12 ,2.1504 ,0.71582 ,4.81941 ,47.28809 
13 ,2.3265 ,0.71757 ,4.80573 ,47.15378 
14 ,2.5027 ,0.71930 ,4.76808 ,46.78442 
15 ,2.6946 ,0.72124 ,4.77835 ,46.88515 
16 ,2.8868 ,0.72305 ,4.75782 ,46.68368 
17 ,3.1107 ,0.72527 ,4.74070 ,46.51579 
18 ,3.2866 ,0.72717 ,4.70648 ,46.18001 
19 ,3.4469 ,0.72887 ,4.69964 ,46.11285 
20 ,3.6230 ,0.73056 ,4.68253 ,45.94496 
21 ,3.8150 ,0.73241 ,4.68253 ,45.94496 
22 ,3.9913 ,0.73420 ,4.67226 ,45.84422 
23 ,4.1831 ,0.73611 ,4.63462 ,45.47486 
24 ,4.3594 ,0.73786 ,4.63804 ,45.50844 
25 ,4.5354 ,0.73970 ,4.61751 ,45.30697 
26 ,4.7275 ,0.74158 ,4.59013 ,45.03835 
27 ,4.9035 ,0.74331 ,4.57302 ,44.87045 
28 ,5.0797 ,0.74510 ,4.55591 ,44.70256 
29 ,5.2717 ,0.74698 ,4.54564 ,44.60183 
30 ,5.4636 ,0.74892 ,4.50457 ,44.19889 
31 ,5.6717 ,0.75098 ,4.48746 ,44.03100 
32 ,5.8480 ,0.75275 ,4.47720 ,43.93026 
33 ,6.0241 ,0.75456 ,4.46351 ,43.79595 
34 ,6.2161 ,0.75643 ,4.44982 ,43.66163 
35 ,6.3918 ,0.75826 ,4.43613 ,43.52732 
36 ,6.5523 ,0.75994 ,4.40533 ,43.22512 
37 ,6.7284 ,0.76162 ,4.40533 ,43.22512 
38 ,6.9044 ,0.76344 ,4.39164 ,43.09080 
39 ,7.0808 ,0.76510 ,4.37111 ,42.88933 
40 ,7.2722 ,0.76704 ,4.34373 ,42.62071 
41 ,7.4482 ,0.76876 ,4.32320 ,42.41924 
42 ,7.6245 ,0.77054 ,4.30609 ,42.25135 
43 ,7.8168 ,0.77245 ,4.30267 ,42.21777 
44 ,8.0091 ,0.77438 ,4.26160 ,41.81483 
45 ,8.2007 ,0.77627 ,4.25818 ,41.78125 
46 ,8.3770 ,0.77807 ,4.24449 ,41.64694 
47 ,8.5530 ,0.77984 ,4.22738 ,41.47905 
48 ,8.7292 ,0.78154 ,4.20000 ,41.21042 
49 ,8.9213 ,0.78349 ,4.20000 ,41.21042 
50 ,9.0974 ,0.78529 ,4.18974 ,41.10968 
51 ,9.2732 ,0.78699 ,4.16236 ,40.84106 
52 ,9.4655 ,0.78884 ,4.14525 ,40.67317 
53 ,9.6414 ,0.79077 ,4.13498 ,40.57243 
54 ,9.8497 ,0.79266 ,4.10076 ,40.23665 
55 ,10.0417 ,0.79460 ,4.09391 ,40.16949 
56 ,10.2337 ,0.79660 ,4.07338 ,39.96802 
57 ,10.3938 ,0.79833 ,4.04943 ,39.73297 
58 ,10.5539 ,0.79995 ,4.04600 ,39.69940 
59 ,10.7617 ,0.80177 ,4.02547 ,39.49793 
60 ,10.9380 ,0.80362 ,4.02889 ,39.53150 
61 ,11.1140 ,0.80545 ,4.00494 ,39.29646 
62 ,11.3064 ,0.80735 ,3.98441 ,39.09499 
63 ,11.4983 ,0.80916 ,3.97072 ,38.96067 
64 ,11.6740 ,0.81104 ,3.96387 ,38.89352 
65 ,11.8504 ,0.81281 ,3.93650 ,38.62489 
66 ,12.0425 ,0.81473 ,3.91596 ,38.42342 
67 ,12.2185 ,0.81644 ,3.91938 ,38.45700 
68 ,12.3947 ,0.81823 ,3.89885 ,38.25553 
69 ,12.5707 ,0.81998 ,3.87490 ,38.02048 
70 ,12.7465 ,0.82170 ,3.85436 ,37.81901 
71 ,12.9225 ,0.82346 ,3.84752 ,37.75185 
72 ,13.0986 ,0.82530 ,3.82356 ,37.51681 
73 ,13.2747 ,0.82699 ,3.81672 ,37.44965 
74 ,13.4510 ,0.82881 ,3.79276 ,37.21460 
75 ,13.6592 ,0.83085 ,3.78592 ,37.14744 
76 ,13.8348 ,0.83267 ,3.76881 ,36.97955 
77 ,14.0114 ,0.83439 ,3.75854 ,36.87882 
78 ,14.2354 ,0.83648 ,3.73801 ,36.67735 
79 ,14.4114 ,0.83842 ,3.71405 ,36.44230 
80 ,14.5873 ,0.84011 ,3.70037 ,36.30799 
81 ,14.7795 ,0.84206 ,3.69694 ,36.27441 
82 ,14.9556 ,0.84378 ,3.65930 ,35.90505 
83 ,15.1318 ,0.84563 ,3.63877 ,35.70358 
84 ,15.3079 ,0.84739 ,3.61823 ,35.50211 
85 ,15.4839 ,0.84913 ,3.62850 ,35.60284 
86 ,15.6758 ,0.85096 ,3.61823 ,35.50211 
87 ,15.8521 ,0.85276 ,3.58059 ,35.13275 
88 ,16.0121 ,0.85449 ,3.56690 ,34.99843 
89 ,16.2203 ,0.85631 ,3.57032 ,35.03201 
90 ,16.4122 ,0.85837 ,3.53268 ,34.66265 
91 ,16.5884 ,0.86012 ,3.52241 ,34.56192 
92 ,16.7968 ,0.86207 ,3.50872 ,34.42760 
93 ,16.9883 ,0.86408 ,3.49504 ,34.29329 
94 ,17.1806 ,0.86604 ,3.49161 ,34.25971 
95 ,17.3727 ,0.86795 ,3.46424 ,33.99108 
96 ,17.5485 ,0.86972 ,3.43686 ,33.72246 
97 ,17.7248 ,0.87149 ,3.42317 ,33.58814 
98 ,17.9168 ,0.87341 ,3.40948 ,33.45383 
99 ,18.0925 ,0.87522 ,3.38895 ,33.25236 
100 ,18.2690 ,0.87691 ,3.36499 ,33.01731 
101 ,18.4450 ,0.87869 ,3.36157 ,32.98374 
102 ,18.6212 ,0.88047 ,3.35473 ,32.91658 
103 ,18.7971 ,0.88227 ,3.34104 ,32.78227 
104 ,18.9733 ,0.88398 ,3.30339 ,32.41290 
105 ,19.1329 ,0.88568 ,3.29997 ,32.37933 
106 ,19.3096 ,0.88733 ,3.27259 ,32.11070 
107 ,19.5018 ,0.88933 ,3.28286 ,32.21143 
108 ,19.6776 ,0.89103 ,3.26917 ,32.07712 
109 ,19.8538 ,0.89271 ,3.23837 ,31.77492 
110 ,20.0298 ,0.89455 ,3.22126 ,31.60702 
111 ,20.2059 ,0.89637 ,3.21100 ,31.50629 
112 ,20.3817 ,0.89803 ,3.20757 ,31.47271 
113 ,20.5576 ,0.89976 ,3.18362 ,31.23766 
114 ,20.7335 ,0.90160 ,3.17335 ,31.13693 
115 ,20.9098 ,0.90336 ,3.14255 ,30.83472 
116 ,21.1017 ,0.90516 ,3.15282 ,30.93546 
117 ,21.2778 ,0.90699 ,3.12886 ,30.70041 
118 ,21.4539 ,0.90874 ,3.10149 ,30.43178 
119 ,21.6303 ,0.91055 ,3.07753 ,30.19674 
120 ,21.8225 ,0.91247 ,3.07753 ,30.19674 
121 ,22.0145 ,0.91431 ,3.06726 ,30.09600 
122 ,22.1907 ,0.91615 ,3.03304 ,29.76022 
123 ,22.3826 ,0.91807 ,3.02962 ,29.72664 
124 ,22.5584 ,0.91979 ,3.02278 ,29.65948 
125 ,22.7509 ,0.92161 ,2.99198 ,29.35728 
126 ,22.9590 ,0.92378 ,2.98171 ,29.25654 
127 ,23.1351 ,0.92559 ,2.97144 ,29.15581 
128 ,23.3111 ,0.92736 ,2.94064 ,28.85360 
129 ,23.4869 ,0.92909 ,2.92696 ,28.71929 
130 ,23.6791 ,0.93103 ,2.91327 ,28.58498 
131 ,23.8710 ,0.93295 ,2.89273 ,28.38351 
132 ,24.0474 ,0.93469 ,2.88247 ,28.28277 
133 ,24.2233 ,0.93648 ,2.86878 ,28.14846 
134 ,24.3993 ,0.93820 ,2.86193 ,28.08130 
135 ,24.5753 ,0.94001 ,2.84825 ,27.94699 
136 ,24.7674 ,0.94189 ,2.82087 ,27.67836 
137 ,24.9437 ,0.94362 ,2.82087 ,27.67836 
138 ,25.1358 ,0.94560 ,2.78665 ,27.34258 
139 ,25.3279 ,0.94747 ,2.78322 ,27.30900 
140 ,25.5039 ,0.94928 ,2.76269 ,27.10753 
141 ,25.6800 ,0.95101 ,2.76954 ,27.17469 
142 ,25.8720 ,0.95291 ,2.71478 ,26.63744 
143 ,26.0642 ,0.95476 ,2.71820 ,26.67101 
144 ,26.2563 ,0.95668 ,2.70452 ,26.53670 
145 ,26.4322 ,0.95866 ,2.67372 ,26.23450 
146 ,26.6083 ,0.96025 ,2.67029 ,26.20092 
147 ,26.7844 ,0.96209 ,2.66687 ,26.16734 
148 ,26.9605 ,0.96384 ,2.64292 ,25.93229 
149 ,27.1686 ,0.96588 ,2.62581 ,25.76440 
150 ,27.3444 ,0.96767 ,2.60869 ,25.59651 
151 ,27.5207 ,0.96942 ,2.60185 ,25.52935 
152 ,27.6805 ,0.97111 ,2.57789 ,25.29430 
153 ,27.8728 ,0.97290 ,2.57789 ,25.29430 
154 ,28.0489 ,0.97468 ,2.54367 ,24.95852 
155 ,28.2248 ,0.97645 ,2.52998 ,24.82421 
156 ,28.4170 ,0.97837 ,2.54025 ,24.92494 
157 ,28.5931 ,0.98012 ,2.49918 ,24.52200 
158 ,28.7692 ,0.98188 ,2.49234 ,24.45485 
159 ,28.9453 ,0.98368 ,2.48892 ,24.42127 
160 ,29.1373 ,0.98563 ,2.45470 ,24.08549 
161 ,29.3134 ,0.98738 ,2.45127 ,24.05191 
162 ,29.5059 ,0.98929 ,2.43416 ,23.88402 
163 ,29.6813 ,0.99098 ,2.42732 ,23.81686 
164 ,29.8577 ,0.99281 ,2.41021 ,23.64897 
165 ,30.0659 ,0.99481 ,2.39994 ,23.54823 
166 ,30.2578 ,0.99676 ,2.36572 ,23.21245 
167 ,30.4339 ,0.99850 ,2.34519 ,23.01098 
168 ,30.6102 ,1.00034 ,2.33492 ,22.91024 
169 ,30.7860 ,1.00216 ,2.32808 ,22.84309 
170 ,30.9621 ,1.00380 ,2.33150 ,22.87667 
171 ,31.1382 ,1.00560 ,2.31439 ,22.70877 
172 ,31.3304 ,1.00749 ,2.26990 ,22.27226 
173 ,31.5066 ,1.00926 ,2.26648 ,22.23868 
174 ,31.6824 ,1.01102 ,2.25279 ,22.10437 
175 ,31.8585 ,1.01275 ,2.23568 ,21.93647 
176 ,32.0345 ,1.01458 ,2.21172 ,21.70143 
177 ,32.2106 ,1.01632 ,2.19461 ,21.53353 
178 ,32.3867 ,1.01802 ,2.19119 ,21.49996 
179 ,32.5628 ,1.01982 ,2.19119 ,21.49996 
180 ,32.7385 ,1.02162 ,2.17408 ,21.33206 
181 ,32.9149 ,1.02334 ,2.14328 ,21.02986 
182 ,33.1068 ,1.02522 ,2.13644 ,20.96270 
183 ,33.2829 ,1.02699 ,2.12617 ,20.86197 
184 ,33.4591 ,1.02877 ,2.11590 ,20.76123 
185 ,33.6512 ,1.03068 ,2.09537 ,20.55976 
186 ,33.8273 ,1.03243 ,2.07484 ,20.35829 
187 ,34.0035 ,1.03422 ,2.06115 ,20.22398 
188 ,34.1955 ,1.03612 ,2.03035 ,19.92178 
189 ,34.3715 ,1.03788 ,2.02008 ,19.82104 
190 ,34.5636 ,1.03981 ,2.02693 ,19.88820 
191 ,34.7557 ,1.04173 ,1.98244 ,19.45168 
192 ,34.9633 ,1.04370 ,1.97559 ,19.38452 
193 ,35.1398 ,1.04558 ,1.97559 ,19.38452 
194 ,35.3479 ,1.04765 ,1.94822 ,19.11590 
195 ,35.5240 ,1.04947 ,1.94137 ,19.04874 
196 ,35.7160 ,1.05134 ,1.92768 ,18.91443 
197 ,35.8918 ,1.05308 ,1.91057 ,18.74654 
198 ,36.0677 ,1.05494 ,1.89688 ,18.61222 
199 ,36.2442 ,1.05661 ,1.88662 ,18.51149 
200 ,36.4522 ,1.05867 ,1.86266 ,18.27644 
201 ,36.6281 ,1.06046 ,1.84213 ,18.07497 
202 ,36.8043 ,1.06222 ,1.83871 ,18.04139 
203 ,36.9966 ,1.06402 ,1.83186 ,17.97423 
204 ,37.1725 ,1.06593 ,1.79422 ,17.60487 
205 ,37.3485 ,1.06765 ,1.79080 ,17.57129 
206 ,37.5246 ,1.06944 ,1.78737 ,17.53772 
207 ,37.7008 ,1.07120 ,1.77711 ,17.43698 
208 ,37.8769 ,1.07299 ,1.75657 ,17.23551 
209 ,38.0529 ,1.07469 ,1.73604 ,17.03404 
210 ,38.2127 ,1.07642 ,1.72578 ,16.93331 
211 ,38.3890 ,1.07805 ,1.69840 ,16.66468 
212 ,38.5811 ,1.07986 ,1.69498 ,16.63110 
213 ,38.7411 ,1.08174 ,1.68471 ,16.53037 
214 ,38.9172 ,1.08331 ,1.67102 ,16.39605 
215 ,39.1094 ,1.08517 ,1.65733 ,16.26174 
216 ,39.3013 ,1.08719 ,1.64022 ,16.09385 
217 ,39.4935 ,1.08910 ,1.61284 ,15.82522 
218 ,39.6694 ,1.09092 ,1.59916 ,15.69091 
219 ,39.8455 ,1.09272 ,1.59916 ,15.69091 
220 ,40.0216 ,1.09438 ,1.58889 ,15.59018 
221 ,40.1974 ,1.09617 ,1.56836 ,15.38871 
222 ,40.3738 ,1.09785 ,1.54782 ,15.18724 
223 ,40.5500 ,1.09962 ,1.54098 ,15.12008 
224 ,40.7416 ,1.10158 ,1.54098 ,15.12008 
225 ,40.9179 ,1.10330 ,1.50676 ,14.78430 
226 ,41.0941 ,1.10509 ,1.49307 ,14.64998 
227 ,41.2701 ,1.10688 ,1.47938 ,14.51567 
228 ,41.4464 ,1.10862 ,1.46569 ,14.38136 
229 ,41.6221 ,1.11040 ,1.46227 ,14.34778 
230 ,41.8144 ,1.11223 ,1.44516 ,14.17989 
231 ,42.0225 ,1.11436 ,1.44516 ,14.17989 
232 ,42.1985 ,1.11611 ,1.43147 ,14.04557 
233 ,42.3903 ,1.11802 ,1.40067 ,13.74337 
234 ,42.5667 ,1.11984 ,1.35960 ,13.34043 
235 ,42.7585 ,1.12174 ,1.37329 ,13.47474 
236 ,42.9506 ,1.12362 ,1.35618 ,13.30685 
237 ,43.1268 ,1.12538 ,1.33907 ,13.13896 
238 ,43.3031 ,1.12722 ,1.34591 ,13.20612 
239 ,43.4785 ,1.12898 ,1.31169 ,12.87033 
240 ,43.6551 ,1.13068 ,1.30143 ,12.76960 
241 ,43.8312 ,1.13248 ,1.27747 ,12.53455 
242 ,44.0234 ,1.13440 ,1.26378 ,12.40024 
243 ,44.2154 ,1.13633 ,1.25694 ,12.33308 
244 ,44.3914 ,1.13810 ,1.23983 ,12.16519 
245 ,44.5674 ,1.13977 ,1.22272 ,11.99730 
246 ,44.7433 ,1.14159 ,1.21929 ,11.96372 
247 ,44.9357 ,1.14348 ,1.20218 ,11.79583 
248 ,45.1116 ,1.14532 ,1.17823 ,11.56078 
249 ,45.2878 ,1.14701 ,1.16454 ,11.42647 
250 ,45.4635 ,1.14879 ,1.16112 ,11.39289 
251 ,45.6398 ,1.15054 ,1.16454 ,11.42647 
252 ,45.8315 ,1.15242 ,1.13374 ,11.12426 
253 ,46.0083 ,1.15425 ,1.11663 ,10.95637 
254 ,46.2158 ,1.15626 ,1.10294 ,10.82206 
255 ,46.3920 ,1.15806 ,1.08925 ,10.68774 
256 ,46.5683 ,1.15981 ,1.06872 ,10.48627 
257 ,46.7443 ,1.16157 ,1.05503 ,10.35196 
258 ,46.9363 ,1.16351 ,1.05845 ,10.38554 
259 ,47.1124 ,1.16521 ,1.03792 ,10.18407 
260 ,47.2885 ,1.16702 ,1.02081 ,10.01618 
261 ,47.4645 ,1.16877 ,1.02081 ,10.01618 
262 ,47.6723 ,1.17071 ,0.99343 ,9.74755 
263 ,47.8487 ,1.17265 ,0.98317 ,9.64682 
264 ,48.0408 ,1.17456 ,0.98317 ,9.64682 
265 ,48.2328 ,1.17652 ,0.95921 ,9.41177 
266 ,48.4091 ,1.17820 ,0.93868 ,9.21030 
267 ,48.6011 ,1.18015 ,0.92841 ,9.10956 
268 ,48.7771 ,1.18187 ,0.92499 ,9.07598 
269 ,48.9530 ,1.18359 ,0.90103 ,8.84094 
270 ,49.1294 ,1.18543 ,0.89077 ,8.74020 
271 ,49.3211 ,1.18734 ,0.88050 ,8.63947 
272 ,49.4974 ,1.18912 ,0.86339 ,8.47158 
273 ,49.6734 ,1.19088 ,0.84628 ,8.30368 
274 ,49.8335 ,1.19256 ,0.82575 ,8.10221 
275 ,50.0099 ,1.19423 ,0.81206 ,7.96790 
276 ,50.1856 ,1.19598 ,0.80521 ,7.90074 
277 ,50.3618 ,1.19775 ,0.79495 ,7.80001 
278 ,50.5378 ,1.19950 ,0.79495 ,7.80001 
279 ,50.7140 ,1.20127 ,0.77784 ,7.63212 
280 ,50.9060 ,1.20317 ,0.75730 ,7.43065 
281 ,51.0979 ,1.20506 ,0.74704 ,7.32991 
282 ,51.2741 ,1.20683 ,0.72650 ,7.12844 
283 ,51.4502 ,1.20863 ,0.70939 ,6.96055 
284 ,51.6422 ,1.21049 ,0.70939 ,6.96055 
285 ,51.8345 ,1.21248 ,0.69913 ,6.85982 
286 ,52.0264 ,1.21433 ,0.67517 ,6.62477 
287 ,52.2185 ,1.21630 ,0.68201 ,6.69193 
288 ,52.4105 ,1.21814 ,0.65464 ,6.42330 
289 ,52.6026 ,1.22016 ,0.63753 ,6.25541 
290 ,52.7946 ,1.22193 ,0.63068 ,6.18825 
291 ,52.9705 ,1.22379 ,0.61015 ,5.98678 
292 ,53.1469 ,1.22559 ,0.59646 ,5.85247 
293 ,53.3228 ,1.22733 ,0.57935 ,5.68458 
294 ,53.4990 ,1.22914 ,0.58619 ,5.75173 
295 ,53.6750 ,1.23083 ,0.56908 ,5.58384 
296 ,53.8509 ,1.23260 ,0.54513 ,5.34879 
297 ,54.0113 ,1.23433 ,0.52459 ,5.14732 
298 ,54.1870 ,1.23598 ,0.51433 ,5.04659 
299 ,54.3632 ,1.23768 ,0.50406 ,4.94585 
300 ,54.5393 ,1.23952 ,0.49722 ,4.87870 
301 ,54.7153 ,1.24128 ,0.48695 ,4.77796 
302 ,54.8917 ,1.24305 ,0.46642 ,4.57649 
303 ,55.0673 ,1.24483 ,0.45273 ,4.44218 
304 ,55.2438 ,1.24655 ,0.45273 ,4.44218 
305 ,55.4199 ,1.24827 ,0.43562 ,4.27429 
306 ,55.6121 ,1.25012 ,0.44588 ,4.37502 
307 ,55.8041 ,1.25206 ,0.39797 ,3.90493 
308 ,55.9800 ,1.25391 ,0.39113 ,3.83777 
309 ,56.1560 ,1.25566 ,0.38771 ,3.80419 
310 ,56.3322 ,1.25736 ,0.37060 ,3.63630 
311 ,56.5085 ,1.25915 ,0.35006 ,3.43483 
312 ,56.7003 ,1.26115 ,0.34664 ,3.40125 
313 ,56.8764 ,1.26286 ,0.34664 ,3.40125 
314 ,57.0521 ,1.26459 ,0.33980 ,3.33410 
315 ,57.2285 ,1.26634 ,0.30215 ,2.96473 
316 ,57.4046 ,1.26815 ,0.28847 ,2.83042 
317 ,57.5806 ,1.26988 ,0.29189 ,2.86400 
318 ,57.7566 ,1.27164 ,0.29873 ,2.93116 
319 ,57.9328 ,1.27345 ,0.26451 ,2.59537 
320 ,58.1088 ,1.27516 ,0.23029 ,2.25959 
321 ,58.2849 ,1.27691 ,0.23371 ,2.29317 
322 ,58.4770 ,1.27887 ,0.24055 ,2.36032 
323 ,58.6532 ,1.28059 ,0.22002 ,2.15885 
324 ,58.8452 ,1.28256 ,0.18922 ,1.85665 
325 ,59.0213 ,1.28434 ,0.19949 ,1.95738 
326 ,59.1970 ,1.28609 ,0.17896 ,1.75592 
327 ,59.3730 ,1.28781 ,0.18580 ,1.82307 
328 ,59.5332 ,1.28953 ,0.15842 ,1.55445 
329 ,59.7091 ,1.29121 ,0.14473 ,1.42013 
330 ,59.8851 ,1.29290 ,0.14473 ,1.42013 
331 ,60.0616 ,1.29472 ,0.11736 ,1.15151 
332 ,60.2698 ,1.29677 ,0.10709 ,1.05077 
333 ,60.4618 ,1.29871 ,0.08314 ,0.81572 
334 ,60.6538 ,1.30065 ,0.09682 ,0.95004 
335 ,60.8460 ,1.30254 ,0.06260 ,0.61425 
336 ,61.0379 ,1.30444 ,0.07629 ,0.74857 
337 ,61.2141 ,1.30622 ,0.06260 ,0.61425 
338 ,61.3900 ,1.30800 ,0.04891 ,0.47994 
339 ,61.5823 ,1.30980 ,0.02496 ,0.24489 
340 ,61.7742 ,1.31184 ,0.04891 ,0.47994 
341 ,61.9505 ,1.31355 ,0.01127 ,0.11058 
342 ,62.1585 ,1.31560 ,0.00443 ,0.04342 
343 ,62.3345 ,1.31743 ,0.00100 ,0.00984 
344 ,62.5107 ,1.31919 ,-0.01953 ,-0.19163 
345 ,62.6866 ,1.32092 ,-0.04691 ,-0.46025 
346 ,62.8628 ,1.32269 ,-0.03322 ,-0.32594 
347 ,63.0548 ,1.32466 ,-0.04006 ,-0.39310 
348 ,63.2309 ,1.32633 ,-0.06060 ,-0.59457 
349 ,63.4228 ,1.32830 ,-0.06744 ,-0.66172 
350 ,63.5829 ,1.33002 ,-0.07771 ,-0.76246 
351 ,63.7431 ,1.33162 ,-0.09140 ,-0.89677 
352 ,63.9192 ,1.33324 ,-0.09140 ,-0.89677 
353 ,64.1115 ,1.33522 ,-0.10166 ,-0.99751 
354 ,64.2873 ,1.33694 ,-0.13246 ,-1.29971 
355 ,64.4794 ,1.33882 ,-0.12219 ,-1.19898 
356 ,64.6391 ,1.34056 ,-0.13931 ,-1.36687 
357 ,64.8156 ,1.34218 ,-0.15984 ,-1.56834 
358 ,64.9915 ,1.34395 ,-0.16326 ,-1.60191 
359 ,65.1677 ,1.34573 ,-0.19064 ,-1.87054 
360 ,65.3439 ,1.34748 ,-0.18722 ,-1.83696 
361 ,65.5355 ,1.34942 ,-0.18379 ,-1.80338 
362 ,65.7122 ,1.35117 ,-0.20433 ,-2.00485 
363 ,65.9197 ,1.35314 ,-0.21802 ,-2.13917 
364 ,66.0960 ,1.35502 ,-0.20775 ,-2.03843 
365 ,66.2723 ,1.35681 ,-0.23513 ,-2.30706 
366 ,66.4483 ,1.35859 ,-0.25566 ,-2.50853 
367 ,66.6244 ,1.36031 ,-0.25566 ,-2.50853 
368 ,66.8004 ,1.36216 ,-0.25566 ,-2.50853 
369 ,66.9924 ,1.36389 ,-0.25908 ,-2.54211 
370 ,67.1846 ,1.36593 ,-0.28646 ,-2.81073 
371 ,67.3607 ,1.36767 ,-0.28988 ,-2.84431 
372 ,67.5365 ,1.36939 ,-0.29673 ,-2.91147 
373 ,67.7285 ,1.37124 ,-0.32068 ,-3.14652 
374 ,67.9209 ,1.37318 ,-0.32410 ,-3.18010 
375 ,68.1131 ,1.37519 ,-0.34806 ,-3.41514 
376 ,68.3052 ,1.37706 ,-0.34464 ,-3.38156 
377 ,68.4810 ,1.37888 ,-0.35148 ,-3.44872 
378 ,68.6572 ,1.38063 ,-0.36517 ,-3.58303 
379 ,68.8492 ,1.38254 ,-0.39255 ,-3.85166 
380 ,69.0253 ,1.38430 ,-0.38228 ,-3.75093 
381 ,69.2013 ,1.38608 ,-0.38570 ,-3.78450 
382 ,69.3774 ,1.38783 ,-0.40966 ,-4.01955 
383 ,69.5375 ,1.38952 ,-0.41650 ,-4.08671 
384 ,69.7136 ,1.39119 ,-0.43703 ,-4.28818 
385 ,69.8896 ,1.39290 ,-0.45072 ,-4.42249 
386 ,70.0658 ,1.39474 ,-0.44730 ,-4.38891 
387 ,70.2418 ,1.39646 ,-0.44388 ,-4.35534 
388 ,70.4179 ,1.39823 ,-0.44730 ,-4.38891 
389 ,70.6099 ,1.40007 ,-0.48494 ,-4.75828 
390 ,70.7860 ,1.40186 ,-0.47126 ,-4.62396 
391 ,70.9622 ,1.40364 ,-0.48837 ,-4.79185 
392 ,71.1381 ,1.40545 ,-0.50206 ,-4.92617 
393 ,71.3300 ,1.40736 ,-0.51232 ,-5.02690 
394 ,71.5224 ,1.40919 ,-0.50890 ,-4.99332 
395 ,71.7142 ,1.41110 ,-0.52601 ,-5.16121 
396 ,71.8905 ,1.41293 ,-0.53970 ,-5.29553 
397 ,72.0665 ,1.41467 ,-0.56023 ,-5.49700 
398 ,72.2426 ,1.41647 ,-0.54654 ,-5.36268 
399 ,72.4186 ,1.41819 ,-0.57392 ,-5.63131 
400 ,72.5948 ,1.41999 ,-0.58077 ,-5.69847 
401 ,72.7865 ,1.42182 ,-0.59103 ,-5.79920 
402 ,72.9630 ,1.42367 ,-0.58761 ,-5.76562 
403 ,73.1551 ,1.42559 ,-0.59788 ,-5.86636 
404 ,73.3311 ,1.42737 ,-0.62868 ,-6.16856 
405 ,73.5067 ,1.42908 ,-0.63210 ,-6.20214 
406 ,73.6828 ,1.43087 ,-0.61841 ,-6.06783 
407 ,73.8590 ,1.43260 ,-0.62868 ,-6.16856 
408 ,74.0672 ,1.43460 ,-0.65263 ,-6.40361 
409 ,74.2595 ,1.43663 ,-0.64579 ,-6.33646 
410 ,74.4516 ,1.43855 ,-0.69027 ,-6.77297 
411 ,74.6277 ,1.44034 ,-0.68343 ,-6.70582 
412 ,74.8198 ,1.44224 ,-0.68343 ,-6.70582 
413 ,75.0120 ,1.44415 ,-0.69712 ,-6.84013 
414 ,75.1874 ,1.44591 ,-0.71423 ,-7.00802 
415 ,75.3638 ,1.44764 ,-0.70054 ,-6.87371 
416 ,75.5398 ,1.44944 ,-0.70054 ,-6.87371 
417 ,75.7159 ,1.45117 ,-0.71765 ,-7.04160 
418 ,75.8921 ,1.45294 ,-0.74845 ,-7.34380 
419 ,76.0843 ,1.45483 ,-0.73134 ,-7.17591 
420 ,76.2762 ,1.45677 ,-0.75530 ,-7.41096 
421 ,76.4523 ,1.45849 ,-0.77583 ,-7.61243 
422 ,76.6281 ,1.46033 ,-0.77925 ,-7.64601 
423 ,76.8045 ,1.46215 ,-0.77241 ,-7.57885 
424 ,76.9807 ,1.46385 ,-0.77241 ,-7.57885 
425 ,77.1566 ,1.46559 ,-0.78952 ,-7.74674 
426 ,77.3327 ,1.46734 ,-0.80663 ,-7.91464 
427 ,77.5088 ,1.46907 ,-0.81347 ,-7.98179 
428 ,77.6848 ,1.47086 ,-0.81005 ,-7.94821 
429 ,77.8609 ,1.47263 ,-0.82716 ,-8.11611 
430 ,78.0531 ,1.47459 ,-0.84085 ,-8.25042 
431 ,78.2290 ,1.47633 ,-0.84085 ,-8.25042 
432 ,78.4051 ,1.47809 ,-0.83058 ,-8.14968 
433 ,78.5813 ,1.47987 ,-0.84427 ,-8.28400 
434 ,78.7572 ,1.48159 ,-0.85796 ,-8.41831 
435 ,78.9334 ,1.48334 ,-0.87849 ,-8.61978 
436 ,79.1255 ,1.48523 ,-0.87165 ,-8.55262 
437 ,79.3175 ,1.48720 ,-0.88876 ,-8.72051 
438 ,79.5097 ,1.48908 ,-0.89903 ,-8.82125 
439 ,79.7018 ,1.49098 ,-0.90587 ,-8.88841 
440 ,79.8778 ,1.49281 ,-0.90929 ,-8.92198 
441 ,80.0698 ,1.49468 ,-0.91614 ,-8.98914 
442 ,80.2459 ,1.49644 ,-0.91272 ,-8.95556 
443 ,80.4218 ,1.49825 ,-0.92640 ,-9.08988 
444 ,80.5818 ,1.49997 ,-0.94351 ,-9.25777 
445 ,80.7581 ,1.50159 ,-0.95036 ,-9.32492 
446 ,80.9342 ,1.50334 ,-0.97089 ,-9.52639 
447 ,81.1264 ,1.50525 ,-0.95720 ,-9.39208 
448 ,81.3024 ,1.50705 ,-0.97089 ,-9.52639 
449 ,81.4782 ,1.50876 ,-0.99485 ,-9.76144 
450 ,81.6546 ,1.51055 ,-1.00511 ,-9.86218 
451 ,81.8306 ,1.51230 ,-1.00511 ,-9.86218 
452 ,82.0226 ,1.51425 ,-1.00169 ,-9.82860 
453 ,82.1987 ,1.51596 ,-1.02222 ,-10.03007 
454 ,82.3907 ,1.51783 ,-1.02565 ,-10.06365 
455 ,82.5667 ,1.51965 ,-1.01880 ,-9.99649 
456 ,82.7589 ,1.52151 ,-1.05987 ,-10.39943 
457 ,82.9510 ,1.52347 ,-1.06671 ,-10.46659 
458 ,83.1431 ,1.52546 ,-1.05302 ,-10.33227 
459 ,83.3191 ,1.52721 ,-1.07356 ,-10.53374 
460 ,83.4953 ,1.52896 ,-1.09067 ,-10.70163 
461 ,83.6873 ,1.53077 ,-1.07356 ,-10.53374 
462 ,83.8793 ,1.53277 ,-1.09751 ,-10.76879 
