Data stamp = , 01-04-2022 04:30:33 973

Calibration Values: 
Slope = , 26.54 , g/V 
Offset Voltage at no contact = , -0.501760 , V 

No , Time , Stage Position ,   Mass , Force 
   ,  (s) ,      (mm)      ,   (g)  , (mN)  

1 ,0.0000 ,0.64955 ,5.26430 ,51.65327 
2 ,0.2053 ,0.64962 ,5.28483 ,51.85474 
3 ,0.5094 ,0.65036 ,5.27798 ,51.78758 
4 ,0.7017 ,0.65170 ,5.28141 ,51.82116 
5 ,0.8935 ,0.65323 ,5.26430 ,51.65327 
6 ,1.0696 ,0.65498 ,5.27456 ,51.75401 
7 ,1.2619 ,0.65686 ,5.26087 ,51.61969 
8 ,1.4378 ,0.65860 ,5.27798 ,51.78758 
9 ,1.6140 ,0.66045 ,5.26430 ,51.65327 
10 ,1.7899 ,0.66223 ,5.26087 ,51.61969 
11 ,1.9980 ,0.66422 ,5.25061 ,51.51896 
12 ,2.1902 ,0.66622 ,5.24376 ,51.45180 
13 ,2.3664 ,0.66800 ,5.24376 ,51.45180 
14 ,2.5423 ,0.66975 ,5.22323 ,51.25033 
15 ,2.7184 ,0.67145 ,5.18559 ,50.88097 
16 ,2.9102 ,0.67343 ,5.18216 ,50.84739 
17 ,3.0863 ,0.67518 ,5.17874 ,50.81381 
18 ,3.2785 ,0.67705 ,5.15136 ,50.54519 
19 ,3.4547 ,0.67883 ,5.14452 ,50.47803 
20 ,3.6309 ,0.68063 ,5.12741 ,50.31014 
21 ,3.8230 ,0.68250 ,5.09661 ,50.00793 
22 ,3.9988 ,0.68432 ,5.08977 ,49.94078 
23 ,4.1911 ,0.68620 ,5.07608 ,49.80646 
24 ,4.3831 ,0.68817 ,5.05897 ,49.63857 
25 ,4.5593 ,0.68986 ,5.01790 ,49.23563 
26 ,4.7513 ,0.69170 ,5.02474 ,49.30279 
27 ,4.9433 ,0.69375 ,4.99737 ,49.03416 
28 ,5.1034 ,0.69541 ,4.96999 ,48.76554 
29 ,5.2793 ,0.69706 ,4.95630 ,48.63122 
30 ,5.4558 ,0.69887 ,4.93919 ,48.46333 
31 ,5.6474 ,0.70081 ,4.92892 ,48.36260 
32 ,5.8238 ,0.70256 ,4.91523 ,48.22828 
33 ,6.0157 ,0.70442 ,4.87417 ,47.82534 
34 ,6.1758 ,0.70614 ,4.86732 ,47.75819 
35 ,6.3521 ,0.70786 ,4.84679 ,47.55672 
36 ,6.5278 ,0.70957 ,4.84337 ,47.52314 
37 ,6.7042 ,0.71132 ,4.80915 ,47.18736 
38 ,6.8961 ,0.71327 ,4.78519 ,46.95231 
39 ,7.0723 ,0.71502 ,4.76466 ,46.75084 
40 ,7.2483 ,0.71683 ,4.76124 ,46.71726 
41 ,7.4243 ,0.71856 ,4.74070 ,46.51579 
42 ,7.6001 ,0.72024 ,4.70648 ,46.18001 
43 ,7.7763 ,0.72204 ,4.67911 ,45.91138 
44 ,7.9526 ,0.72384 ,4.66542 ,45.77707 
45 ,8.1283 ,0.72554 ,4.67911 ,45.91138 
46 ,8.3046 ,0.72729 ,4.65173 ,45.64275 
47 ,8.4807 ,0.72908 ,4.62093 ,45.34055 
48 ,8.6569 ,0.73080 ,4.60382 ,45.17266 
49 ,8.8488 ,0.73279 ,4.60040 ,45.13908 
50 ,9.0410 ,0.73461 ,4.59355 ,45.07192 
51 ,9.2330 ,0.73656 ,4.56960 ,44.83688 
52 ,9.4090 ,0.73838 ,4.53880 ,44.53467 
53 ,9.6011 ,0.74034 ,4.51142 ,44.26604 
54 ,9.8092 ,0.74226 ,4.51142 ,44.26604 
55 ,9.9854 ,0.74414 ,4.49089 ,44.06457 
56 ,10.1935 ,0.74622 ,4.46351 ,43.79595 
57 ,10.3855 ,0.74805 ,4.44640 ,43.62806 
58 ,10.5617 ,0.74987 ,4.42244 ,43.39301 
59 ,10.7543 ,0.75185 ,4.41560 ,43.32585 
60 ,10.9295 ,0.75356 ,4.40533 ,43.22512 
61 ,11.1216 ,0.75549 ,4.38138 ,42.99007 
62 ,11.2979 ,0.75730 ,4.35742 ,42.75502 
63 ,11.4737 ,0.75899 ,4.34031 ,42.58713 
64 ,11.6662 ,0.76087 ,4.33004 ,42.48639 
65 ,11.8580 ,0.76277 ,4.29924 ,42.18419 
66 ,12.0340 ,0.76456 ,4.28898 ,42.08345 
67 ,12.2101 ,0.76640 ,4.29240 ,42.11703 
68 ,12.3864 ,0.76812 ,4.27871 ,41.98272 
69 ,12.5784 ,0.76998 ,4.24107 ,41.61336 
70 ,12.7706 ,0.77199 ,4.24449 ,41.64694 
71 ,12.9462 ,0.77376 ,4.21711 ,41.37831 
72 ,13.1221 ,0.77548 ,4.18974 ,41.10968 
73 ,13.2982 ,0.77726 ,4.16578 ,40.87464 
74 ,13.4746 ,0.77902 ,4.15209 ,40.74032 
75 ,13.6829 ,0.78108 ,4.13156 ,40.53885 
76 ,13.8749 ,0.78304 ,4.11787 ,40.40454 
77 ,14.0509 ,0.78476 ,4.11445 ,40.37096 
78 ,14.2594 ,0.78680 ,4.09049 ,40.13591 
79 ,14.4352 ,0.78864 ,4.06312 ,39.86729 
80 ,14.6110 ,0.79037 ,4.06996 ,39.93444 
81 ,14.7872 ,0.79212 ,4.05627 ,39.80013 
82 ,14.9635 ,0.79386 ,4.03574 ,39.59866 
83 ,15.1391 ,0.79569 ,4.00836 ,39.33003 
84 ,15.3153 ,0.79739 ,3.99809 ,39.22930 
85 ,15.4915 ,0.79918 ,3.98098 ,39.06141 
86 ,15.6992 ,0.80119 ,3.96045 ,38.85994 
87 ,15.8917 ,0.80317 ,3.95703 ,38.82636 
88 ,16.0675 ,0.80498 ,3.94334 ,38.69205 
89 ,16.2438 ,0.80668 ,3.92965 ,38.55773 
90 ,16.4199 ,0.80845 ,3.89885 ,38.25553 
91 ,16.6280 ,0.81046 ,3.89201 ,38.18837 
92 ,16.8201 ,0.81238 ,3.86463 ,37.91975 
93 ,16.9961 ,0.81422 ,3.84067 ,37.68470 
94 ,17.1722 ,0.81598 ,3.82699 ,37.55038 
95 ,17.3642 ,0.81789 ,3.81330 ,37.41607 
96 ,17.5403 ,0.81960 ,3.79619 ,37.24818 
97 ,17.7161 ,0.82138 ,3.78250 ,37.11387 
98 ,17.8924 ,0.82318 ,3.76539 ,36.94597 
99 ,18.0685 ,0.82489 ,3.77223 ,37.01313 
100 ,18.2447 ,0.82671 ,3.74828 ,36.77808 
101 ,18.4367 ,0.82856 ,3.72090 ,36.50946 
102 ,18.6287 ,0.83052 ,3.69010 ,36.20725 
103 ,18.8048 ,0.83238 ,3.69352 ,36.24083 
104 ,18.9808 ,0.83401 ,3.66957 ,36.00578 
105 ,19.1569 ,0.83581 ,3.63877 ,35.70358 
106 ,19.3171 ,0.83750 ,3.64903 ,35.80431 
107 ,19.4930 ,0.83917 ,3.62850 ,35.60284 
108 ,19.6692 ,0.84098 ,3.62166 ,35.53569 
109 ,19.8612 ,0.84282 ,3.58401 ,35.16632 
110 ,20.0372 ,0.84460 ,3.57375 ,35.06559 
111 ,20.2133 ,0.84637 ,3.57032 ,35.03201 
112 ,20.3895 ,0.84809 ,3.56690 ,34.99843 
113 ,20.5656 ,0.84990 ,3.54295 ,34.76338 
114 ,20.7416 ,0.85171 ,3.52926 ,34.62907 
115 ,20.9336 ,0.85357 ,3.50530 ,34.39402 
116 ,21.1095 ,0.85529 ,3.49504 ,34.29329 
117 ,21.3019 ,0.85713 ,3.47450 ,34.09182 
118 ,21.4938 ,0.85919 ,3.45055 ,33.85677 
119 ,21.6699 ,0.86092 ,3.45739 ,33.92393 
120 ,21.8778 ,0.86299 ,3.43344 ,33.68888 
121 ,22.0701 ,0.86487 ,3.41290 ,33.48741 
122 ,22.2622 ,0.86675 ,3.39921 ,33.35310 
123 ,22.4542 ,0.86878 ,3.37184 ,33.08447 
124 ,22.6303 ,0.87048 ,3.35473 ,32.91658 
125 ,22.8225 ,0.87235 ,3.34446 ,32.81584 
126 ,23.0144 ,0.87445 ,3.33077 ,32.68153 
127 ,23.1906 ,0.87609 ,3.31366 ,32.51364 
128 ,23.3667 ,0.87787 ,3.29997 ,32.37933 
129 ,23.5427 ,0.87966 ,3.27602 ,32.14428 
130 ,23.7188 ,0.88138 ,3.25548 ,31.94281 
131 ,23.8950 ,0.88318 ,3.23837 ,31.77492 
132 ,24.0709 ,0.88496 ,3.24180 ,31.80849 
133 ,24.2468 ,0.88666 ,3.22468 ,31.64060 
134 ,24.4232 ,0.88844 ,3.20415 ,31.43913 
135 ,24.6152 ,0.89038 ,3.17335 ,31.13693 
136 ,24.7913 ,0.89211 ,3.16993 ,31.10335 
137 ,24.9670 ,0.89392 ,3.16993 ,31.10335 
138 ,25.1435 ,0.89560 ,3.14255 ,30.83472 
139 ,25.3193 ,0.89743 ,3.11860 ,30.59968 
140 ,25.5436 ,0.89949 ,3.09806 ,30.39821 
141 ,25.7193 ,0.90138 ,3.08780 ,30.29747 
142 ,25.8794 ,0.90312 ,3.07069 ,30.12958 
143 ,26.0394 ,0.90470 ,3.06042 ,30.02884 
144 ,26.2156 ,0.90640 ,3.04331 ,29.86095 
145 ,26.4080 ,0.90829 ,3.04673 ,29.89453 
146 ,26.5840 ,0.91008 ,3.01935 ,29.62590 
147 ,26.7603 ,0.91180 ,2.99198 ,29.35728 
148 ,26.9521 ,0.91371 ,2.99882 ,29.42444 
149 ,27.1283 ,0.91549 ,2.98855 ,29.32370 
150 ,27.3203 ,0.91734 ,2.95433 ,28.98792 
151 ,27.4803 ,0.91911 ,2.93722 ,28.82003 
152 ,27.6563 ,0.92080 ,2.92011 ,28.65213 
153 ,27.8485 ,0.92262 ,2.90985 ,28.55140 
154 ,28.0404 ,0.92462 ,2.89958 ,28.45066 
155 ,28.2164 ,0.92641 ,2.87562 ,28.21562 
156 ,28.3927 ,0.92811 ,2.86193 ,28.08130 
157 ,28.5846 ,0.93007 ,2.86536 ,28.11488 
158 ,28.7609 ,0.93184 ,2.84482 ,27.91341 
159 ,28.9370 ,0.93356 ,2.81402 ,27.61121 
160 ,29.1291 ,0.93552 ,2.81060 ,27.57763 
161 ,29.3052 ,0.93724 ,2.80376 ,27.51047 
162 ,29.4812 ,0.93902 ,2.77980 ,27.27542 
163 ,29.6411 ,0.94074 ,2.76269 ,27.10753 
164 ,29.8170 ,0.94234 ,2.74216 ,26.90606 
165 ,29.9935 ,0.94412 ,2.74216 ,26.90606 
166 ,30.1694 ,0.94590 ,2.72847 ,26.77175 
167 ,30.3451 ,0.94762 ,2.70794 ,26.57028 
168 ,30.5217 ,0.94941 ,2.68056 ,26.30165 
169 ,30.7136 ,0.95138 ,2.67372 ,26.23450 
170 ,30.8896 ,0.95305 ,2.66345 ,26.13376 
171 ,31.0658 ,0.95486 ,2.64976 ,25.99945 
172 ,31.2419 ,0.95659 ,2.62923 ,25.79798 
173 ,31.4339 ,0.95855 ,2.60869 ,25.59651 
174 ,31.6101 ,0.96028 ,2.61554 ,25.66367 
175 ,31.8021 ,0.96213 ,2.58474 ,25.36146 
176 ,32.0102 ,0.96429 ,2.56421 ,25.15999 
177 ,32.1863 ,0.96604 ,2.56078 ,25.12641 
178 ,32.3622 ,0.96777 ,2.52314 ,24.75705 
179 ,32.5386 ,0.96958 ,2.51630 ,24.68989 
180 ,32.7145 ,0.97137 ,2.49234 ,24.45485 
181 ,32.9065 ,0.97325 ,2.50261 ,24.55558 
182 ,33.0826 ,0.97499 ,2.48550 ,24.38769 
183 ,33.2588 ,0.97678 ,2.46496 ,24.18622 
184 ,33.4347 ,0.97849 ,2.43759 ,23.91759 
185 ,33.6109 ,0.98029 ,2.43759 ,23.91759 
186 ,33.8189 ,0.98233 ,2.41021 ,23.64897 
187 ,34.0111 ,0.98433 ,2.39994 ,23.54823 
188 ,34.1871 ,0.98604 ,2.39994 ,23.54823 
189 ,34.3792 ,0.98799 ,2.37256 ,23.27961 
190 ,34.5553 ,0.98980 ,2.36230 ,23.17887 
191 ,34.7313 ,0.99149 ,2.35545 ,23.11171 
192 ,34.9071 ,0.99327 ,2.32808 ,22.84309 
193 ,35.0834 ,0.99500 ,2.32123 ,22.77593 
194 ,35.2755 ,0.99694 ,2.28701 ,22.44015 
195 ,35.4515 ,0.99869 ,2.28359 ,22.40657 
196 ,35.6275 ,1.00042 ,2.28017 ,22.37299 
197 ,35.8037 ,1.00222 ,2.26648 ,22.23868 
198 ,35.9798 ,1.00395 ,2.23226 ,21.90290 
199 ,36.1878 ,1.00603 ,2.22541 ,21.83574 
200 ,36.3640 ,1.00777 ,2.22541 ,21.83574 
201 ,36.5397 ,1.00961 ,2.19803 ,21.56711 
202 ,36.7321 ,1.01147 ,2.17750 ,21.36564 
203 ,36.9403 ,1.01350 ,2.15012 ,21.09702 
204 ,37.1161 ,1.01530 ,2.13301 ,20.92912 
205 ,37.2921 ,1.01710 ,2.12275 ,20.82839 
206 ,37.4842 ,1.01899 ,2.12959 ,20.89555 
207 ,37.6602 ,1.02078 ,2.11248 ,20.72766 
208 ,37.8366 ,1.02250 ,2.08168 ,20.42545 
209 ,38.0287 ,1.02447 ,2.07484 ,20.35829 
210 ,38.2207 ,1.02631 ,2.05773 ,20.19040 
211 ,38.4288 ,1.02832 ,2.05430 ,20.15682 
212 ,38.6208 ,1.03036 ,2.02350 ,19.85462 
213 ,38.7808 ,1.03207 ,2.00639 ,19.68673 
214 ,38.9572 ,1.03379 ,1.99613 ,19.58599 
215 ,39.1490 ,1.03568 ,1.98928 ,19.51884 
216 ,39.3251 ,1.03737 ,1.98586 ,19.48526 
217 ,39.5013 ,1.03919 ,1.96190 ,19.25021 
218 ,39.6772 ,1.04097 ,1.94137 ,19.04874 
219 ,39.8533 ,1.04268 ,1.91742 ,18.81369 
220 ,40.0295 ,1.04448 ,1.91742 ,18.81369 
221 ,40.2216 ,1.04641 ,1.90373 ,18.67938 
222 ,40.3973 ,1.04813 ,1.88662 ,18.51149 
223 ,40.5737 ,1.04989 ,1.85582 ,18.20928 
224 ,40.7500 ,1.05168 ,1.85240 ,18.17570 
225 ,40.9258 ,1.05339 ,1.85240 ,18.17570 
226 ,41.1019 ,1.05518 ,1.84555 ,18.10855 
227 ,41.2780 ,1.05696 ,1.81133 ,17.77276 
228 ,41.4701 ,1.05884 ,1.80106 ,17.67203 
229 ,41.6462 ,1.06062 ,1.78737 ,17.53772 
230 ,41.8221 ,1.06238 ,1.78737 ,17.53772 
231 ,41.9982 ,1.06410 ,1.76342 ,17.30267 
232 ,42.1900 ,1.06611 ,1.74289 ,17.10120 
233 ,42.3825 ,1.06792 ,1.73262 ,17.00046 
234 ,42.5585 ,1.06971 ,1.71893 ,16.86615 
235 ,42.7344 ,1.07149 ,1.69498 ,16.63110 
236 ,42.9262 ,1.07332 ,1.69498 ,16.63110 
237 ,43.1025 ,1.07521 ,1.69498 ,16.63110 
238 ,43.2947 ,1.07710 ,1.65733 ,16.26174 
239 ,43.4864 ,1.07898 ,1.65733 ,16.26174 
240 ,43.6630 ,1.08073 ,1.65049 ,16.19458 
241 ,43.8548 ,1.08272 ,1.62653 ,15.95954 
242 ,44.0310 ,1.08439 ,1.59573 ,15.65733 
243 ,44.2071 ,1.08623 ,1.59231 ,15.62375 
244 ,44.3992 ,1.08814 ,1.57520 ,15.45586 
245 ,44.5752 ,1.08993 ,1.56151 ,15.32155 
246 ,44.7674 ,1.09181 ,1.56151 ,15.32155 
247 ,44.9433 ,1.09356 ,1.54098 ,15.12008 
248 ,45.1195 ,1.09537 ,1.54782 ,15.18724 
249 ,45.3116 ,1.09725 ,1.49649 ,14.68356 
250 ,45.4877 ,1.09907 ,1.50333 ,14.75072 
251 ,45.6636 ,1.10078 ,1.49307 ,14.64998 
252 ,45.8398 ,1.10255 ,1.45885 ,14.31420 
253 ,46.0158 ,1.10427 ,1.44516 ,14.17989 
254 ,46.1919 ,1.10604 ,1.43489 ,14.07915 
255 ,46.3680 ,1.10782 ,1.42805 ,14.01199 
256 ,46.5599 ,1.10970 ,1.41094 ,13.84410 
257 ,46.7361 ,1.11149 ,1.39040 ,13.64263 
258 ,46.9281 ,1.11334 ,1.40067 ,13.74337 
259 ,47.1042 ,1.11519 ,1.37329 ,13.47474 
260 ,47.2962 ,1.11704 ,1.35276 ,13.27327 
261 ,47.5205 ,1.11917 ,1.34591 ,13.20612 
262 ,47.6962 ,1.12115 ,1.32880 ,13.03822 
263 ,47.8726 ,1.12284 ,1.30827 ,12.83675 
264 ,48.0485 ,1.12462 ,1.29458 ,12.70244 
265 ,48.2406 ,1.12650 ,1.28432 ,12.60171 
266 ,48.4168 ,1.12829 ,1.28089 ,12.56813 
267 ,48.5929 ,1.13010 ,1.25352 ,12.29950 
268 ,48.7849 ,1.13198 ,1.25694 ,12.33308 
269 ,48.9613 ,1.13380 ,1.23641 ,12.13161 
270 ,49.1530 ,1.13568 ,1.21929 ,11.96372 
271 ,49.3130 ,1.13737 ,1.20561 ,11.82941 
272 ,49.4892 ,1.13901 ,1.19534 ,11.72867 
273 ,49.6649 ,1.14079 ,1.19876 ,11.76225 
274 ,49.8413 ,1.14253 ,1.18165 ,11.59436 
275 ,50.0333 ,1.14433 ,1.14401 ,11.22500 
276 ,50.2094 ,1.14621 ,1.13374 ,11.12426 
277 ,50.4015 ,1.14810 ,1.13716 ,11.15784 
278 ,50.5936 ,1.15008 ,1.09610 ,10.75490 
279 ,50.7698 ,1.15180 ,1.10979 ,10.88921 
280 ,50.9777 ,1.15382 ,1.08241 ,10.62059 
281 ,51.1540 ,1.15570 ,1.06530 ,10.45270 
282 ,51.3298 ,1.15737 ,1.05161 ,10.31838 
283 ,51.5060 ,1.15919 ,1.04134 ,10.21765 
284 ,51.6822 ,1.16090 ,1.03792 ,10.18407 
285 ,51.8742 ,1.16285 ,1.02081 ,10.01618 
286 ,52.0503 ,1.16465 ,1.01054 ,9.91544 
287 ,52.2263 ,1.16638 ,1.00028 ,9.81471 
288 ,52.4181 ,1.16822 ,0.97974 ,9.61324 
289 ,52.5945 ,1.17008 ,0.96948 ,9.51250 
290 ,52.7706 ,1.17188 ,0.96263 ,9.44535 
291 ,52.9466 ,1.17358 ,0.94894 ,9.31103 
292 ,53.1382 ,1.17540 ,0.94552 ,9.27745 
293 ,53.3148 ,1.17722 ,0.91472 ,8.97525 
294 ,53.5067 ,1.17916 ,0.92157 ,9.04241 
295 ,53.6829 ,1.18091 ,0.88734 ,8.70662 
296 ,53.8589 ,1.18269 ,0.87708 ,8.60589 
297 ,54.0351 ,1.18447 ,0.86681 ,8.50515 
298 ,54.2271 ,1.18638 ,0.86681 ,8.50515 
299 ,54.4033 ,1.18814 ,0.85997 ,8.43800 
300 ,54.5953 ,1.19005 ,0.82575 ,8.10221 
301 ,54.7714 ,1.19183 ,0.81890 ,8.03506 
302 ,54.9634 ,1.19372 ,0.80521 ,7.90074 
303 ,55.1394 ,1.19549 ,0.78126 ,7.66570 
304 ,55.3476 ,1.19750 ,0.78810 ,7.73285 
305 ,55.5236 ,1.19932 ,0.76415 ,7.49780 
306 ,55.6996 ,1.20111 ,0.74019 ,7.26276 
307 ,55.8759 ,1.20286 ,0.72650 ,7.12844 
308 ,56.0518 ,1.20463 ,0.72992 ,7.16202 
309 ,56.2276 ,1.20635 ,0.71966 ,7.06129 
310 ,56.4041 ,1.20817 ,0.69913 ,6.85982 
311 ,56.5798 ,1.20995 ,0.70939 ,6.96055 
312 ,56.7722 ,1.21178 ,0.67517 ,6.62477 
313 ,56.9482 ,1.21359 ,0.67859 ,6.65835 
314 ,57.1402 ,1.21544 ,0.63753 ,6.25541 
315 ,57.3643 ,1.21750 ,0.63410 ,6.22183 
316 ,57.5401 ,1.21946 ,0.62384 ,6.12109 
317 ,57.7165 ,1.22126 ,0.59988 ,5.88605 
318 ,57.8924 ,1.22301 ,0.59988 ,5.88605 
319 ,58.0846 ,1.22487 ,0.58962 ,5.78531 
320 ,58.2602 ,1.22669 ,0.56566 ,5.55026 
321 ,58.4368 ,1.22844 ,0.54855 ,5.38237 
322 ,58.6128 ,1.23025 ,0.53144 ,5.21448 
323 ,58.7888 ,1.23194 ,0.53486 ,5.24806 
324 ,58.9652 ,1.23369 ,0.51091 ,5.01301 
325 ,59.1729 ,1.23575 ,0.51091 ,5.01301 
326 ,59.3492 ,1.23755 ,0.50748 ,4.97943 
327 ,59.5251 ,1.23936 ,0.48695 ,4.77796 
328 ,59.7013 ,1.24107 ,0.46984 ,4.61007 
329 ,59.9094 ,1.24313 ,0.45615 ,4.47576 
330 ,60.1015 ,1.24510 ,0.42877 ,4.20713 
331 ,60.2771 ,1.24688 ,0.41509 ,4.07282 
332 ,60.4532 ,1.24860 ,0.42193 ,4.13997 
333 ,60.6294 ,1.25039 ,0.41509 ,4.07282 
334 ,60.8213 ,1.25235 ,0.38771 ,3.80419 
335 ,61.0138 ,1.25411 ,0.37744 ,3.70346 
336 ,61.2056 ,1.25614 ,0.37060 ,3.63630 
337 ,61.3819 ,1.25789 ,0.34322 ,3.36767 
338 ,61.5580 ,1.25965 ,0.33638 ,3.30052 
339 ,61.7340 ,1.26140 ,0.31926 ,3.13263 
340 ,61.8937 ,1.26313 ,0.32269 ,3.16620 
341 ,62.0702 ,1.26481 ,0.31584 ,3.09905 
342 ,62.2778 ,1.26678 ,0.29189 ,2.86400 
343 ,62.4545 ,1.26861 ,0.28504 ,2.79684 
344 ,62.6303 ,1.27035 ,0.28504 ,2.79684 
345 ,62.8065 ,1.27210 ,0.26109 ,2.56179 
346 ,62.9825 ,1.27389 ,0.24740 ,2.42748 
347 ,63.1584 ,1.27564 ,0.21318 ,2.09170 
348 ,63.3347 ,1.27740 ,0.23371 ,2.29317 
349 ,63.5266 ,1.27931 ,0.22344 ,2.19243 
350 ,63.7024 ,1.28103 ,0.18580 ,1.82307 
351 ,63.8788 ,1.28285 ,0.18238 ,1.78949 
352 ,64.0548 ,1.28469 ,0.16869 ,1.65518 
353 ,64.2308 ,1.28638 ,0.16527 ,1.62160 
354 ,64.4071 ,1.28810 ,0.16185 ,1.58802 
355 ,64.5831 ,1.28985 ,0.13447 ,1.31940 
356 ,64.7752 ,1.29172 ,0.11736 ,1.15151 
357 ,64.9511 ,1.29364 ,0.12762 ,1.25224 
358 ,65.1273 ,1.29532 ,0.11051 ,1.08435 
359 ,65.3032 ,1.29709 ,0.09682 ,0.95004 
360 ,65.4793 ,1.29886 ,0.07971 ,0.78214 
361 ,65.6715 ,1.30068 ,0.07287 ,0.71499 
362 ,65.8632 ,1.30265 ,0.06260 ,0.61425 
363 ,66.0396 ,1.30440 ,0.03180 ,0.31205 
364 ,66.2156 ,1.30622 ,0.02838 ,0.27847 
365 ,66.3918 ,1.30800 ,0.02838 ,0.27847 
366 ,66.5838 ,1.30991 ,0.01127 ,0.11058 
367 ,66.7601 ,1.31170 ,0.00443 ,0.04342 
368 ,66.9520 ,1.31361 ,0.00100 ,0.00984 
369 ,67.1277 ,1.31537 ,-0.00584 ,-0.05731 
370 ,67.3202 ,1.31722 ,-0.03664 ,-0.35952 
371 ,67.5282 ,1.31929 ,-0.04348 ,-0.42667 
372 ,67.7202 ,1.32123 ,-0.06060 ,-0.59457 
373 ,67.8963 ,1.32301 ,-0.06744 ,-0.66172 
374 ,68.0725 ,1.32477 ,-0.06060 ,-0.59457 
375 ,68.2483 ,1.32657 ,-0.07771 ,-0.76246 
376 ,68.4246 ,1.32827 ,-0.09140 ,-0.89677 
377 ,68.6166 ,1.33012 ,-0.10851 ,-1.06466 
378 ,68.8086 ,1.33216 ,-0.10166 ,-0.99751 
379 ,68.9848 ,1.33388 ,-0.12904 ,-1.26613 
380 ,69.1769 ,1.33581 ,-0.13246 ,-1.29971 
381 ,69.3528 ,1.33760 ,-0.14273 ,-1.40045 
382 ,69.5290 ,1.33932 ,-0.15642 ,-1.53476 
383 ,69.7207 ,1.34114 ,-0.17353 ,-1.70265 
384 ,69.8970 ,1.34299 ,-0.18722 ,-1.83696 
385 ,70.0730 ,1.34478 ,-0.19748 ,-1.93770 
386 ,70.2651 ,1.34665 ,-0.20090 ,-1.97128 
387 ,70.4413 ,1.34849 ,-0.21117 ,-2.07201 
388 ,70.6494 ,1.35045 ,-0.22144 ,-2.17275 
389 ,70.8415 ,1.35238 ,-0.23513 ,-2.30706 
390 ,71.0336 ,1.35439 ,-0.24197 ,-2.37422 
391 ,71.2096 ,1.35617 ,-0.24881 ,-2.44137 
392 ,71.3856 ,1.35799 ,-0.27277 ,-2.67642 
393 ,71.5619 ,1.35968 ,-0.27277 ,-2.67642 
394 ,71.7376 ,1.36142 ,-0.28988 ,-2.84431 
395 ,71.9300 ,1.36332 ,-0.28988 ,-2.84431 
396 ,72.1060 ,1.36516 ,-0.30357 ,-2.97863 
397 ,72.2821 ,1.36688 ,-0.32410 ,-3.18010 
398 ,72.4420 ,1.36860 ,-0.32752 ,-3.21367 
399 ,72.6182 ,1.37019 ,-0.32752 ,-3.21367 
400 ,72.7940 ,1.37197 ,-0.32752 ,-3.21367 
401 ,72.9703 ,1.37370 ,-0.33779 ,-3.31441 
402 ,73.1463 ,1.37547 ,-0.35490 ,-3.48230 
403 ,73.3225 ,1.37724 ,-0.37886 ,-3.71735 
404 ,73.5141 ,1.37915 ,-0.38228 ,-3.75093 
405 ,73.6741 ,1.38089 ,-0.37886 ,-3.71735 
406 ,73.8503 ,1.38254 ,-0.39939 ,-3.91882 
407 ,74.0428 ,1.38434 ,-0.41308 ,-4.05313 
408 ,74.2349 ,1.38635 ,-0.39939 ,-3.91882 
409 ,74.4110 ,1.38813 ,-0.41308 ,-4.05313 
410 ,74.5871 ,1.38988 ,-0.44046 ,-4.32176 
411 ,74.7632 ,1.39170 ,-0.44388 ,-4.35534 
412 ,74.9588 ,1.39358 ,-0.44388 ,-4.35534 
413 ,75.1633 ,1.39564 ,-0.46441 ,-4.55681 
414 ,75.3552 ,1.39759 ,-0.47810 ,-4.69112 
415 ,75.5311 ,1.39934 ,-0.47468 ,-4.65754 
416 ,75.7074 ,1.40110 ,-0.48152 ,-4.72470 
417 ,75.8834 ,1.40282 ,-0.50890 ,-4.99332 
418 ,76.0593 ,1.40465 ,-0.51917 ,-5.09406 
419 ,76.2353 ,1.40635 ,-0.50890 ,-4.99332 
420 ,76.4117 ,1.40810 ,-0.51917 ,-5.09406 
421 ,76.6035 ,1.41000 ,-0.55339 ,-5.42984 
422 ,76.7800 ,1.41179 ,-0.55339 ,-5.42984 
423 ,76.9720 ,1.41373 ,-0.55339 ,-5.42984 
424 ,77.1801 ,1.41578 ,-0.56708 ,-5.56415 
425 ,77.3721 ,1.41775 ,-0.56708 ,-5.56415 
426 ,77.5641 ,1.41960 ,-0.60472 ,-5.93352 
427 ,77.7242 ,1.42134 ,-0.59445 ,-5.83278 
428 ,77.9003 ,1.42300 ,-0.60814 ,-5.96709 
429 ,78.0764 ,1.42476 ,-0.61156 ,-6.00067 
430 ,78.2684 ,1.42670 ,-0.62525 ,-6.13499 
431 ,78.4607 ,1.42854 ,-0.63552 ,-6.23572 
432 ,78.6528 ,1.43058 ,-0.63552 ,-6.23572 
433 ,78.8287 ,1.43231 ,-0.64921 ,-6.37003 
434 ,79.0208 ,1.43421 ,-0.66632 ,-6.53793 
435 ,79.2127 ,1.43607 ,-0.66290 ,-6.50435 
436 ,79.3886 ,1.43786 ,-0.68685 ,-6.73940 
437 ,79.5809 ,1.43974 ,-0.68685 ,-6.73940 
438 ,79.7571 ,1.44160 ,-0.68685 ,-6.73940 
439 ,79.9491 ,1.44348 ,-0.71423 ,-7.00802 
440 ,80.1571 ,1.44552 ,-0.70396 ,-6.90729 
441 ,80.3332 ,1.44731 ,-0.73476 ,-7.20949 
442 ,80.5090 ,1.44909 ,-0.71765 ,-7.04160 
443 ,80.6849 ,1.45082 ,-0.74845 ,-7.34380 
444 ,80.8610 ,1.45260 ,-0.75872 ,-7.44454 
445 ,81.0211 ,1.45432 ,-0.76898 ,-7.54527 
446 ,81.1973 ,1.45604 ,-0.77241 ,-7.57885 
447 ,81.3893 ,1.45789 ,-0.77583 ,-7.61243 
448 ,81.5818 ,1.45973 ,-0.79978 ,-7.84748 
449 ,81.7578 ,1.46158 ,-0.79294 ,-7.78032 
450 ,81.9335 ,1.46333 ,-0.78267 ,-7.67959 
451 ,82.1099 ,1.46512 ,-0.80663 ,-7.91464 
452 ,82.3021 ,1.46693 ,-0.83401 ,-8.18326 
453 ,82.4941 ,1.46887 ,-0.82716 ,-8.11611 
454 ,82.6702 ,1.47072 ,-0.83743 ,-8.21684 
455 ,82.8460 ,1.47247 ,-0.84427 ,-8.28400 
456 ,83.0062 ,1.47414 ,-0.85796 ,-8.41831 
457 ,83.1824 ,1.47582 ,-0.88192 ,-8.65336 
458 ,83.3746 ,1.47773 ,-0.86823 ,-8.51904 
459 ,83.5667 ,1.47967 ,-0.87507 ,-8.58620 
460 ,83.7427 ,1.48145 ,-0.90587 ,-8.88841 
461 ,83.9347 ,1.48333 ,-0.89560 ,-8.78767 
462 ,84.1268 ,1.48526 ,-0.91614 ,-8.98914 
463 ,84.3030 ,1.48703 ,-0.91956 ,-9.02272 
