Data stamp = , 31-03-2022 14:39:08 599

Calibration Values: 
Slope = , 26.54 , g/V 
Offset Voltage at no contact = , -0.501760 , V 

No , Time , Stage Position ,   Mass , Force 
   ,  (s) ,      (mm)      ,   (g)  , (mN)  

1 ,0.0000 ,0.69951 ,5.05212 ,49.57142 
2 ,0.2201 ,0.69960 ,5.07265 ,49.77289 
3 ,0.5243 ,0.70046 ,5.04185 ,49.47068 
4 ,0.7164 ,0.70180 ,5.04528 ,49.50426 
5 ,0.8923 ,0.70324 ,5.04528 ,49.50426 
6 ,1.0846 ,0.70506 ,5.06581 ,49.70573 
7 ,1.2606 ,0.70689 ,5.07608 ,49.80646 
8 ,1.4526 ,0.70877 ,5.05212 ,49.57142 
9 ,1.6447 ,0.71073 ,5.05897 ,49.63857 
10 ,1.8368 ,0.71263 ,5.02817 ,49.33637 
11 ,2.0132 ,0.71445 ,5.00763 ,49.13490 
12 ,2.2051 ,0.71630 ,5.00421 ,49.10132 
13 ,2.3808 ,0.71804 ,4.98710 ,48.93343 
14 ,2.5729 ,0.71987 ,4.96657 ,48.73196 
15 ,2.7653 ,0.72190 ,4.94603 ,48.53049 
16 ,2.9574 ,0.72373 ,4.95288 ,48.59764 
17 ,3.1333 ,0.72559 ,4.91523 ,48.22828 
18 ,3.3095 ,0.72735 ,4.90839 ,48.16113 
19 ,3.4856 ,0.72905 ,4.91181 ,48.19471 
20 ,3.6613 ,0.73085 ,4.90155 ,48.09397 
21 ,3.8536 ,0.73280 ,4.85706 ,47.65745 
22 ,4.0295 ,0.73456 ,4.85706 ,47.65745 
23 ,4.2058 ,0.73631 ,4.84679 ,47.55672 
24 ,4.3979 ,0.73816 ,4.81599 ,47.25451 
25 ,4.5742 ,0.73999 ,4.79888 ,47.08662 
26 ,4.7660 ,0.74187 ,4.79888 ,47.08662 
27 ,4.9581 ,0.74378 ,4.76808 ,46.78442 
28 ,5.1342 ,0.74558 ,4.75782 ,46.68368 
29 ,5.3103 ,0.74739 ,4.74413 ,46.54937 
30 ,5.4864 ,0.74911 ,4.73044 ,46.41506 
31 ,5.6781 ,0.75101 ,4.70306 ,46.14643 
32 ,5.8545 ,0.75277 ,4.68937 ,46.01212 
33 ,6.0305 ,0.75455 ,4.66199 ,45.74349 
34 ,6.2066 ,0.75631 ,4.65857 ,45.70991 
35 ,6.3983 ,0.75818 ,4.63462 ,45.47486 
36 ,6.5745 ,0.75998 ,4.61751 ,45.30697 
37 ,6.7506 ,0.76173 ,4.60382 ,45.17266 
38 ,6.9429 ,0.76357 ,4.59013 ,45.03835 
39 ,7.1507 ,0.76571 ,4.56275 ,44.76972 
40 ,7.3270 ,0.76753 ,4.54906 ,44.63541 
41 ,7.5192 ,0.76944 ,4.51826 ,44.33320 
42 ,7.7271 ,0.77146 ,4.50115 ,44.16531 
43 ,7.8871 ,0.77320 ,4.48404 ,43.99742 
44 ,8.0631 ,0.77482 ,4.47035 ,43.86310 
45 ,8.2393 ,0.77666 ,4.44982 ,43.66163 
46 ,8.4150 ,0.77839 ,4.42586 ,43.42659 
47 ,8.5913 ,0.78011 ,4.42244 ,43.39301 
48 ,8.7676 ,0.78192 ,4.40191 ,43.19154 
49 ,8.9435 ,0.78367 ,4.38480 ,43.02365 
50 ,9.1198 ,0.78542 ,4.37111 ,42.88933 
51 ,9.3278 ,0.78740 ,4.34031 ,42.58713 
52 ,9.5037 ,0.78925 ,4.34031 ,42.58713 
53 ,9.6959 ,0.79109 ,4.31293 ,42.31850 
54 ,9.8879 ,0.79310 ,4.29582 ,42.15061 
55 ,10.0641 ,0.79485 ,4.28213 ,42.01630 
56 ,10.2403 ,0.79667 ,4.25476 ,41.74767 
57 ,10.4323 ,0.79859 ,4.24791 ,41.68051 
58 ,10.6243 ,0.80046 ,4.23422 ,41.54620 
59 ,10.8164 ,0.80241 ,4.19658 ,41.17684 
60 ,11.0081 ,0.80421 ,4.17947 ,41.00895 
61 ,11.1844 ,0.80604 ,4.17605 ,40.97537 
62 ,11.3605 ,0.80786 ,4.16920 ,40.90821 
63 ,11.5367 ,0.80960 ,4.13498 ,40.57243 
64 ,11.7287 ,0.81149 ,4.11787 ,40.40454 
65 ,11.9048 ,0.81330 ,4.10076 ,40.23665 
66 ,12.0644 ,0.81499 ,4.08023 ,40.03518 
67 ,12.2409 ,0.81664 ,4.07680 ,40.00160 
68 ,12.4167 ,0.81837 ,4.04600 ,39.69940 
69 ,12.5931 ,0.82012 ,4.02547 ,39.49793 
70 ,12.7692 ,0.82193 ,4.02205 ,39.46435 
71 ,12.9611 ,0.82377 ,4.01520 ,39.39719 
72 ,13.1372 ,0.82559 ,3.95703 ,38.82636 
73 ,13.3132 ,0.82732 ,3.95018 ,38.75920 
74 ,13.5055 ,0.82929 ,3.95361 ,38.79278 
75 ,13.6813 ,0.83105 ,3.93307 ,38.59131 
76 ,13.8575 ,0.83283 ,3.89543 ,38.22195 
77 ,14.0336 ,0.83449 ,3.88858 ,38.15479 
78 ,14.1935 ,0.83630 ,3.87490 ,38.02048 
79 ,14.3698 ,0.83788 ,3.86121 ,37.88617 
80 ,14.5298 ,0.83960 ,3.85094 ,37.78543 
81 ,14.7058 ,0.84129 ,3.84067 ,37.68470 
82 ,14.8820 ,0.84302 ,3.79961 ,37.28176 
83 ,15.0581 ,0.84483 ,3.79276 ,37.21460 
84 ,15.2180 ,0.84655 ,3.77908 ,37.08029 
85 ,15.3941 ,0.84815 ,3.75854 ,36.87882 
86 ,15.6021 ,0.85009 ,3.73459 ,36.64377 
87 ,15.7938 ,0.85219 ,3.71405 ,36.44230 
88 ,15.9703 ,0.85388 ,3.71748 ,36.47588 
89 ,16.1465 ,0.85570 ,3.68668 ,36.17367 
90 ,16.3224 ,0.85742 ,3.66272 ,35.93863 
91 ,16.4982 ,0.85920 ,3.63534 ,35.67000 
92 ,16.6747 ,0.86098 ,3.61823 ,35.50211 
93 ,16.8669 ,0.86292 ,3.62508 ,35.56926 
94 ,17.0589 ,0.86480 ,3.58401 ,35.16632 
95 ,17.2350 ,0.86655 ,3.57375 ,35.06559 
96 ,17.4108 ,0.86834 ,3.55663 ,34.89770 
97 ,17.6028 ,0.87012 ,3.55321 ,34.86412 
98 ,17.8110 ,0.87222 ,3.52926 ,34.62907 
99 ,17.9872 ,0.87405 ,3.51557 ,34.49476 
100 ,18.1793 ,0.87596 ,3.48135 ,34.15898 
101 ,18.3713 ,0.87783 ,3.46081 ,33.95751 
102 ,18.5474 ,0.87966 ,3.45055 ,33.85677 
103 ,18.7397 ,0.88162 ,3.43344 ,33.68888 
104 ,18.9316 ,0.88341 ,3.41290 ,33.48741 
105 ,19.1237 ,0.88542 ,3.39237 ,33.28594 
106 ,19.2998 ,0.88723 ,3.36842 ,33.05089 
107 ,19.4755 ,0.88899 ,3.36157 ,32.98374 
108 ,19.6519 ,0.89076 ,3.34788 ,32.84942 
109 ,19.8279 ,0.89248 ,3.34104 ,32.78227 
110 ,20.0042 ,0.89420 ,3.30682 ,32.44648 
111 ,20.1802 ,0.89603 ,3.29313 ,32.31217 
112 ,20.3882 ,0.89796 ,3.28286 ,32.21143 
113 ,20.5643 ,0.89979 ,3.26917 ,32.07712 
114 ,20.7405 ,0.90161 ,3.23153 ,31.70776 
115 ,20.9164 ,0.90333 ,3.21784 ,31.57345 
116 ,21.1085 ,0.90526 ,3.21784 ,31.57345 
117 ,21.3006 ,0.90707 ,3.20757 ,31.47271 
118 ,21.4924 ,0.90912 ,3.17677 ,31.17051 
119 ,21.6688 ,0.91087 ,3.17335 ,31.13693 
120 ,21.8769 ,0.91287 ,3.13913 ,30.80115 
121 ,22.0689 ,0.91488 ,3.12886 ,30.70041 
122 ,22.2449 ,0.91663 ,3.10149 ,30.43178 
123 ,22.4372 ,0.91852 ,3.07411 ,30.16316 
124 ,22.6130 ,0.92030 ,3.06042 ,30.02884 
125 ,22.8051 ,0.92220 ,3.07069 ,30.12958 
126 ,23.0134 ,0.92429 ,3.03647 ,29.79380 
127 ,23.1894 ,0.92607 ,3.02278 ,29.65948 
128 ,23.3655 ,0.92785 ,2.99198 ,29.35728 
129 ,23.5415 ,0.92954 ,2.97829 ,29.22297 
130 ,23.7172 ,0.93139 ,2.95091 ,28.95434 
131 ,23.8934 ,0.93314 ,2.94749 ,28.92076 
132 ,24.0698 ,0.93485 ,2.94407 ,28.88718 
133 ,24.2619 ,0.93679 ,2.92011 ,28.65213 
134 ,24.4379 ,0.93858 ,2.89273 ,28.38351 
135 ,24.6138 ,0.94033 ,2.88247 ,28.28277 
136 ,24.7898 ,0.94208 ,2.87220 ,28.18204 
137 ,24.9661 ,0.94380 ,2.85509 ,28.01415 
138 ,25.1422 ,0.94557 ,2.82087 ,27.67836 
139 ,25.3184 ,0.94737 ,2.81060 ,27.57763 
140 ,25.4940 ,0.94910 ,2.79691 ,27.44332 
141 ,25.6703 ,0.95085 ,2.79349 ,27.40974 
142 ,25.8301 ,0.95259 ,2.77296 ,27.20827 
143 ,26.0065 ,0.95425 ,2.76269 ,27.10753 
144 ,26.1987 ,0.95603 ,2.72847 ,26.77175 
145 ,26.3906 ,0.95814 ,2.71820 ,26.67101 
146 ,26.5668 ,0.95979 ,2.71820 ,26.67101 
147 ,26.7428 ,0.96161 ,2.68740 ,26.36881 
148 ,26.9185 ,0.96333 ,2.67372 ,26.23450 
149 ,27.0949 ,0.96512 ,2.65318 ,26.03303 
150 ,27.2711 ,0.96690 ,2.64634 ,25.96587 
151 ,27.4791 ,0.96885 ,2.61212 ,25.63009 
152 ,27.6552 ,0.97072 ,2.61896 ,25.69724 
153 ,27.8313 ,0.97244 ,2.60527 ,25.56293 
154 ,28.0229 ,0.97441 ,2.58474 ,25.36146 
155 ,28.1990 ,0.97618 ,2.56078 ,25.12641 
156 ,28.3751 ,0.97790 ,2.54025 ,24.92494 
157 ,28.5510 ,0.97968 ,2.53683 ,24.89136 
158 ,28.7271 ,0.98142 ,2.53341 ,24.85779 
159 ,28.9036 ,0.98322 ,2.51972 ,24.72347 
160 ,29.1117 ,0.98528 ,2.49576 ,24.48842 
161 ,29.3037 ,0.98722 ,2.46839 ,24.21980 
162 ,29.4958 ,0.98908 ,2.45470 ,24.08549 
163 ,29.6719 ,0.99086 ,2.44785 ,24.01833 
164 ,29.8479 ,0.99262 ,2.43074 ,23.85044 
165 ,30.0240 ,0.99436 ,2.41363 ,23.68255 
166 ,30.2164 ,0.99627 ,2.40679 ,23.61539 
167 ,30.4083 ,0.99827 ,2.38625 ,23.41392 
168 ,30.5844 ,1.00004 ,2.36914 ,23.24603 
169 ,30.7763 ,1.00194 ,2.35545 ,23.11171 
170 ,30.9523 ,1.00360 ,2.36230 ,23.17887 
171 ,31.1282 ,1.00542 ,2.32123 ,22.77593 
172 ,31.3045 ,1.00716 ,2.29728 ,22.54088 
173 ,31.4964 ,1.00915 ,2.29043 ,22.47373 
174 ,31.6727 ,1.01087 ,2.28359 ,22.40657 
175 ,31.8649 ,1.01281 ,2.26306 ,22.20510 
176 ,32.0570 ,1.01475 ,2.24252 ,22.00363 
177 ,32.2328 ,1.01647 ,2.23226 ,21.90290 
178 ,32.4253 ,1.01835 ,2.21857 ,21.76858 
179 ,32.6009 ,1.02016 ,2.20146 ,21.60069 
180 ,32.7932 ,1.02213 ,2.19461 ,21.53353 
181 ,32.9851 ,1.02396 ,2.17066 ,21.29849 
182 ,33.1614 ,1.02575 ,2.15012 ,21.09702 
183 ,33.3854 ,1.02782 ,2.14328 ,21.02986 
184 ,33.5613 ,1.02989 ,2.11932 ,20.79481 
185 ,33.7535 ,1.03161 ,2.12617 ,20.86197 
186 ,33.9457 ,1.03357 ,2.09537 ,20.55976 
187 ,34.1216 ,1.03537 ,2.06115 ,20.22398 
188 ,34.3296 ,1.03739 ,2.06799 ,20.29114 
189 ,34.5055 ,1.03915 ,2.04404 ,20.05609 
190 ,34.6819 ,1.04097 ,2.02350 ,19.85462 
191 ,34.8740 ,1.04281 ,2.00982 ,19.72031 
192 ,35.0660 ,1.04478 ,1.99613 ,19.58599 
193 ,35.2422 ,1.04655 ,1.97217 ,19.35094 
194 ,35.4182 ,1.04827 ,1.97559 ,19.38452 
195 ,35.5942 ,1.05004 ,1.97217 ,19.35094 
196 ,35.7864 ,1.05186 ,1.94822 ,19.11590 
197 ,35.9623 ,1.05375 ,1.92084 ,18.84727 
198 ,36.1385 ,1.05552 ,1.91057 ,18.74654 
199 ,36.3147 ,1.05731 ,1.90373 ,18.67938 
200 ,36.5063 ,1.05922 ,1.89346 ,18.57864 
201 ,36.6826 ,1.06095 ,1.85582 ,18.20928 
202 ,36.8748 ,1.06282 ,1.86608 ,18.31002 
203 ,37.0510 ,1.06466 ,1.85240 ,18.17570 
204 ,37.2429 ,1.06652 ,1.82160 ,17.87350 
205 ,37.4193 ,1.06836 ,1.80449 ,17.70561 
206 ,37.6110 ,1.07021 ,1.80449 ,17.70561 
207 ,37.8031 ,1.07213 ,1.77369 ,17.40340 
208 ,37.9951 ,1.07407 ,1.77026 ,17.36983 
209 ,38.1874 ,1.07600 ,1.74631 ,17.13478 
210 ,38.3633 ,1.07776 ,1.73946 ,17.06762 
211 ,38.5395 ,1.07951 ,1.71209 ,16.79899 
212 ,38.7157 ,1.08124 ,1.71551 ,16.83257 
213 ,38.8917 ,1.08304 ,1.71209 ,16.79899 
214 ,39.0677 ,1.08479 ,1.68471 ,16.53037 
215 ,39.2438 ,1.08655 ,1.65733 ,16.26174 
216 ,39.4359 ,1.08846 ,1.66075 ,16.29532 
217 ,39.6120 ,1.09028 ,1.66075 ,16.29532 
218 ,39.7720 ,1.09196 ,1.62995 ,15.99311 
219 ,39.9482 ,1.09358 ,1.61627 ,15.85880 
220 ,40.1243 ,1.09540 ,1.59916 ,15.69091 
221 ,40.3159 ,1.09726 ,1.59916 ,15.69091 
222 ,40.4924 ,1.09903 ,1.58204 ,15.52302 
223 ,40.6683 ,1.10094 ,1.56836 ,15.38871 
224 ,40.8444 ,1.10255 ,1.54440 ,15.15366 
225 ,41.0365 ,1.10440 ,1.52387 ,14.95219 
226 ,41.2127 ,1.10623 ,1.53756 ,15.08650 
227 ,41.3884 ,1.10799 ,1.51702 ,14.88503 
228 ,41.5807 ,1.10991 ,1.48622 ,14.58283 
229 ,41.7408 ,1.11163 ,1.47596 ,14.48209 
230 ,41.9168 ,1.11327 ,1.46569 ,14.38136 
231 ,42.0930 ,1.11504 ,1.46227 ,14.34778 
232 ,42.2850 ,1.11695 ,1.41778 ,13.91126 
233 ,42.4612 ,1.11876 ,1.40751 ,13.81053 
234 ,42.6693 ,1.12067 ,1.40067 ,13.74337 
235 ,42.8614 ,1.12273 ,1.38356 ,13.57548 
236 ,43.0533 ,1.12466 ,1.39040 ,13.64263 
237 ,43.2295 ,1.12641 ,1.36645 ,13.40759 
238 ,43.4217 ,1.12831 ,1.34934 ,13.23969 
239 ,43.5815 ,1.13001 ,1.34591 ,13.20612 
240 ,43.7574 ,1.13169 ,1.31854 ,12.93749 
241 ,43.9338 ,1.13345 ,1.31512 ,12.90391 
242 ,44.1257 ,1.13536 ,1.29116 ,12.66886 
243 ,44.3019 ,1.13713 ,1.26378 ,12.40024 
244 ,44.4940 ,1.13902 ,1.27747 ,12.53455 
245 ,44.6859 ,1.14096 ,1.25694 ,12.33308 
246 ,44.8617 ,1.14271 ,1.22272 ,11.99730 
247 ,45.0382 ,1.14450 ,1.21929 ,11.96372 
248 ,45.2302 ,1.14647 ,1.20561 ,11.82941 
249 ,45.4063 ,1.14813 ,1.19192 ,11.69509 
250 ,45.5823 ,1.14997 ,1.17481 ,11.52720 
251 ,45.7745 ,1.15189 ,1.17823 ,11.56078 
252 ,45.9506 ,1.15360 ,1.16454 ,11.42647 
253 ,46.1267 ,1.15539 ,1.15085 ,11.29215 
254 ,46.3186 ,1.15731 ,1.13032 ,11.09068 
255 ,46.4946 ,1.15902 ,1.11663 ,10.95637 
256 ,46.6869 ,1.16087 ,1.12690 ,11.05710 
257 ,46.8787 ,1.16288 ,1.09267 ,10.72132 
258 ,47.0546 ,1.16462 ,1.09267 ,10.72132 
259 ,47.2468 ,1.16660 ,1.07214 ,10.51985 
260 ,47.4391 ,1.16845 ,1.05845 ,10.38554 
261 ,47.6152 ,1.17026 ,1.03450 ,10.15049 
262 ,47.8072 ,1.17208 ,1.02081 ,10.01618 
263 ,48.0150 ,1.17408 ,1.01396 ,9.94902 
264 ,48.1914 ,1.17601 ,1.01054 ,9.91544 
265 ,48.3834 ,1.17792 ,0.97974 ,9.61324 
266 ,48.5593 ,1.17964 ,0.95921 ,9.41177 
267 ,48.7357 ,1.18147 ,0.95579 ,9.37819 
268 ,48.9277 ,1.18333 ,0.94552 ,9.27745 
269 ,49.1032 ,1.18508 ,0.92157 ,9.04241 
270 ,49.2958 ,1.18690 ,0.90788 ,8.90809 
271 ,49.4718 ,1.18880 ,0.91472 ,8.97525 
272 ,49.6480 ,1.19055 ,0.88734 ,8.70662 
273 ,49.8241 ,1.19232 ,0.86681 ,8.50515 
274 ,50.0162 ,1.19429 ,0.87023 ,8.53873 
275 ,50.1923 ,1.19598 ,0.84970 ,8.33726 
276 ,50.3839 ,1.19789 ,0.82917 ,8.13579 
277 ,50.5598 ,1.19967 ,0.80521 ,7.90074 
278 ,50.7364 ,1.20141 ,0.82232 ,8.06864 
279 ,50.9285 ,1.20336 ,0.79495 ,7.80001 
280 ,51.1045 ,1.20514 ,0.77784 ,7.63212 
281 ,51.2803 ,1.20700 ,0.77099 ,7.56496 
282 ,51.4403 ,1.20861 ,0.75046 ,7.36349 
283 ,51.6329 ,1.21027 ,0.75046 ,7.36349 
284 ,51.8408 ,1.21238 ,0.73335 ,7.19560 
285 ,52.0168 ,1.21423 ,0.72650 ,7.12844 
286 ,52.2087 ,1.21614 ,0.71281 ,6.99413 
287 ,52.3852 ,1.21792 ,0.68201 ,6.69193 
288 ,52.5772 ,1.21984 ,0.67859 ,6.65835 
289 ,52.7533 ,1.22156 ,0.67859 ,6.65835 
290 ,52.9613 ,1.22360 ,0.63753 ,6.25541 
291 ,53.1375 ,1.22543 ,0.64779 ,6.35614 
292 ,53.3131 ,1.22720 ,0.63068 ,6.18825 
293 ,53.4891 ,1.22895 ,0.63068 ,6.18825 
294 ,53.6491 ,1.23066 ,0.59304 ,5.81889 
295 ,53.8260 ,1.23235 ,0.58619 ,5.75173 
296 ,54.0498 ,1.23449 ,0.58277 ,5.71815 
297 ,54.2261 ,1.23637 ,0.56224 ,5.51668 
298 ,54.3858 ,1.23805 ,0.55197 ,5.41595 
299 ,54.5620 ,1.23971 ,0.53828 ,5.28164 
300 ,54.7541 ,1.24153 ,0.53828 ,5.28164 
301 ,54.9461 ,1.24347 ,0.50748 ,4.97943 
302 ,55.1221 ,1.24526 ,0.48353 ,4.74438 
303 ,55.3141 ,1.24711 ,0.48695 ,4.77796 
304 ,55.4903 ,1.24895 ,0.49380 ,4.84512 
305 ,55.6661 ,1.25074 ,0.47326 ,4.64365 
306 ,55.8585 ,1.25265 ,0.45273 ,4.44218 
307 ,56.0345 ,1.25436 ,0.43220 ,4.24071 
308 ,56.2107 ,1.25615 ,0.42877 ,4.20713 
309 ,56.3867 ,1.25787 ,0.41851 ,4.10640 
310 ,56.5467 ,1.25963 ,0.41166 ,4.03924 
311 ,56.7388 ,1.26131 ,0.38771 ,3.80419 
312 ,56.9148 ,1.26321 ,0.38429 ,3.77061 
313 ,57.0911 ,1.26498 ,0.37744 ,3.70346 
314 ,57.2670 ,1.26673 ,0.37060 ,3.63630 
315 ,57.4590 ,1.26863 ,0.32953 ,3.23336 
316 ,57.6511 ,1.27055 ,0.33638 ,3.30052 
317 ,57.8434 ,1.27249 ,0.31926 ,3.13263 
318 ,58.0352 ,1.27438 ,0.30558 ,2.99831 
319 ,58.2115 ,1.27613 ,0.30558 ,2.99831 
320 ,58.4038 ,1.27809 ,0.27820 ,2.72969 
321 ,58.5631 ,1.27981 ,0.26109 ,2.56179 
322 ,58.7396 ,1.28150 ,0.25767 ,2.52822 
323 ,58.9317 ,1.28333 ,0.25082 ,2.46106 
324 ,59.1078 ,1.28514 ,0.24398 ,2.39390 
325 ,59.2999 ,1.28702 ,0.22002 ,2.15885 
326 ,59.4759 ,1.28881 ,0.20291 ,1.99096 
327 ,59.6841 ,1.29077 ,0.19949 ,1.95738 
328 ,59.8761 ,1.29279 ,0.19264 ,1.89023 
329 ,60.0522 ,1.29459 ,0.17553 ,1.72234 
330 ,60.2443 ,1.29651 ,0.15842 ,1.55445 
331 ,60.4205 ,1.29825 ,0.14816 ,1.45371 
332 ,60.5959 ,1.30002 ,0.13105 ,1.28582 
333 ,60.7562 ,1.30171 ,0.13105 ,1.28582 
334 ,60.9485 ,1.30346 ,0.11051 ,1.08435 
335 ,61.1246 ,1.30533 ,0.10367 ,1.01719 
336 ,61.3006 ,1.30703 ,0.09340 ,0.91646 
337 ,61.4764 ,1.30883 ,0.07629 ,0.74857 
338 ,61.6367 ,1.31049 ,0.07629 ,0.74857 
339 ,61.8129 ,1.31214 ,0.05918 ,0.58067 
340 ,61.9889 ,1.31393 ,0.05918 ,0.58067 
341 ,62.1650 ,1.31569 ,0.04891 ,0.47994 
342 ,62.3411 ,1.31748 ,0.02838 ,0.27847 
343 ,62.5173 ,1.31919 ,0.02154 ,0.21131 
344 ,62.7091 ,1.32101 ,0.00785 ,0.07700 
345 ,62.9013 ,1.32298 ,-0.01953 ,-0.19163 
346 ,63.0931 ,1.32502 ,-0.00584 ,-0.05731 
347 ,63.2694 ,1.32674 ,-0.01953 ,-0.19163 
348 ,63.4454 ,1.32843 ,-0.02295 ,-0.22520 
349 ,63.6216 ,1.33024 ,-0.04006 ,-0.39310 
350 ,63.7974 ,1.33197 ,-0.05033 ,-0.49383 
351 ,63.9898 ,1.33381 ,-0.05717 ,-0.56099 
352 ,64.1658 ,1.33569 ,-0.07086 ,-0.69530 
353 ,64.3579 ,1.33757 ,-0.09140 ,-0.89677 
354 ,64.5340 ,1.33936 ,-0.09482 ,-0.93035 
355 ,64.7100 ,1.34111 ,-0.08797 ,-0.86319 
356 ,64.8858 ,1.34285 ,-0.10166 ,-0.99751 
357 ,65.0623 ,1.34465 ,-0.12904 ,-1.26613 
358 ,65.2383 ,1.34643 ,-0.12562 ,-1.23255 
359 ,65.4304 ,1.34834 ,-0.13246 ,-1.29971 
360 ,65.6062 ,1.35006 ,-0.14273 ,-1.40045 
361 ,65.7984 ,1.35197 ,-0.16668 ,-1.63549 
362 ,65.9742 ,1.35382 ,-0.17695 ,-1.73623 
363 ,66.1664 ,1.35560 ,-0.17011 ,-1.66907 
364 ,66.3587 ,1.35761 ,-0.19064 ,-1.87054 
365 ,66.5345 ,1.35936 ,-0.20090 ,-1.97128 
366 ,66.7109 ,1.36117 ,-0.20090 ,-1.97128 
367 ,66.9029 ,1.36306 ,-0.21802 ,-2.13917 
368 ,67.0791 ,1.36475 ,-0.23855 ,-2.34064 
369 ,67.2872 ,1.36681 ,-0.22828 ,-2.23990 
370 ,67.4632 ,1.36866 ,-0.24539 ,-2.40779 
371 ,67.6552 ,1.37057 ,-0.27619 ,-2.71000 
372 ,67.8474 ,1.37251 ,-0.26593 ,-2.60926 
373 ,68.0236 ,1.37427 ,-0.27961 ,-2.74358 
374 ,68.1992 ,1.37602 ,-0.29330 ,-2.87789 
375 ,68.3912 ,1.37793 ,-0.29330 ,-2.87789 
376 ,68.5673 ,1.37962 ,-0.30015 ,-2.94505 
377 ,68.7435 ,1.38143 ,-0.30357 ,-2.97863 
378 ,68.9037 ,1.38312 ,-0.33437 ,-3.28083 
379 ,69.0955 ,1.38497 ,-0.34464 ,-3.38156 
380 ,69.2719 ,1.38672 ,-0.34806 ,-3.41514 
381 ,69.4801 ,1.38869 ,-0.35490 ,-3.48230 
382 ,69.6558 ,1.39063 ,-0.36175 ,-3.54946 
383 ,69.8321 ,1.39232 ,-0.38570 ,-3.78450 
384 ,70.0082 ,1.39404 ,-0.37886 ,-3.71735 
385 ,70.1840 ,1.39581 ,-0.39255 ,-3.85166 
386 ,70.3603 ,1.39759 ,-0.39255 ,-3.85166 
387 ,70.5524 ,1.39946 ,-0.39939 ,-3.91882 
388 ,70.7446 ,1.40137 ,-0.40966 ,-4.01955 
389 ,70.9208 ,1.40325 ,-0.41992 ,-4.12029 
390 ,71.1127 ,1.40507 ,-0.44046 ,-4.32176 
391 ,71.3048 ,1.40704 ,-0.42677 ,-4.18744 
392 ,71.4969 ,1.40895 ,-0.47810 ,-4.69112 
393 ,71.6730 ,1.41072 ,-0.47126 ,-4.62396 
394 ,71.8649 ,1.41262 ,-0.46783 ,-4.59038 
395 ,72.0411 ,1.41441 ,-0.47468 ,-4.65754 
396 ,72.2174 ,1.41618 ,-0.50890 ,-4.99332 
397 ,72.4093 ,1.41804 ,-0.49863 ,-4.89259 
398 ,72.5852 ,1.41982 ,-0.50548 ,-4.95975 
399 ,72.7615 ,1.42160 ,-0.52259 ,-5.12764 
400 ,72.9374 ,1.42336 ,-0.54312 ,-5.32911 
401 ,73.1134 ,1.42513 ,-0.53628 ,-5.26195 
402 ,73.2896 ,1.42686 ,-0.53970 ,-5.29553 
403 ,73.4657 ,1.42862 ,-0.55339 ,-5.42984 
404 ,73.6414 ,1.43043 ,-0.56708 ,-5.56415 
405 ,73.8179 ,1.43212 ,-0.57734 ,-5.66489 
406 ,73.9940 ,1.43396 ,-0.59103 ,-5.79920 
407 ,74.1860 ,1.43574 ,-0.59103 ,-5.79920 
408 ,74.3779 ,1.43766 ,-0.60130 ,-5.89994 
409 ,74.5543 ,1.43956 ,-0.62525 ,-6.13499 
410 ,74.7463 ,1.44144 ,-0.61156 ,-6.00067 
411 ,74.9223 ,1.44321 ,-0.61841 ,-6.06783 
412 ,75.0984 ,1.44493 ,-0.64236 ,-6.30288 
413 ,75.2747 ,1.44673 ,-0.64921 ,-6.37003 
414 ,75.4984 ,1.44878 ,-0.65947 ,-6.47077 
415 ,75.6746 ,1.45068 ,-0.67316 ,-6.60508 
416 ,75.8506 ,1.45245 ,-0.66974 ,-6.57150 
417 ,76.0428 ,1.45429 ,-0.67316 ,-6.60508 
418 ,76.2348 ,1.45633 ,-0.69712 ,-6.84013 
419 ,76.4109 ,1.45804 ,-0.69712 ,-6.84013 
420 ,76.6029 ,1.45998 ,-0.71423 ,-7.00802 
421 ,76.7787 ,1.46177 ,-0.72107 ,-7.07518 
422 ,76.9710 ,1.46360 ,-0.73818 ,-7.24307 
423 ,77.1473 ,1.46546 ,-0.72792 ,-7.14233 
424 ,77.3235 ,1.46723 ,-0.73134 ,-7.17591 
425 ,77.5153 ,1.46909 ,-0.75187 ,-7.37738 
426 ,77.6912 ,1.47095 ,-0.75187 ,-7.37738 
427 ,77.8676 ,1.47267 ,-0.76898 ,-7.54527 
428 ,78.0596 ,1.47459 ,-0.78267 ,-7.67959 
429 ,78.2677 ,1.47658 ,-0.79294 ,-7.78032 
430 ,78.4437 ,1.47841 ,-0.79978 ,-7.84748 
431 ,78.6194 ,1.48015 ,-0.81347 ,-7.98179 
432 ,78.7959 ,1.48196 ,-0.82374 ,-8.08253 
433 ,78.9720 ,1.48370 ,-0.82374 ,-8.08253 
434 ,79.1641 ,1.48563 ,-0.82716 ,-8.11611 
435 ,79.3399 ,1.48738 ,-0.84085 ,-8.25042 
436 ,79.5322 ,1.48918 ,-0.85796 ,-8.41831 
437 ,79.7242 ,1.49120 ,-0.85112 ,-8.35115 
438 ,79.9003 ,1.49297 ,-0.87849 ,-8.61978 
439 ,80.0761 ,1.49477 ,-0.88192 ,-8.65336 
440 ,80.2525 ,1.49649 ,-0.89560 ,-8.78767 
441 ,80.4442 ,1.49841 ,-0.89560 ,-8.78767 
442 ,80.6366 ,1.50025 ,-0.89903 ,-8.82125 
443 ,80.8285 ,1.50222 ,-0.90587 ,-8.88841 
444 ,81.0207 ,1.50414 ,-0.92983 ,-9.12345 
445 ,81.1967 ,1.50593 ,-0.93667 ,-9.19061 
446 ,81.3889 ,1.50781 ,-0.93325 ,-9.15703 
447 ,81.5650 ,1.50956 ,-0.94009 ,-9.22419 
448 ,81.7412 ,1.51137 ,-0.96063 ,-9.42566 
449 ,81.9332 ,1.51329 ,-0.98458 ,-9.66071 
450 ,82.1251 ,1.51517 ,-0.97774 ,-9.59355 
451 ,82.3011 ,1.51694 ,-0.98800 ,-9.69429 
452 ,82.4773 ,1.51870 ,-1.01196 ,-9.92933 
453 ,82.6531 ,1.52045 ,-1.00169 ,-9.82860 
454 ,82.8293 ,1.52224 ,-1.00854 ,-9.89576 
455 ,83.0056 ,1.52405 ,-1.01538 ,-9.96291 
456 ,83.2135 ,1.52599 ,-1.03934 ,-10.19796 
457 ,83.3897 ,1.52782 ,-1.02907 ,-10.09723 
458 ,83.5657 ,1.52956 ,-1.03934 ,-10.19796 
459 ,83.7577 ,1.53151 ,-1.05987 ,-10.39943 
460 ,83.9336 ,1.53336 ,-1.07014 ,-10.50016 
461 ,84.1100 ,1.53501 ,-1.05645 ,-10.36585 
462 ,84.2860 ,1.53683 ,-1.07014 ,-10.50016 
