Data stamp = , 31-03-2022 20:51:49 470

Calibration Values: 
Slope = , 26.54 , g/V 
Offset Voltage at no contact = , -0.501760 , V 

No , Time , Stage Position ,   Mass , Force 
   ,  (s) ,      (mm)      ,   (g)  , (mN)  

1 ,0.0000 ,0.69945 ,5.02474 ,49.30279 
2 ,0.2156 ,0.69948 ,5.03159 ,49.36995 
3 ,0.5361 ,0.70033 ,5.02817 ,49.33637 
4 ,0.7281 ,0.70183 ,5.03501 ,49.40352 
5 ,0.9200 ,0.70339 ,5.02474 ,49.30279 
6 ,1.1120 ,0.70522 ,5.03843 ,49.43710 
7 ,1.2879 ,0.70697 ,5.04870 ,49.53784 
8 ,1.4643 ,0.70878 ,5.02132 ,49.26921 
9 ,1.6405 ,0.71060 ,5.02132 ,49.26921 
10 ,1.8325 ,0.71251 ,5.01448 ,49.20205 
11 ,2.0086 ,0.71430 ,5.00763 ,49.13490 
12 ,2.1847 ,0.71602 ,4.97341 ,48.79911 
13 ,2.3604 ,0.71782 ,4.96315 ,48.69838 
14 ,2.5366 ,0.71952 ,4.95288 ,48.59764 
15 ,2.7126 ,0.72133 ,4.95972 ,48.66480 
16 ,2.8887 ,0.72308 ,4.92550 ,48.32902 
17 ,3.0651 ,0.72481 ,4.90497 ,48.12755 
18 ,3.2411 ,0.72659 ,4.88786 ,47.95966 
19 ,3.4331 ,0.72846 ,4.89128 ,47.99324 
20 ,3.6091 ,0.73028 ,4.88101 ,47.89250 
21 ,3.8013 ,0.73219 ,4.84337 ,47.52314 
22 ,3.9773 ,0.73391 ,4.83995 ,47.48956 
23 ,4.1694 ,0.73577 ,4.83310 ,47.42240 
24 ,4.3775 ,0.73787 ,4.79888 ,47.08662 
25 ,4.5695 ,0.73983 ,4.78177 ,46.91873 
26 ,4.7617 ,0.74176 ,4.75782 ,46.68368 
27 ,4.9697 ,0.74381 ,4.74070 ,46.51579 
28 ,5.1458 ,0.74563 ,4.73044 ,46.41506 
29 ,5.3219 ,0.74738 ,4.70306 ,46.14643 
30 ,5.5142 ,0.74930 ,4.69622 ,46.07927 
31 ,5.6898 ,0.75103 ,4.68937 ,46.01212 
32 ,5.8661 ,0.75286 ,4.65857 ,45.70991 
33 ,6.0421 ,0.75458 ,4.64146 ,45.54202 
34 ,6.2342 ,0.75640 ,4.60724 ,45.20624 
35 ,6.4103 ,0.75822 ,4.61066 ,45.23981 
36 ,6.5863 ,0.76000 ,4.58671 ,45.00477 
37 ,6.7623 ,0.76176 ,4.55591 ,44.70256 
38 ,6.9545 ,0.76361 ,4.54222 ,44.56825 
39 ,7.1626 ,0.76573 ,4.52169 ,44.36678 
40 ,7.3387 ,0.76755 ,4.50115 ,44.16531 
41 ,7.5149 ,0.76930 ,4.49089 ,44.06457 
42 ,7.7070 ,0.77122 ,4.48404 ,43.99742 
43 ,7.9148 ,0.77322 ,4.43955 ,43.56090 
44 ,8.0911 ,0.77508 ,4.43271 ,43.49374 
45 ,8.2671 ,0.77686 ,4.41902 ,43.35943 
46 ,8.4431 ,0.77855 ,4.39507 ,43.12438 
47 ,8.6190 ,0.78033 ,4.37453 ,42.92291 
48 ,8.8113 ,0.78224 ,4.37453 ,42.92291 
49 ,8.9874 ,0.78400 ,4.35400 ,42.72144 
50 ,9.1635 ,0.78583 ,4.33004 ,42.48639 
51 ,9.3396 ,0.78753 ,4.30951 ,42.28492 
52 ,9.5159 ,0.78932 ,4.29240 ,42.11703 
53 ,9.6914 ,0.79112 ,4.27529 ,41.94914 
54 ,9.8678 ,0.79281 ,4.27187 ,41.91556 
55 ,10.0598 ,0.79475 ,4.22738 ,41.47905 
56 ,10.2360 ,0.79651 ,4.22396 ,41.44547 
57 ,10.4118 ,0.79827 ,4.22396 ,41.44547 
58 ,10.5717 ,0.80001 ,4.20342 ,41.24400 
59 ,10.7480 ,0.80168 ,4.17262 ,40.94179 
60 ,10.9403 ,0.80358 ,4.15209 ,40.74032 
61 ,11.1484 ,0.80561 ,4.15894 ,40.80748 
62 ,11.3244 ,0.80738 ,4.11787 ,40.40454 
63 ,11.5002 ,0.80912 ,4.10076 ,40.23665 
64 ,11.6766 ,0.81091 ,4.08365 ,40.06876 
65 ,11.8523 ,0.81273 ,4.06312 ,39.86729 
66 ,12.0286 ,0.81442 ,4.05285 ,39.76655 
67 ,12.2048 ,0.81619 ,4.02547 ,39.49793 
68 ,12.3807 ,0.81792 ,4.01178 ,39.36361 
69 ,12.5567 ,0.81970 ,4.00152 ,39.26288 
70 ,12.7329 ,0.82143 ,3.99125 ,39.16214 
71 ,12.9088 ,0.82330 ,3.95361 ,38.79278 
72 ,13.0851 ,0.82502 ,3.95703 ,38.82636 
73 ,13.2771 ,0.82696 ,3.93650 ,38.62489 
74 ,13.4533 ,0.82871 ,3.91938 ,38.45700 
75 ,13.6454 ,0.83056 ,3.89885 ,38.25553 
76 ,13.8374 ,0.83248 ,3.87832 ,38.05406 
77 ,14.0136 ,0.83428 ,3.87147 ,37.98690 
78 ,14.1895 ,0.83601 ,3.85094 ,37.78543 
79 ,14.3656 ,0.83774 ,3.83725 ,37.65112 
80 ,14.5415 ,0.83954 ,3.79619 ,37.24818 
81 ,14.7177 ,0.84130 ,3.79276 ,37.21460 
82 ,14.8778 ,0.84302 ,3.78250 ,37.11387 
83 ,15.0374 ,0.84464 ,3.76539 ,36.94597 
84 ,15.1976 ,0.84623 ,3.75512 ,36.84524 
85 ,15.3575 ,0.84783 ,3.72432 ,36.54303 
86 ,15.5341 ,0.84949 ,3.72090 ,36.50946 
87 ,15.7583 ,0.85158 ,3.68325 ,36.14010 
88 ,15.9502 ,0.85363 ,3.69010 ,36.20725 
89 ,16.1101 ,0.85532 ,3.66614 ,35.97220 
90 ,16.2863 ,0.85694 ,3.64903 ,35.80431 
91 ,16.4626 ,0.85875 ,3.62508 ,35.56926 
92 ,16.6385 ,0.86053 ,3.58743 ,35.19990 
93 ,16.8146 ,0.86228 ,3.59770 ,35.30064 
94 ,17.0066 ,0.86421 ,3.57717 ,35.09917 
95 ,17.1827 ,0.86590 ,3.54979 ,34.83054 
96 ,17.3588 ,0.86768 ,3.53952 ,34.72981 
97 ,17.5510 ,0.86961 ,3.52926 ,34.62907 
98 ,17.7268 ,0.87140 ,3.51899 ,34.52834 
99 ,17.9194 ,0.87329 ,3.48819 ,34.22613 
100 ,18.1111 ,0.87529 ,3.48477 ,34.19255 
101 ,18.2870 ,0.87694 ,3.46081 ,33.95751 
102 ,18.4791 ,0.87891 ,3.43001 ,33.65530 
103 ,18.6554 ,0.88064 ,3.42659 ,33.62172 
104 ,18.8793 ,0.88281 ,3.38553 ,33.21878 
105 ,19.0554 ,0.88466 ,3.38210 ,33.18520 
106 ,19.2311 ,0.88638 ,3.36842 ,33.05089 
107 ,19.4075 ,0.88821 ,3.34788 ,32.84942 
108 ,19.5834 ,0.88993 ,3.32393 ,32.61437 
109 ,19.7596 ,0.89170 ,3.29997 ,32.37933 
110 ,19.9358 ,0.89347 ,3.28628 ,32.24501 
111 ,20.1118 ,0.89519 ,3.28971 ,32.27859 
112 ,20.2877 ,0.89699 ,3.26917 ,32.07712 
113 ,20.4641 ,0.89877 ,3.24522 ,31.84207 
114 ,20.6402 ,0.90051 ,3.22811 ,31.67418 
115 ,20.8163 ,0.90233 ,3.20415 ,31.43913 
116 ,20.9918 ,0.90401 ,3.19388 ,31.33840 
117 ,21.1684 ,0.90577 ,3.19046 ,31.30482 
118 ,21.3600 ,0.90781 ,3.15282 ,30.93546 
119 ,21.5366 ,0.90946 ,3.15282 ,30.93546 
120 ,21.7126 ,0.91128 ,3.12544 ,30.66683 
121 ,21.8886 ,0.91298 ,3.12544 ,30.66683 
122 ,22.0808 ,0.91479 ,3.09122 ,30.33105 
123 ,22.2568 ,0.91673 ,3.05700 ,29.99527 
124 ,22.4491 ,0.91860 ,3.07411 ,30.16316 
125 ,22.6411 ,0.92056 ,3.03304 ,29.76022 
126 ,22.8167 ,0.92227 ,3.01935 ,29.62590 
127 ,22.9931 ,0.92399 ,3.00909 ,29.52517 
128 ,23.1691 ,0.92577 ,2.99882 ,29.42444 
129 ,23.3453 ,0.92757 ,2.98513 ,29.29012 
130 ,23.5213 ,0.92932 ,2.95433 ,28.98792 
131 ,23.7136 ,0.93120 ,2.94749 ,28.92076 
132 ,23.9055 ,0.93311 ,2.91327 ,28.58498 
133 ,24.0816 ,0.93489 ,2.89616 ,28.41709 
134 ,24.2737 ,0.93686 ,2.88589 ,28.31635 
135 ,24.4493 ,0.93858 ,2.87905 ,28.24919 
136 ,24.6257 ,0.94039 ,2.86193 ,28.08130 
137 ,24.8178 ,0.94222 ,2.83114 ,27.77910 
138 ,24.9939 ,0.94404 ,2.81745 ,27.64479 
139 ,25.1861 ,0.94590 ,2.80034 ,27.47689 
140 ,25.3621 ,0.94773 ,2.77980 ,27.27542 
141 ,25.5218 ,0.94947 ,2.76269 ,27.10753 
142 ,25.6982 ,0.95108 ,2.75585 ,27.04038 
143 ,25.8743 ,0.95279 ,2.74216 ,26.90606 
144 ,26.0504 ,0.95458 ,2.72163 ,26.70459 
145 ,26.2260 ,0.95633 ,2.71820 ,26.67101 
146 ,26.4023 ,0.95810 ,2.68740 ,26.36881 
147 ,26.5783 ,0.95986 ,2.67029 ,26.20092 
148 ,26.7547 ,0.96162 ,2.66345 ,26.13376 
149 ,26.9468 ,0.96356 ,2.66003 ,26.10018 
150 ,27.1387 ,0.96547 ,2.60869 ,25.59651 
151 ,27.3150 ,0.96725 ,2.61554 ,25.66367 
152 ,27.4909 ,0.96901 ,2.61554 ,25.66367 
153 ,27.6506 ,0.97067 ,2.58474 ,25.36146 
154 ,27.8271 ,0.97231 ,2.57105 ,25.22715 
155 ,28.0034 ,0.97411 ,2.54710 ,24.99210 
156 ,28.1950 ,0.97596 ,2.53341 ,24.85779 
157 ,28.3713 ,0.97777 ,2.54025 ,24.92494 
158 ,28.5634 ,0.97964 ,2.50261 ,24.55558 
159 ,28.7553 ,0.98169 ,2.49576 ,24.48842 
160 ,28.9474 ,0.98350 ,2.47523 ,24.28696 
161 ,29.1235 ,0.98534 ,2.46154 ,24.15264 
162 ,29.2994 ,0.98712 ,2.44443 ,23.98475 
163 ,29.4757 ,0.98889 ,2.43074 ,23.85044 
164 ,29.6518 ,0.99061 ,2.42048 ,23.74970 
165 ,29.8278 ,0.99229 ,2.40336 ,23.58181 
166 ,30.0040 ,0.99414 ,2.39310 ,23.48108 
167 ,30.1800 ,0.99585 ,2.36230 ,23.17887 
168 ,30.3560 ,0.99761 ,2.35545 ,23.11171 
169 ,30.5321 ,0.99933 ,2.35203 ,23.07814 
170 ,30.7083 ,1.00114 ,2.33834 ,22.94382 
171 ,30.9002 ,1.00300 ,2.30412 ,22.60804 
172 ,31.0923 ,1.00497 ,2.29728 ,22.54088 
173 ,31.2684 ,1.00678 ,2.29043 ,22.47373 
174 ,31.4446 ,1.00854 ,2.26306 ,22.20510 
175 ,31.6206 ,1.01032 ,2.25279 ,22.10437 
176 ,31.8124 ,1.01217 ,2.23226 ,21.90290 
177 ,31.9888 ,1.01396 ,2.23226 ,21.90290 
178 ,32.1649 ,1.01571 ,2.20146 ,21.60069 
179 ,32.3570 ,1.01762 ,2.18777 ,21.46638 
180 ,32.5331 ,1.01941 ,2.17750 ,21.36564 
181 ,32.7250 ,1.02132 ,2.16039 ,21.19775 
182 ,32.9006 ,1.02306 ,2.13644 ,20.96270 
183 ,33.0772 ,1.02479 ,2.12275 ,20.82839 
184 ,33.2692 ,1.02676 ,2.12959 ,20.89555 
185 ,33.4453 ,1.02850 ,2.09879 ,20.59334 
186 ,33.6211 ,1.03026 ,2.07141 ,20.32472 
187 ,33.7975 ,1.03202 ,2.06115 ,20.22398 
188 ,33.9894 ,1.03390 ,2.06115 ,20.22398 
189 ,34.1656 ,1.03571 ,2.03377 ,19.95535 
190 ,34.3417 ,1.03749 ,2.01666 ,19.78746 
191 ,34.5338 ,1.03943 ,2.02008 ,19.82104 
192 ,34.7258 ,1.04129 ,1.99955 ,19.61957 
193 ,34.9019 ,1.04303 ,1.97559 ,19.38452 
194 ,35.0781 ,1.04494 ,1.97559 ,19.38452 
195 ,35.2700 ,1.04673 ,1.95848 ,19.21663 
196 ,35.4462 ,1.04849 ,1.93453 ,18.98158 
197 ,35.6382 ,1.05042 ,1.91057 ,18.74654 
198 ,35.8300 ,1.05236 ,1.91399 ,18.78011 
199 ,36.0064 ,1.05412 ,1.89346 ,18.57864 
200 ,36.1985 ,1.05598 ,1.87635 ,18.41075 
201 ,36.3905 ,1.05794 ,1.86266 ,18.27644 
202 ,36.5665 ,1.05973 ,1.85240 ,18.17570 
203 ,36.7427 ,1.06142 ,1.82502 ,17.90708 
204 ,36.9190 ,1.06321 ,1.80106 ,17.67203 
205 ,37.0943 ,1.06499 ,1.78395 ,17.50414 
206 ,37.2706 ,1.06674 ,1.78737 ,17.53772 
207 ,37.4627 ,1.06856 ,1.77711 ,17.43698 
208 ,37.6550 ,1.07050 ,1.75657 ,17.23551 
209 ,37.8469 ,1.07253 ,1.73262 ,17.00046 
210 ,38.0230 ,1.07426 ,1.71893 ,16.86615 
211 ,38.1991 ,1.07598 ,1.70524 ,16.73184 
212 ,38.4073 ,1.07802 ,1.70866 ,16.76542 
213 ,38.5993 ,1.08001 ,1.68129 ,16.49679 
214 ,38.7913 ,1.08203 ,1.65733 ,16.26174 
215 ,38.9674 ,1.08368 ,1.65049 ,16.19458 
216 ,39.1433 ,1.08547 ,1.61969 ,15.89238 
217 ,39.3356 ,1.08735 ,1.61627 ,15.85880 
218 ,39.5438 ,1.08942 ,1.59231 ,15.62375 
219 ,39.7199 ,1.09124 ,1.57520 ,15.45586 
220 ,39.9278 ,1.09323 ,1.57178 ,15.42228 
221 ,40.1199 ,1.09512 ,1.54782 ,15.18724 
222 ,40.2960 ,1.09696 ,1.53413 ,15.05292 
223 ,40.4721 ,1.09881 ,1.54098 ,15.12008 
224 ,40.6481 ,1.10051 ,1.51702 ,14.88503 
225 ,40.8242 ,1.10228 ,1.48965 ,14.61640 
226 ,40.9842 ,1.10400 ,1.48280 ,14.54925 
227 ,41.1603 ,1.10563 ,1.47253 ,14.44851 
228 ,41.3361 ,1.10736 ,1.46227 ,14.34778 
229 ,41.4964 ,1.10905 ,1.46569 ,14.38136 
230 ,41.6725 ,1.11077 ,1.44174 ,14.14631 
231 ,41.8647 ,1.11270 ,1.41094 ,13.84410 
232 ,42.0406 ,1.11445 ,1.39725 ,13.70979 
233 ,42.2168 ,1.11617 ,1.39040 ,13.64263 
234 ,42.3926 ,1.11796 ,1.38014 ,13.54190 
235 ,42.5849 ,1.11975 ,1.36303 ,13.37401 
236 ,42.7611 ,1.12160 ,1.34249 ,13.17254 
237 ,42.9530 ,1.12354 ,1.34591 ,13.20612 
238 ,43.1291 ,1.12531 ,1.33565 ,13.10538 
239 ,43.3053 ,1.12706 ,1.29116 ,12.66886 
240 ,43.4813 ,1.12882 ,1.28432 ,12.60171 
241 ,43.6572 ,1.13063 ,1.27063 ,12.46739 
242 ,43.8333 ,1.13236 ,1.28089 ,12.56813 
243 ,44.0252 ,1.13426 ,1.23983 ,12.16519 
244 ,44.2177 ,1.13611 ,1.23641 ,12.13161 
245 ,44.3934 ,1.13796 ,1.22272 ,11.99730 
246 ,44.5858 ,1.13979 ,1.20561 ,11.82941 
247 ,44.7616 ,1.14165 ,1.18165 ,11.59436 
248 ,44.9538 ,1.14353 ,1.19192 ,11.69509 
249 ,45.1299 ,1.14530 ,1.16112 ,11.39289 
250 ,45.3058 ,1.14708 ,1.14743 ,11.25857 
251 ,45.4818 ,1.14880 ,1.13032 ,11.09068 
252 ,45.6421 ,1.15054 ,1.11321 ,10.92279 
253 ,45.8184 ,1.15215 ,1.10979 ,10.88921 
254 ,46.0103 ,1.15412 ,1.12005 ,10.98995 
255 ,46.1865 ,1.15589 ,1.07556 ,10.55343 
256 ,46.3786 ,1.15780 ,1.06530 ,10.45270 
257 ,46.5544 ,1.15953 ,1.05503 ,10.35196 
258 ,46.7306 ,1.16126 ,1.04819 ,10.28480 
259 ,46.9228 ,1.16328 ,1.00712 ,9.88186 
260 ,47.1149 ,1.16516 ,1.02081 ,10.01618 
261 ,47.3069 ,1.16707 ,0.99001 ,9.71397 
262 ,47.4830 ,1.16886 ,0.98659 ,9.68039 
263 ,47.6750 ,1.17069 ,0.97974 ,9.61324 
264 ,47.8829 ,1.17276 ,0.95579 ,9.37819 
265 ,48.0592 ,1.17460 ,0.93525 ,9.17672 
266 ,48.2351 ,1.17636 ,0.92499 ,9.07598 
267 ,48.4111 ,1.17811 ,0.93183 ,9.14314 
268 ,48.5874 ,1.17988 ,0.91130 ,8.94167 
269 ,48.7794 ,1.18171 ,0.90103 ,8.84094 
270 ,48.9555 ,1.18355 ,0.87366 ,8.57231 
271 ,49.1314 ,1.18523 ,0.87366 ,8.57231 
272 ,49.3237 ,1.18718 ,0.85312 ,8.37084 
273 ,49.5158 ,1.18919 ,0.84286 ,8.27011 
274 ,49.6914 ,1.19091 ,0.83601 ,8.20295 
275 ,49.8679 ,1.19267 ,0.81206 ,7.96790 
276 ,50.0439 ,1.19444 ,0.79495 ,7.80001 
277 ,50.2198 ,1.19622 ,0.77441 ,7.59854 
278 ,50.3961 ,1.19794 ,0.78126 ,7.66570 
279 ,50.5722 ,1.19971 ,0.77784 ,7.63212 
280 ,50.7478 ,1.20161 ,0.74704 ,7.32991 
281 ,50.9241 ,1.20321 ,0.72992 ,7.16202 
282 ,51.1164 ,1.20509 ,0.72308 ,7.09486 
283 ,51.3084 ,1.20707 ,0.72308 ,7.09486 
284 ,51.4841 ,1.20884 ,0.68886 ,6.75908 
285 ,51.6605 ,1.21059 ,0.67859 ,6.65835 
286 ,51.8203 ,1.21229 ,0.67859 ,6.65835 
287 ,51.9967 ,1.21397 ,0.65464 ,6.42330 
288 ,52.1728 ,1.21570 ,0.65121 ,6.38972 
289 ,52.3489 ,1.21751 ,0.65121 ,6.38972 
290 ,52.5246 ,1.21927 ,0.61699 ,6.05394 
291 ,52.7009 ,1.22102 ,0.60330 ,5.91962 
292 ,52.8769 ,1.22271 ,0.59304 ,5.81889 
293 ,53.0530 ,1.22448 ,0.59304 ,5.81889 
294 ,53.2291 ,1.22626 ,0.57593 ,5.65100 
295 ,53.4053 ,1.22802 ,0.55882 ,5.48311 
296 ,53.5974 ,1.22984 ,0.54171 ,5.31522 
297 ,53.7893 ,1.23184 ,0.53486 ,5.24806 
298 ,53.9655 ,1.23362 ,0.52117 ,5.11375 
299 ,54.1416 ,1.23538 ,0.50406 ,4.94585 
300 ,54.3178 ,1.23719 ,0.49380 ,4.84512 
301 ,54.4937 ,1.23891 ,0.48353 ,4.74438 
302 ,54.6857 ,1.24083 ,0.46984 ,4.61007 
303 ,54.8620 ,1.24258 ,0.45273 ,4.44218 
304 ,55.0698 ,1.24459 ,0.44246 ,4.34144 
305 ,55.2462 ,1.24641 ,0.42877 ,4.20713 
306 ,55.4221 ,1.24816 ,0.40482 ,3.97208 
307 ,55.5978 ,1.24996 ,0.39797 ,3.90493 
308 ,55.7743 ,1.25168 ,0.40482 ,3.97208 
309 ,55.9502 ,1.25348 ,0.39113 ,3.83777 
310 ,56.1424 ,1.25532 ,0.35691 ,3.50199 
311 ,56.3185 ,1.25716 ,0.35349 ,3.46841 
312 ,56.5106 ,1.25911 ,0.35349 ,3.46841 
313 ,56.7025 ,1.26098 ,0.33295 ,3.26694 
314 ,56.8944 ,1.26287 ,0.33638 ,3.30052 
315 ,57.0702 ,1.26474 ,0.32269 ,3.16620 
316 ,57.2628 ,1.26647 ,0.29873 ,2.93116 
317 ,57.4550 ,1.26839 ,0.28504 ,2.79684 
318 ,57.6469 ,1.27041 ,0.27135 ,2.66253 
319 ,57.8230 ,1.27218 ,0.25424 ,2.49464 
320 ,57.9992 ,1.27398 ,0.24055 ,2.36032 
321 ,58.1912 ,1.27586 ,0.24398 ,2.39390 
322 ,58.3672 ,1.27769 ,0.22687 ,2.22601 
323 ,58.5593 ,1.27954 ,0.21318 ,2.09170 
324 ,58.7354 ,1.28128 ,0.19949 ,1.95738 
325 ,58.9274 ,1.28317 ,0.18580 ,1.82307 
326 ,59.1037 ,1.28501 ,0.17553 ,1.72234 
327 ,59.3117 ,1.28699 ,0.17211 ,1.68876 
328 ,59.4877 ,1.28896 ,0.14131 ,1.38655 
329 ,59.6639 ,1.29061 ,0.14473 ,1.42013 
330 ,59.8718 ,1.29253 ,0.15500 ,1.52087 
331 ,60.0641 ,1.29447 ,0.12420 ,1.21866 
332 ,60.2399 ,1.29634 ,0.10025 ,0.98361 
333 ,60.4320 ,1.29825 ,0.09682 ,0.95004 
334 ,60.6080 ,1.30002 ,0.08998 ,0.88288 
335 ,60.8001 ,1.30186 ,0.07287 ,0.71499 
336 ,60.9762 ,1.30370 ,0.06260 ,0.61425 
337 ,61.1524 ,1.30543 ,0.06602 ,0.64783 
338 ,61.3284 ,1.30725 ,0.05576 ,0.54710 
339 ,61.5202 ,1.30913 ,0.02496 ,0.24489 
340 ,61.6966 ,1.31093 ,0.01127 ,0.11058 
341 ,61.8887 ,1.31286 ,0.01811 ,0.17773 
342 ,62.0646 ,1.31463 ,-0.00242 ,-0.02373 
343 ,62.2725 ,1.31658 ,-0.01269 ,-0.12447 
344 ,62.4489 ,1.31843 ,-0.01269 ,-0.12447 
345 ,62.6408 ,1.32033 ,-0.04691 ,-0.46025 
346 ,62.8171 ,1.32209 ,-0.04691 ,-0.46025 
347 ,62.9931 ,1.32391 ,-0.04006 ,-0.39310 
348 ,63.1852 ,1.32576 ,-0.07771 ,-0.76246 
349 ,63.3612 ,1.32751 ,-0.08113 ,-0.79604 
350 ,63.5373 ,1.32932 ,-0.07428 ,-0.72888 
351 ,63.7292 ,1.33127 ,-0.08455 ,-0.82961 
352 ,63.9054 ,1.33301 ,-0.10508 ,-1.03108 
353 ,64.0814 ,1.33473 ,-0.12904 ,-1.26613 
354 ,64.2576 ,1.33651 ,-0.12904 ,-1.26613 
355 ,64.4336 ,1.33821 ,-0.12219 ,-1.19898 
356 ,64.6098 ,1.34000 ,-0.14957 ,-1.46760 
357 ,64.7860 ,1.34178 ,-0.15642 ,-1.53476 
358 ,64.9780 ,1.34371 ,-0.16326 ,-1.60191 
359 ,65.1539 ,1.34547 ,-0.17695 ,-1.73623 
360 ,65.3300 ,1.34722 ,-0.17695 ,-1.73623 
361 ,65.5061 ,1.34901 ,-0.19064 ,-1.87054 
362 ,65.6823 ,1.35075 ,-0.20090 ,-1.97128 
363 ,65.8583 ,1.35254 ,-0.22486 ,-2.20632 
364 ,66.0342 ,1.35427 ,-0.21802 ,-2.13917 
365 ,66.2424 ,1.35627 ,-0.24197 ,-2.37422 
366 ,66.4184 ,1.35806 ,-0.23513 ,-2.30706 
367 ,66.5944 ,1.35986 ,-0.24539 ,-2.40779 
368 ,66.8025 ,1.36187 ,-0.25908 ,-2.54211 
369 ,66.9787 ,1.36372 ,-0.27277 ,-2.67642 
370 ,67.1866 ,1.36566 ,-0.27961 ,-2.74358 
371 ,67.3629 ,1.36758 ,-0.30357 ,-2.97863 
372 ,67.5547 ,1.36936 ,-0.31041 ,-3.04578 
373 ,67.7308 ,1.37124 ,-0.30357 ,-2.97863 
374 ,67.9230 ,1.37316 ,-0.32752 ,-3.21367 
375 ,68.1153 ,1.37506 ,-0.32068 ,-3.14652 
376 ,68.2912 ,1.37681 ,-0.33095 ,-3.24725 
377 ,68.4669 ,1.37873 ,-0.35832 ,-3.51588 
378 ,68.6430 ,1.38038 ,-0.36859 ,-3.61661 
379 ,68.8195 ,1.38219 ,-0.35832 ,-3.51588 
380 ,69.0114 ,1.38404 ,-0.36859 ,-3.61661 
381 ,69.1876 ,1.38577 ,-0.38912 ,-3.81808 
382 ,69.3796 ,1.38772 ,-0.39597 ,-3.88524 
383 ,69.5557 ,1.38944 ,-0.39939 ,-3.91882 
384 ,69.7478 ,1.39140 ,-0.40966 ,-4.01955 
385 ,69.9238 ,1.39312 ,-0.42677 ,-4.18744 
386 ,70.1159 ,1.39497 ,-0.44046 ,-4.32176 
387 ,70.2921 ,1.39683 ,-0.43361 ,-4.25460 
388 ,70.4677 ,1.39860 ,-0.45414 ,-4.45607 
389 ,70.6438 ,1.40032 ,-0.46441 ,-4.55681 
390 ,70.8203 ,1.40208 ,-0.48152 ,-4.72470 
391 ,71.0440 ,1.40412 ,-0.47468 ,-4.65754 
392 ,71.2205 ,1.40612 ,-0.48837 ,-4.79185 
393 ,71.3965 ,1.40782 ,-0.49521 ,-4.85901 
394 ,71.5886 ,1.40984 ,-0.50206 ,-4.92617 
395 ,71.7645 ,1.41167 ,-0.52943 ,-5.19479 
396 ,71.9407 ,1.41335 ,-0.53970 ,-5.29553 
397 ,72.1328 ,1.41527 ,-0.52943 ,-5.19479 
398 ,72.3246 ,1.41717 ,-0.53970 ,-5.29553 
399 ,72.5010 ,1.41889 ,-0.54997 ,-5.39626 
400 ,72.6771 ,1.42068 ,-0.57392 ,-5.63131 
401 ,72.8528 ,1.42244 ,-0.57734 ,-5.66489 
402 ,73.0290 ,1.42421 ,-0.58419 ,-5.73205 
403 ,73.2212 ,1.42615 ,-0.59103 ,-5.79920 
404 ,73.3973 ,1.42785 ,-0.60472 ,-5.93352 
405 ,73.5733 ,1.42967 ,-0.60130 ,-5.89994 
406 ,73.7492 ,1.43133 ,-0.59788 ,-5.86636 
407 ,73.9410 ,1.43329 ,-0.62183 ,-6.10141 
408 ,74.1173 ,1.43507 ,-0.65605 ,-6.43719 
409 ,74.2935 ,1.43680 ,-0.65263 ,-6.40361 
410 ,74.4696 ,1.43862 ,-0.64236 ,-6.30288 
411 ,74.6458 ,1.44033 ,-0.64921 ,-6.37003 
412 ,74.8378 ,1.44227 ,-0.67659 ,-6.63866 
413 ,74.9980 ,1.44397 ,-0.66974 ,-6.57150 
414 ,75.1741 ,1.44562 ,-0.67316 ,-6.60508 
415 ,75.3659 ,1.44756 ,-0.68685 ,-6.73940 
416 ,75.5418 ,1.44929 ,-0.70396 ,-6.90729 
417 ,75.7177 ,1.45104 ,-0.72450 ,-7.10876 
418 ,75.8940 ,1.45285 ,-0.72450 ,-7.10876 
419 ,76.1022 ,1.45490 ,-0.72107 ,-7.07518 
420 ,76.3104 ,1.45696 ,-0.72792 ,-7.14233 
421 ,76.4865 ,1.45875 ,-0.73818 ,-7.24307 
422 ,76.6465 ,1.46044 ,-0.74845 ,-7.34380 
423 ,76.8225 ,1.46215 ,-0.75872 ,-7.44454 
424 ,77.0149 ,1.46406 ,-0.78610 ,-7.71317 
425 ,77.2066 ,1.46589 ,-0.76556 ,-7.51170 
426 ,77.3990 ,1.46790 ,-0.79294 ,-7.78032 
427 ,77.5749 ,1.46968 ,-0.81347 ,-7.98179 
428 ,77.7830 ,1.47168 ,-0.80321 ,-7.88106 
429 ,77.9591 ,1.47350 ,-0.82716 ,-8.11611 
430 ,78.1349 ,1.47532 ,-0.81689 ,-8.01537 
431 ,78.3113 ,1.47699 ,-0.82716 ,-8.11611 
432 ,78.4874 ,1.47873 ,-0.82716 ,-8.11611 
433 ,78.6791 ,1.48060 ,-0.83743 ,-8.21684 
434 ,78.8555 ,1.48239 ,-0.85454 ,-8.38473 
435 ,79.0475 ,1.48438 ,-0.85112 ,-8.35115 
436 ,79.2236 ,1.48607 ,-0.86823 ,-8.51904 
437 ,79.3995 ,1.48784 ,-0.88192 ,-8.65336 
438 ,79.5757 ,1.48967 ,-0.90245 ,-8.85483 
439 ,79.7519 ,1.49139 ,-0.89218 ,-8.75409 
440 ,79.9279 ,1.49318 ,-0.90245 ,-8.85483 
441 ,80.1198 ,1.49507 ,-0.91956 ,-9.02272 
442 ,80.2959 ,1.49681 ,-0.92298 ,-9.05630 
443 ,80.4722 ,1.49859 ,-0.93325 ,-9.15703 
444 ,80.6642 ,1.50054 ,-0.94009 ,-9.22419 
445 ,80.8402 ,1.50227 ,-0.95036 ,-9.32492 
446 ,81.0164 ,1.50401 ,-0.96405 ,-9.45924 
447 ,81.1924 ,1.50580 ,-0.97431 ,-9.55997 
448 ,81.3683 ,1.50751 ,-0.96063 ,-9.42566 
449 ,81.5606 ,1.50937 ,-0.96747 ,-9.49282 
450 ,81.7367 ,1.51125 ,-0.98800 ,-9.69429 
451 ,81.9131 ,1.51303 ,-1.01196 ,-9.92933 
452 ,82.1049 ,1.51494 ,-1.00854 ,-9.89576 
453 ,82.2968 ,1.51679 ,-1.04276 ,-10.23154 
454 ,82.4730 ,1.51858 ,-1.03591 ,-10.16438 
455 ,82.6651 ,1.52057 ,-1.02565 ,-10.06365 
456 ,82.8572 ,1.52248 ,-1.04276 ,-10.23154 
457 ,83.0334 ,1.52422 ,-1.07014 ,-10.50016 
458 ,83.2253 ,1.52610 ,-1.04960 ,-10.29869 
459 ,83.4009 ,1.52781 ,-1.06329 ,-10.43301 
460 ,83.5775 ,1.52965 ,-1.08040 ,-10.60090 
461 ,83.7691 ,1.53156 ,-1.08040 ,-10.60090 
462 ,83.9457 ,1.53332 ,-1.09067 ,-10.70163 
