Point No.,Normal Force [N],Gap [mm],Time [s]
1,9.724328,11.8682,390.3520
2,9.724365,11.8682,390.3570
3,9.724181,11.8682,390.3620
4,9.723555,11.8682,390.3670
5,9.723341,11.8682,390.3720
6,9.723241,11.8682,390.3770
7,9.716288,11.8689,390.3820
8,9.704153,11.8689,390.3870
9,9.674398,11.8688,390.3910
10,9.577960,11.8713,390.3960
11,9.473318,11.8712,390.4010
12,9.269053,11.8742,390.4060
13,9.086714,11.8741,390.4110
14,8.767240,11.8777,390.4160
15,8.517045,11.8775,390.4210
16,8.090321,11.8823,390.4270
17,7.645294,11.8870,390.4320
18,7.349760,11.8868,390.4370
19,6.906014,11.8916,390.4420
20,6.610040,11.8914,390.4470
21,6.184934,11.8961,390.4520
22,5.909016,11.8960,390.4570
23,5.492860,11.9007,390.4620
24,5.210321,11.9006,390.4670
25,4.802301,11.9053,390.4720
26,4.543503,11.9052,390.4770
27,4.168038,11.9100,390.4820
28,3.916531,11.9098,390.4870
29,3.548048,11.9146,390.4920
30,3.306355,11.9145,390.4960
31,3.068329,11.9143,390.5010
32,2.703932,11.9191,390.5060
33,2.475413,11.9190,390.5110
34,2.136048,11.9238,390.5160
35,1.917283,11.9236,390.5210
36,1.581459,11.9284,390.5260
37,1.368160,11.9283,390.5310
38,1.060477,11.9331,390.5360
39,0.866434,11.9330,390.5410
40,0.571008,11.9378,390.5460
41,0.353051,11.9377,390.5510
42,0.112350,11.9419,390.5560
43,-0.036586,11.9419,390.5610
44,-0.262362,11.9473,390.5660
45,-0.402792,11.9473,390.5710
46,-0.608824,11.9521,390.5760
47,-0.730956,11.9521,390.5810
48,-0.892972,11.9570,390.5860
49,-0.974477,11.9569,390.5910
50,-0.991653,11.9613,390.5960
51,-0.947926,11.9613,390.6010
52,-0.893042,11.9663,390.6060
53,-0.876657,11.9664,390.6110
54,-0.882595,11.9714,390.6160
55,-0.883764,11.9714,390.6210
56,-0.856170,11.9770,390.6260
57,-0.810456,11.9770,390.6310
58,-0.723077,11.9814,390.6360
59,-0.631237,11.9815,390.6410
60,-0.441436,11.9866,390.6460
61,-0.313168,11.9867,390.6510
62,-0.147332,11.9924,390.6560
63,-0.055272,11.9925,390.6610
64,0.060486,11.9975,390.6660
65,0.139869,11.9976,390.6710
66,0.280192,12.0027,390.6760
67,0.397779,12.0027,390.6810
68,0.607744,12.0072,390.6860
69,0.728043,12.0073,390.6910
70,0.914033,12.0124,390.6960
71,1.019986,12.0125,390.7010
72,1.152088,12.0182,390.7060
73,1.221515,12.0182,390.7110
74,1.317031,12.0227,390.7160
75,1.369250,12.0227,390.7210
76,1.454880,12.0277,390.7260
77,1.516947,12.0278,390.7310
78,1.636942,12.0328,390.7360
79,1.723666,12.0329,390.7410
80,1.867061,12.0380,390.7460
81,1.955025,12.0380,390.7510
82,2.068969,12.0437,390.7560
83,2.124648,12.0438,390.7610
84,2.198714,12.0488,390.7660
85,2.245102,12.0488,390.7710
86,2.325485,12.0532,390.7760
87,2.373131,12.0533,390.7810
88,2.449053,12.0589,390.7860
89,2.493716,12.0590,390.7910
90,2.568946,12.0634,390.7960
91,2.613547,12.0634,390.8010
92,2.676998,12.0685,390.8060
93,2.705209,12.0685,390.8110
94,2.742511,12.0735,390.8160
95,2.758027,12.0735,390.8210
96,2.786669,12.0785,390.8260
97,2.801211,12.0785,390.8310
98,2.829516,12.0835,390.8360
99,2.844078,12.0836,390.8410
100,2.873659,12.0886,390.8460
101,2.889441,12.0886,390.8510
102,2.920038,12.0942,390.8560
103,2.936858,12.0942,390.8610
104,2.966823,12.0993,390.8660
105,2.979140,12.0993,390.8710
106,2.997545,12.1036,390.8760
107,3.002315,12.1036,390.8810
108,3.014931,12.1087,390.8860
109,3.023138,12.1087,390.8910
110,3.048394,12.1137,390.8960
111,3.062408,12.1137,390.9010
112,3.085607,12.1187,390.9060
113,3.091845,12.1187,390.9110
114,3.100220,12.1237,390.9160
115,3.100575,12.1237,390.9210
116,3.110681,12.1287,390.9260
117,3.114623,12.1287,390.9310
118,3.124092,12.1337,390.9360
119,3.124546,12.1337,390.9410
120,3.132639,12.1387,390.9460
121,3.133463,12.1387,390.9510
122,3.136867,12.1444,390.9560
123,3.133809,12.1443,390.9610
124,3.134819,12.1487,390.9660
125,3.130147,12.1487,390.9710
126,3.124269,12.1537,390.9760
127,3.114805,12.1537,390.9810
128,3.106075,12.1587,390.9860
129,3.096909,12.1587,390.9910
130,3.089296,12.1637,390.9960
131,3.081927,12.1637,391.0010
132,3.075941,12.1687,391.0060
133,3.066678,12.1687,391.0110
134,3.054328,12.1737,391.0160
135,3.042338,12.1737,391.0210
136,3.031663,12.1787,391.0260
137,3.021318,12.1787,391.0310
138,3.009147,12.1837,391.0360
139,2.997480,12.1836,391.0410
140,2.985976,12.1893,391.0460
141,2.975474,12.1893,391.0510
142,2.966851,12.1936,391.0560
143,2.959546,12.1936,391.0610
144,2.953140,12.1986,391.0660
145,2.944302,12.1986,391.0710
146,2.931550,12.2036,391.0760
147,2.918219,12.2036,391.0810
148,2.903115,12.2086,391.0860
149,2.890120,12.2086,391.0910
150,2.874581,12.2136,391.0960
151,2.861913,12.2136,391.1010
152,2.849058,12.2186,391.1060
153,2.837998,12.2186,391.1110
154,2.822502,12.2235,391.1160
155,2.808188,12.2235,391.1210
156,2.791808,12.2285,391.1260
157,2.780112,12.2285,391.1310
158,2.766252,12.2335,391.1360
159,2.754702,12.2335,391.1410
160,2.741263,12.2391,391.1460
161,2.729872,12.2391,391.1510
162,2.713729,12.2435,391.1560
163,2.700314,12.2435,391.1610
164,2.686421,12.2485,391.1660
165,2.676133,12.2485,391.1710
166,2.661132,12.2534,391.1760
167,2.648754,12.2534,391.1810
168,2.634739,12.2584,391.1860
169,2.623591,12.2584,391.1910
170,2.608843,12.2634,391.1960
171,2.596587,12.2634,391.2010
172,2.583568,12.2684,391.2060
173,2.573238,12.2684,391.2110
174,2.558658,12.2734,391.2160
175,2.546472,12.2734,391.2210
176,2.532219,12.2784,391.2260
177,2.522105,12.2784,391.2310
178,2.508132,12.2834,391.2360
179,2.497068,12.2833,391.2410
180,2.485013,12.2883,391.2460
181,2.475381,12.2883,391.2510
182,2.459822,12.2933,391.2560
183,2.447543,12.2933,391.2610
184,2.433023,12.2983,391.2660
185,2.423591,12.2983,391.2710
186,2.410835,12.3033,391.2760
187,2.400337,12.3033,391.2810
188,2.386902,12.3083,391.2860
189,2.376970,12.3083,391.2910
190,2.362881,12.3133,391.2960
191,2.353739,12.3133,391.3010
192,2.343502,12.3183,391.3060
193,2.335436,12.3183,391.3110
194,2.323302,12.3232,391.3160
195,2.313491,12.3232,391.3210
196,2.300673,12.3289,391.3260
197,2.291999,12.3289,391.3310
198,2.278536,12.3332,391.3360
199,2.269091,12.3332,391.3410
200,2.257629,12.3388,391.3460
201,2.250222,12.3388,391.3510
202,2.238079,12.3432,391.3560
203,2.228852,12.3432,391.3610
204,2.216497,12.3482,391.3660
205,2.208085,12.3482,391.3710
206,2.195390,12.3532,391.3760
207,2.186556,12.3532,391.3810
208,2.174627,12.3582,391.3860
209,2.167463,12.3582,391.3910
210,2.155918,12.3631,391.3960
211,2.147828,12.3631,391.4010
212,2.136820,12.3681,391.4060
213,2.129778,12.3681,391.4110
214,2.117812,12.3731,391.4160
215,2.109764,12.3731,391.4210
216,2.098635,12.3787,391.4260
217,2.093407,12.3787,391.4310
218,2.084382,12.3831,391.4360
219,2.077171,12.3831,391.4410
220,2.066421,12.3881,391.4460
221,2.059743,12.3881,391.4510
222,2.047019,12.3931,391.4560
223,2.038522,12.3931,391.4610
224,2.026528,12.3981,391.4660
225,2.020547,12.3981,391.4710
226,2.008674,12.4031,391.4760
227,2.000370,12.4031,391.4810
228,1.987187,12.4080,391.4860
229,1.979298,12.4080,391.4910
230,1.965565,12.4130,391.4960
231,1.957597,12.4130,391.5010
232,1.944672,12.4180,391.5060
233,1.938490,12.4180,391.5110
234,1.926247,12.4236,391.5160
235,1.918630,12.4236,391.5210
236,1.905644,12.4280,391.5260
237,1.898438,12.4280,391.5310
238,1.883788,12.4330,391.5360
239,1.875371,12.4330,391.5410
240,1.862731,12.4380,391.5460
241,1.857091,12.4380,391.5510
242,1.844531,12.4430,391.5560
243,1.836133,12.4430,391.5610
244,1.822955,12.4480,391.5660
245,1.817129,12.4479,391.5710
246,1.804948,12.4529,391.5760
247,1.798125,12.4529,391.5810
248,1.786313,12.4579,391.5860
249,1.780851,12.4579,391.5910
250,1.767356,12.4629,391.5960
251,1.758789,12.4629,391.6010
252,1.746163,12.4685,391.6060
253,1.740664,12.4685,391.6110
254,1.727982,12.4729,391.6160
255,1.721525,12.4729,391.6210
256,1.710003,12.4785,391.6260
257,1.704845,12.4785,391.6310
258,1.691840,12.4829,391.6360
259,1.684003,12.4829,391.6410
260,1.671845,12.4879,391.6460
261,1.666663,12.4879,391.6510
262,1.654113,12.4929,391.6560
263,1.648109,12.4928,391.6610
264,1.635385,12.4985,391.6660
265,1.630428,12.4985,391.6710
266,1.618130,12.5028,391.6760
267,1.612107,12.5028,391.6810
268,1.600743,12.5078,391.6860
269,1.595165,12.5078,391.6910
270,1.581380,12.5134,391.6960
271,1.575277,12.5134,391.7010
272,1.562301,12.5184,391.7060
273,1.557835,12.5184,391.7110
274,1.544961,12.5228,391.7160
275,1.537830,12.5228,391.7210
276,1.525462,12.5278,391.7260
277,1.520753,12.5278,391.7310
278,1.507066,12.5328,391.7360
279,1.501450,12.5328,391.7410
280,1.489778,12.5384,391.7460
281,1.486893,12.5384,391.7510
282,1.474566,12.5427,391.7560
283,1.467267,12.5427,391.7610
284,1.453720,12.5477,391.7660
285,1.449497,12.5477,391.7710
286,1.436905,12.5527,391.7760
287,1.431265,12.5527,391.7810
288,1.417470,12.5583,391.7860
289,1.413084,12.5583,391.7910
290,1.400622,12.5627,391.7960
291,1.394697,12.5627,391.8010
292,1.382268,12.5677,391.8060
293,1.378181,12.5677,391.8110
294,1.365621,12.5727,391.8160
295,1.361122,12.5727,391.8210
296,1.348805,12.5783,391.8260
297,1.345279,12.5783,391.8310
298,1.332771,12.5827,391.8360
299,1.326813,12.5827,391.8410
300,1.313449,12.5877,391.8460
301,1.309381,12.5877,391.8510
302,1.296264,12.5926,391.8560
303,1.291288,12.5926,391.8610
304,1.278331,12.5976,391.8660
305,1.275801,12.5976,391.8710
306,1.264335,12.6026,391.8760
307,1.259855,12.6026,391.8810
308,1.248099,12.6076,391.8860
309,1.243872,12.6076,391.8910
310,1.229595,12.6132,391.8960
311,1.224237,12.6132,391.9010
312,1.211648,12.6182,391.9060
313,1.209703,12.6182,391.9110
314,1.198434,12.6226,391.9160
315,1.193921,12.6226,391.9210
316,1.180636,12.6276,391.9260
317,1.176446,12.6276,391.9310
318,1.162343,12.6326,391.9360
319,1.157536,12.6326,391.9410
320,1.144597,12.6382,391.9460
321,1.142937,12.6382,391.9510
322,1.131466,12.6425,391.9560
323,1.127070,12.6425,391.9610
324,1.114221,12.6475,391.9660
325,1.110507,12.6475,391.9710
326,1.095927,12.6525,391.9760
327,1.091190,12.6525,391.9810
328,1.078045,12.6575,391.9860
329,1.076633,12.6575,391.9910
330,1.064527,12.6625,391.9960
331,1.060140,12.6625,392.0010
332,1.046958,12.6675,392.0060
333,1.044078,12.6675,392.0110
334,1.030339,12.6725,392.0160
335,1.026851,12.6725,392.0210
336,1.013463,12.6781,392.0260
337,1.011377,12.6781,392.0310
338,0.998064,12.6825,392.0360
339,0.993879,12.6825,392.0410
340,0.980599,12.6875,392.0460
341,0.977709,12.6875,392.0510
342,0.963647,12.6924,392.0560
343,0.959757,12.6924,392.0610
344,0.945682,12.6974,392.0660
345,0.943054,12.6974,392.0710
346,0.928978,12.7024,392.0760
347,0.925163,12.7024,392.0810
348,0.912130,12.7074,392.0860
349,0.909801,12.7074,392.0910
350,0.895763,12.7124,392.0960
351,0.891700,12.7124,392.1010
352,0.877306,12.7180,392.1060
353,0.875043,12.7180,392.1110
354,0.860959,12.7224,392.1160
355,0.856750,12.7224,392.1210
356,0.843470,12.7274,392.1260
357,0.841576,12.7274,392.1310
358,0.828109,12.7324,392.1360
359,0.824433,12.7324,392.1410
360,0.810498,12.7374,392.1460
361,0.809787,12.7374,392.1510
362,0.796923,12.7423,392.1560
363,0.793149,12.7423,392.1610
364,0.779397,12.7473,392.1660
365,0.777452,12.7473,392.1710
366,0.763591,12.7523,392.1760
367,0.760234,12.7523,392.1810
368,0.745125,12.7573,392.1860
369,0.743937,12.7573,392.1910
370,0.730732,12.7623,392.1960
371,0.727281,12.7623,392.2010
372,0.712672,12.7673,392.2060
373,0.710540,12.7673,392.2110
374,0.695721,12.7723,392.2160
375,0.693313,12.7723,392.2210
376,0.680393,12.7773,392.2260
377,0.680402,12.7773,392.2310
378,0.666570,12.7823,392.2360
379,0.662188,12.7823,392.2410
380,0.646257,12.7873,392.2460
381,0.644363,12.7873,392.2510
382,0.629984,12.7922,392.2560
383,0.627234,12.7922,392.2610
384,0.613028,12.7972,392.2660
385,0.612574,12.7972,392.2710
386,0.598116,12.8022,392.2760
387,0.594524,12.8022,392.2810
388,0.579509,12.8072,392.2860
389,0.578434,12.8072,392.2910
390,0.562675,12.8122,392.2960
391,0.559682,12.8122,392.3010
392,0.543690,12.8172,392.3060
393,0.543816,12.8172,392.3110
394,0.528740,12.8222,392.3160
395,0.524508,12.8222,392.3210
396,0.508179,12.8272,392.3260
397,0.506673,12.8272,392.3310
398,0.491480,12.8322,392.3360
399,0.488992,12.8322,392.3410
400,0.475488,12.8372,392.3460
401,0.475862,12.8372,392.3510
402,0.462824,12.8421,392.3560
403,0.459373,12.8421,392.3610
404,0.445041,12.8471,392.3660
405,0.443451,12.8471,392.3710
406,0.427454,12.8521,392.3760
407,0.423792,12.8521,392.3810
408,0.408992,12.8571,392.3860
409,0.408791,12.8571,392.3910
410,0.395071,12.8621,392.3960
411,0.392584,12.8621,392.4010
412,0.379247,12.8671,392.4060
413,0.377732,12.8671,392.4110
414,0.361665,12.8721,392.4160
415,0.358527,12.8721,392.4210
416,0.344887,12.8771,392.4270
417,0.340136,12.8771,392.4320
418,0.333841,12.8821,392.4370
419,0.327650,12.8821,392.4420
420,0.321342,12.8871,392.4470
421,0.316016,12.8871,392.4520
422,0.308632,12.8921,392.4570
423,0.302095,12.8921,392.4620
424,0.295081,12.8970,392.4670
425,0.290900,12.8970,392.4720
426,0.284246,12.9020,392.4770
427,0.278957,12.9020,392.4820
428,0.271938,12.9070,392.4870
429,0.267505,12.9070,392.4920
430,0.259331,12.9120,392.4970
431,0.252181,12.9120,392.5020
432,0.243942,12.9170,392.5070
433,0.239813,12.9170,392.5120
434,0.232340,12.9220,392.5170
435,0.225144,12.9220,392.5220
436,0.217779,12.9270,392.5270
437,0.214057,12.9270,392.5320
438,0.205752,12.9320,392.5370
439,0.199013,12.9320,392.5420
440,0.190648,12.9370,392.5470
441,0.186009,12.9370,392.5520
442,0.178635,12.9420,392.5570
443,0.172467,12.9420,392.5620
444,0.164031,12.9470,392.5670
445,0.158859,12.9470,392.5720
446,0.150376,12.9520,392.5770
447,0.144704,12.9520,392.5820
448,0.137414,12.9570,392.5870
449,0.134038,12.9570,392.5920
450,0.127351,12.9613,392.5970
451,0.121487,12.9613,392.6020
452,0.112677,12.9669,392.6070
453,0.107636,12.9669,392.6120
454,0.099514,12.9719,392.6170
455,0.094510,12.9719,392.6220
456,0.087632,12.9769,392.6270
457,0.083236,12.9769,392.6320
458,0.075413,12.9813,392.6370
459,0.069511,12.9813,392.6420
460,0.062647,12.9869,392.6470
461,0.059944,12.9869,392.6520
462,0.053121,12.9919,392.6570
463,0.048062,12.9919,392.6620
464,0.041398,12.9969,392.6670
465,0.040332,12.9969,392.6720
466,0.035109,13.0019,392.6770
467,0.028707,13.0019,392.6820
468,0.021454,13.0069,392.6870
469,0.016376,13.0069,392.6920
470,0.009385,13.0113,392.6970
471,0.003540,13.0113,392.7020
472,-0.006640,13.0169,392.7070
473,-0.011868,13.0169,392.7120
474,-0.021230,13.0212,392.7170
475,-0.027762,13.0212,392.7220
476,-0.035922,13.0269,392.7270
477,-0.040131,13.0269,392.7320
478,-0.047295,13.0312,392.7370
479,-0.048338,13.0312,392.7420
480,-0.054520,13.0368,392.7470
481,-0.054772,13.0368,392.7520
482,-0.061090,13.0418,392.7570
483,-0.064120,13.0418,392.7620
484,-0.071354,13.0468,392.7670
485,-0.073280,13.0468,392.7720
486,-0.083760,13.0512,392.7770
487,-0.091845,13.0512,392.7820
488,-0.102506,13.0568,392.7870
489,-0.103989,13.0568,392.7920
490,-0.111667,13.0612,392.7970
491,-0.114866,13.0612,392.8020
492,-0.121674,13.0662,392.8070
493,-0.121389,13.0662,392.8120
494,-0.131274,13.0712,392.8170
495,-0.138130,13.0712,392.8220
496,-0.148637,13.0768,392.8270
497,-0.150166,13.0768,392.8320
498,-0.157971,13.0812,392.8370
499,-0.161286,13.0812,392.8420
500,-0.170713,13.0868,392.8470
501,-0.177344,13.0868,392.8520
502,-0.186794,13.0911,392.8570
503,-0.190966,13.0911,392.8620
504,-0.199710,13.0968,392.8670
505,-0.202801,13.0968,392.8720
506,-0.211761,13.1011,392.8770
507,-0.215661,13.1011,392.8820
508,-0.223872,13.1061,392.8870
509,-0.224975,13.1061,392.8920
510,-0.233383,13.1111,392.8970
511,-0.236591,13.1111,392.9020
512,-0.245513,13.1167,392.9070
513,-0.246420,13.1167,392.9120
514,-0.254763,13.1211,392.9170
515,-0.258564,13.1211,392.9220
516,-0.267089,13.1261,392.9270
517,-0.268076,13.1261,392.9320
518,-0.276123,13.1311,392.9370
519,-0.280136,13.1311,392.9420
520,-0.290405,13.1367,392.9470
521,-0.293033,13.1367,392.9520
522,-0.301122,13.1411,392.9570
523,-0.304059,13.1411,392.9620
524,-0.312588,13.1461,392.9670
525,-0.314389,13.1461,392.9720
526,-0.323002,13.1511,392.9770
527,-0.326575,13.1511,392.9820
528,-0.335731,13.1567,392.9870
529,-0.335333,13.1567,392.9920
530,-0.343025,13.1610,392.9970
531,-0.346411,13.1610,393.0020
532,-0.355511,13.1660,393.0070
533,-0.358120,13.1660,393.0120
534,-0.366780,13.1710,393.0170
535,-0.368445,13.1710,393.0220
536,-0.377026,13.1767,393.0270
537,-0.376960,13.1767,393.0320
538,-0.385485,13.1810,393.0370
539,-0.389310,13.1810,393.0420
540,-0.398798,13.1860,393.0470
541,-0.400800,13.1860,393.0520
542,-0.409455,13.1910,393.0570
543,-0.410470,13.1910,393.0620
544,-0.417797,13.1966,393.0670
545,-0.416469,13.1966,393.0720
546,-0.424905,13.2010,393.0770
547,-0.428515,13.2010,393.0820
548,-0.437381,13.2060,393.0870
549,-0.438906,13.2060,393.0920
550,-0.446897,13.2110,393.0970
551,-0.448665,13.2110,393.1020
552,-0.457620,13.2166,393.1070
553,-0.456928,13.2166,393.1120
554,-0.465223,13.2210,393.1170
555,-0.468029,13.2210,393.1220
556,-0.476095,13.2266,393.1270
557,-0.475604,13.2266,393.1320
558,-0.484017,13.2310,393.1370
559,-0.486818,13.2310,393.1420
560,-0.496390,13.2366,393.1470
561,-0.496105,13.2366,393.1520
562,-0.504195,13.2410,393.1570
563,-0.506261,13.2410,393.1620
564,-0.514426,13.2459,393.1670
565,-0.513481,13.2459,393.1720
566,-0.521917,13.2509,393.1770
567,-0.524124,13.2509,393.1820
568,-0.533659,13.2566,393.1870
569,-0.533149,13.2566,393.1920
570,-0.541127,13.2609,393.1970
571,-0.543288,13.2609,393.2020
572,-0.552018,13.2659,393.2070
573,-0.551723,13.2659,393.2120
574,-0.560472,13.2709,393.2170
575,-0.562226,13.2709,393.2220
576,-0.571471,13.2765,393.2270
577,-0.570919,13.2765,393.2320
578,-0.579257,13.2809,393.2370
579,-0.579626,13.2809,393.2420
580,-0.587365,13.2865,393.2470
581,-0.586813,13.2865,393.2520
582,-0.595417,13.2909,393.2570
583,-0.596432,13.2909,393.2620
584,-0.604737,13.2965,393.2670
585,-0.601908,13.2965,393.2720
586,-0.608908,13.3009,393.2770
587,-0.608623,13.3009,393.2820
588,-0.616554,13.3059,393.2870
589,-0.614150,13.3059,393.2920
590,-0.620786,13.3109,393.2970
591,-0.619935,13.3109,393.3020
592,-0.627851,13.3165,393.3070
593,-0.624372,13.3165,393.3120
594,-0.630980,13.3209,393.3170
595,-0.630381,13.3209,393.3220
596,-0.637798,13.3265,393.3270
597,-0.635707,13.3265,393.3320
598,-0.643601,13.3315,393.3370
599,-0.643007,13.3315,393.3420
600,-0.651153,13.3365,393.3470
601,-0.649100,13.3365,393.3520
602,-0.656970,13.3409,393.3570
603,-0.657713,13.3409,393.3620
604,-0.665995,13.3465,393.3670
605,-0.664541,13.3465,393.3720
606,-0.672532,13.3509,393.3770
607,-0.671293,13.3509,393.3820
608,-0.678723,13.3565,393.3870
609,-0.674094,13.3565,393.3920
610,-0.680814,13.3608,393.3970
611,-0.680641,13.3608,393.4020
612,-0.688352,13.3665,393.4070
613,-0.685700,13.3665,393.4120
614,-0.693322,13.3708,393.4170
615,-0.692298,13.3708,393.4220
616,-0.700196,13.3765,393.4270
617,-0.696937,13.3765,393.4320
618,-0.704508,13.3808,393.4370
619,-0.704634,13.3808,393.4420
620,-0.713075,13.3865,393.4470
621,-0.710606,13.3865,393.4520
622,-0.717830,13.3908,393.4570
623,-0.716189,13.3908,393.4620
624,-0.723867,13.3965,393.4670
625,-0.720355,13.3965,393.4720
626,-0.727748,13.4008,393.4770
627,-0.726537,13.4008,393.4820
628,-0.734019,13.4064,393.4870
629,-0.730886,13.4064,393.4920
630,-0.737957,13.4108,393.4970
631,-0.736091,13.4108,393.5020
632,-0.744288,13.4164,393.5070
633,-0.740061,13.4164,393.5120
634,-0.745911,13.4214,393.5170
635,-0.742478,13.4214,393.5220
636,-0.749044,13.4264,393.5270
637,-0.745312,13.4264,393.5320
638,-0.752411,13.4314,393.5370
639,-0.750470,13.4314,393.5420
640,-0.757657,13.4364,393.5470
641,-0.751620,13.4364,393.5520
642,-0.757199,13.4408,393.5570
643,-0.753463,13.4408,393.5620
644,-0.759733,13.4464,393.5670
645,-0.756788,13.4464,393.5720
646,-0.764559,13.4508,393.5770
647,-0.763381,13.4508,393.5820
648,-0.770381,13.4564,393.5870
649,-0.763764,13.4564,393.5920
650,-0.768670,13.4608,393.5970
651,-0.764802,13.4608,393.6020
652,-0.770938,13.4664,393.6070
653,-0.766252,13.4664,393.6120
654,-0.773406,13.4714,393.6170
655,-0.773215,13.4714,393.6220
656,-0.781356,13.4764,393.6270
657,-0.776231,13.4764,393.6320
658,-0.783072,13.4808,393.6370
659,-0.782404,13.4808,393.6420
660,-0.790171,13.4864,393.6470
661,-0.787285,13.4864,393.6520
