Data stamp = , 24-04-2022 09:49:42 199

Calibration Values: 
Slope = , 26.54 , g/V 
Offset Voltage at no contact = , -0.501760 , V 

No , Time , Stage Position ,   Mass , Force 
   ,  (s) ,      (mm)      ,   (g)  , (mN)  

1 ,0.0000 ,0.69939 ,5.30878 ,52.08979 
2 ,0.2120 ,0.69948 ,5.31221 ,52.12337 
3 ,0.5484 ,0.70038 ,5.29852 ,51.98905 
4 ,0.7726 ,0.70200 ,5.30878 ,52.08979 
5 ,0.9646 ,0.70377 ,5.29852 ,51.98905 
6 ,1.1406 ,0.70556 ,5.29852 ,51.98905 
7 ,1.3168 ,0.70731 ,5.31563 ,52.15694 
8 ,1.4924 ,0.70901 ,5.31221 ,52.12337 
9 ,1.6850 ,0.71091 ,5.30536 ,52.05621 
10 ,1.8770 ,0.71302 ,5.30536 ,52.05621 
11 ,2.0692 ,0.71476 ,5.28141 ,51.82116 
12 ,2.2767 ,0.71686 ,5.24718 ,51.48538 
13 ,2.4686 ,0.71878 ,5.23350 ,51.35107 
14 ,2.6452 ,0.72064 ,5.20270 ,51.04886 
15 ,2.8694 ,0.72282 ,5.18559 ,50.88097 
16 ,3.0615 ,0.72474 ,5.17190 ,50.74666 
17 ,3.2696 ,0.72680 ,5.14794 ,50.51161 
18 ,3.4777 ,0.72888 ,5.13425 ,50.37729 
19 ,3.6697 ,0.73075 ,5.12056 ,50.24298 
20 ,3.8458 ,0.73260 ,5.09319 ,49.97436 
21 ,4.0376 ,0.73449 ,5.07950 ,49.84004 
22 ,4.2460 ,0.73661 ,5.05554 ,49.60499 
23 ,4.4696 ,0.73884 ,5.04185 ,49.47068 
24 ,4.6459 ,0.74063 ,5.02132 ,49.26921 
25 ,4.8382 ,0.74249 ,4.99394 ,49.00058 
26 ,5.0463 ,0.74458 ,4.97341 ,48.79911 
27 ,5.2383 ,0.74649 ,4.93919 ,48.46333 
28 ,5.4304 ,0.74837 ,4.94261 ,48.49691 
29 ,5.6065 ,0.75025 ,4.93577 ,48.42975 
30 ,5.7821 ,0.75208 ,4.89128 ,47.99324 
31 ,5.9747 ,0.75382 ,4.88444 ,47.92608 
32 ,6.1669 ,0.75579 ,4.86732 ,47.75819 
33 ,6.3590 ,0.75774 ,4.83310 ,47.42240 
34 ,6.5668 ,0.75975 ,4.82626 ,47.35525 
35 ,6.7429 ,0.76162 ,4.80573 ,47.15378 
36 ,6.9189 ,0.76338 ,4.79888 ,47.08662 
37 ,7.0949 ,0.76516 ,4.78177 ,46.91873 
38 ,7.2711 ,0.76681 ,4.75782 ,46.68368 
39 ,7.4791 ,0.76889 ,4.72017 ,46.31432 
40 ,7.6554 ,0.77073 ,4.71333 ,46.24716 
41 ,7.8631 ,0.77269 ,4.68937 ,46.01212 
42 ,8.0395 ,0.77453 ,4.66884 ,45.81065 
43 ,8.2475 ,0.77659 ,4.66884 ,45.81065 
44 ,8.4396 ,0.77847 ,4.62777 ,45.40771 
45 ,8.6475 ,0.78056 ,4.63119 ,45.44128 
46 ,8.8398 ,0.78252 ,4.59697 ,45.10550 
47 ,9.0154 ,0.78427 ,4.57986 ,44.93761 
48 ,9.1917 ,0.78605 ,4.57986 ,44.93761 
49 ,9.3998 ,0.78804 ,4.56617 ,44.80330 
50 ,9.5921 ,0.79001 ,4.53195 ,44.46751 
51 ,9.7842 ,0.79198 ,4.51826 ,44.33320 
52 ,9.9763 ,0.79386 ,4.49431 ,44.09815 
53 ,10.1843 ,0.79587 ,4.47720 ,43.93026 
54 ,10.3763 ,0.79788 ,4.44298 ,43.59448 
55 ,10.5525 ,0.79964 ,4.42244 ,43.39301 
56 ,10.7446 ,0.80148 ,4.42244 ,43.39301 
57 ,10.9525 ,0.80367 ,4.39849 ,43.15796 
58 ,11.1283 ,0.80542 ,4.38480 ,43.02365 
59 ,11.3047 ,0.80721 ,4.37453 ,42.92291 
60 ,11.5128 ,0.80915 ,4.34716 ,42.65429 
61 ,11.7048 ,0.81101 ,4.33347 ,42.51997 
62 ,11.8810 ,0.81291 ,4.30951 ,42.28492 
63 ,12.0571 ,0.81473 ,4.29582 ,42.15061 
64 ,12.2651 ,0.81673 ,4.28213 ,42.01630 
65 ,12.4410 ,0.81852 ,4.26502 ,41.84841 
66 ,12.6492 ,0.82056 ,4.25133 ,41.71409 
67 ,12.8254 ,0.82237 ,4.21369 ,41.34473 
68 ,13.0336 ,0.82428 ,4.19316 ,41.14326 
69 ,13.2091 ,0.82624 ,4.18631 ,41.07611 
70 ,13.3852 ,0.82795 ,4.17605 ,40.97537 
71 ,13.5777 ,0.82990 ,4.14183 ,40.63959 
72 ,13.7695 ,0.83171 ,4.14525 ,40.67317 
73 ,13.9617 ,0.83378 ,4.13156 ,40.53885 
74 ,14.1378 ,0.83550 ,4.09734 ,40.20307 
75 ,14.3140 ,0.83723 ,4.07680 ,40.00160 
76 ,14.5220 ,0.83928 ,4.06654 ,39.90087 
77 ,14.7298 ,0.84133 ,4.04943 ,39.73297 
78 ,14.9061 ,0.84317 ,4.03232 ,39.56508 
79 ,15.0822 ,0.84493 ,4.01178 ,39.36361 
80 ,15.2743 ,0.84688 ,3.97414 ,38.99425 
81 ,15.4660 ,0.84882 ,3.97414 ,38.99425 
82 ,15.6425 ,0.85059 ,3.96387 ,38.89352 
83 ,15.8347 ,0.85241 ,3.93307 ,38.59131 
84 ,16.0426 ,0.85445 ,3.91938 ,38.45700 
85 ,16.2187 ,0.85634 ,3.90912 ,38.35626 
86 ,16.3949 ,0.85806 ,3.88516 ,38.12122 
87 ,16.5869 ,0.85997 ,3.87490 ,38.02048 
88 ,16.7630 ,0.86169 ,3.88174 ,38.08764 
89 ,16.9711 ,0.86379 ,3.83725 ,37.65112 
90 ,17.1634 ,0.86566 ,3.83383 ,37.61754 
91 ,17.3553 ,0.86764 ,3.78934 ,37.18102 
92 ,17.5474 ,0.86953 ,3.78934 ,37.18102 
93 ,17.7389 ,0.87143 ,3.76539 ,36.94597 
94 ,17.9149 ,0.87327 ,3.74828 ,36.77808 
95 ,18.0751 ,0.87494 ,3.72090 ,36.50946 
96 ,18.2513 ,0.87663 ,3.71405 ,36.44230 
97 ,18.4276 ,0.87840 ,3.69352 ,36.24083 
98 ,18.6198 ,0.88017 ,3.67641 ,36.07294 
99 ,18.8119 ,0.88217 ,3.65588 ,35.87147 
100 ,19.0035 ,0.88415 ,3.65930 ,35.90505 
101 ,19.1796 ,0.88589 ,3.62850 ,35.60284 
102 ,19.3721 ,0.88778 ,3.61823 ,35.50211 
103 ,19.5637 ,0.88974 ,3.58743 ,35.19990 
104 ,19.7397 ,0.89151 ,3.58743 ,35.19990 
105 ,19.9322 ,0.89335 ,3.55663 ,34.89770 
106 ,20.1403 ,0.89541 ,3.55321 ,34.86412 
107 ,20.3322 ,0.89743 ,3.52584 ,34.59549 
108 ,20.5246 ,0.89925 ,3.51557 ,34.49476 
109 ,20.7487 ,0.90140 ,3.48819 ,34.22613 
110 ,20.9246 ,0.90341 ,3.48819 ,34.22613 
111 ,21.1166 ,0.90524 ,3.46081 ,33.95751 
112 ,21.3089 ,0.90717 ,3.43686 ,33.72246 
113 ,21.5006 ,0.90906 ,3.42317 ,33.58814 
114 ,21.6770 ,0.91090 ,3.41633 ,33.52099 
115 ,21.8847 ,0.91284 ,3.39237 ,33.28594 
116 ,22.0612 ,0.91475 ,3.36842 ,33.05089 
117 ,22.2688 ,0.91672 ,3.34788 ,32.84942 
118 ,22.4613 ,0.91862 ,3.35473 ,32.91658 
119 ,22.6532 ,0.92055 ,3.32735 ,32.64795 
120 ,22.8455 ,0.92249 ,3.31708 ,32.54722 
121 ,23.0050 ,0.92422 ,3.29313 ,32.31217 
122 ,23.1816 ,0.92587 ,3.29313 ,32.31217 
123 ,23.3737 ,0.92782 ,3.26233 ,32.00996 
124 ,23.5658 ,0.92967 ,3.25206 ,31.90923 
125 ,23.7418 ,0.93148 ,3.23153 ,31.70776 
126 ,23.9500 ,0.93345 ,3.20073 ,31.40555 
127 ,24.1581 ,0.93559 ,3.20073 ,31.40555 
128 ,24.3499 ,0.93750 ,3.17677 ,31.17051 
129 ,24.5422 ,0.93942 ,3.16993 ,31.10335 
130 ,24.7502 ,0.94152 ,3.13229 ,30.73399 
131 ,24.9264 ,0.94336 ,3.11860 ,30.59968 
132 ,25.1181 ,0.94521 ,3.12544 ,30.66683 
133 ,25.2946 ,0.94708 ,3.10833 ,30.49894 
134 ,25.4864 ,0.94896 ,3.08438 ,30.26389 
135 ,25.6627 ,0.95071 ,3.05358 ,29.96169 
136 ,25.8388 ,0.95245 ,3.07069 ,30.12958 
137 ,26.0149 ,0.95426 ,3.05015 ,29.92811 
138 ,26.2065 ,0.95616 ,3.02620 ,29.69306 
139 ,26.3829 ,0.95789 ,2.99882 ,29.42444 
140 ,26.5591 ,0.95965 ,2.98513 ,29.29012 
141 ,26.7512 ,0.96155 ,2.98171 ,29.25654 
142 ,26.9432 ,0.96350 ,2.94407 ,28.88718 
143 ,27.1194 ,0.96524 ,2.93038 ,28.75287 
144 ,27.2950 ,0.96707 ,2.93380 ,28.78645 
145 ,27.4715 ,0.96878 ,2.92353 ,28.68571 
146 ,27.6634 ,0.97072 ,2.89958 ,28.45066 
147 ,27.8396 ,0.97245 ,2.87905 ,28.24919 
148 ,28.0317 ,0.97430 ,2.88589 ,28.31635 
149 ,28.2559 ,0.97661 ,2.84140 ,27.87983 
150 ,28.4475 ,0.97857 ,2.81745 ,27.64479 
151 ,28.6560 ,0.98048 ,2.82087 ,27.67836 
152 ,28.8643 ,0.98266 ,2.79349 ,27.40974 
153 ,29.0401 ,0.98448 ,2.78322 ,27.30900 
154 ,29.2320 ,0.98630 ,2.78665 ,27.34258 
155 ,29.4078 ,0.98812 ,2.75927 ,27.07395 
156 ,29.6001 ,0.99000 ,2.74216 ,26.90606 
157 ,29.7922 ,0.99198 ,2.74216 ,26.90606 
158 ,29.9685 ,0.99375 ,2.71478 ,26.63744 
159 ,30.1605 ,0.99561 ,2.69767 ,26.46954 
160 ,30.3365 ,0.99739 ,2.68056 ,26.30165 
161 ,30.5122 ,0.99917 ,2.67714 ,26.26807 
162 ,30.7046 ,1.00105 ,2.64976 ,25.99945 
163 ,30.8808 ,1.00286 ,2.62581 ,25.76440 
164 ,31.0725 ,1.00474 ,2.63265 ,25.83156 
165 ,31.2649 ,1.00675 ,2.61554 ,25.66367 
166 ,31.4409 ,1.00842 ,2.58132 ,25.32788 
167 ,31.6171 ,1.01019 ,2.56421 ,25.15999 
168 ,31.8253 ,1.01217 ,2.56763 ,25.19357 
169 ,32.0173 ,1.01415 ,2.55394 ,25.05926 
170 ,32.1935 ,1.01597 ,2.53683 ,24.89136 
171 ,32.3855 ,1.01793 ,2.52314 ,24.75705 
172 ,32.5936 ,1.01991 ,2.50603 ,24.58916 
173 ,32.8016 ,1.02205 ,2.46154 ,24.15264 
174 ,33.0095 ,1.02404 ,2.47523 ,24.28696 
175 ,33.1858 ,1.02589 ,2.46496 ,24.18622 
176 ,33.3618 ,1.02771 ,2.42732 ,23.81686 
177 ,33.5380 ,1.02943 ,2.41363 ,23.68255 
178 ,33.7295 ,1.03125 ,2.41705 ,23.71612 
179 ,33.9219 ,1.03317 ,2.40679 ,23.61539 
180 ,34.0982 ,1.03508 ,2.37599 ,23.31318 
181 ,34.2742 ,1.03677 ,2.34861 ,23.04456 
182 ,34.4665 ,1.03873 ,2.36572 ,23.21245 
183 ,34.6742 ,1.04064 ,2.32123 ,22.77593 
184 ,34.8665 ,1.04266 ,2.31439 ,22.70877 
185 ,35.0586 ,1.04456 ,2.28017 ,22.37299 
186 ,35.2346 ,1.04638 ,2.27674 ,22.33941 
187 ,35.4108 ,1.04810 ,2.26306 ,22.20510 
188 ,35.6027 ,1.05002 ,2.25963 ,22.17152 
189 ,35.8109 ,1.05209 ,2.24252 ,22.00363 
190 ,36.0190 ,1.05415 ,2.20830 ,21.66785 
191 ,36.2268 ,1.05620 ,2.21857 ,21.76858 
192 ,36.4031 ,1.05807 ,2.19803 ,21.56711 
193 ,36.5952 ,1.05996 ,2.16723 ,21.26491 
194 ,36.7712 ,1.06170 ,2.15355 ,21.13059 
195 ,36.9468 ,1.06348 ,2.17066 ,21.29849 
196 ,37.1234 ,1.06530 ,2.14670 ,21.06344 
197 ,37.2993 ,1.06700 ,2.12959 ,20.89555 
198 ,37.4915 ,1.06888 ,2.10564 ,20.66050 
199 ,37.6835 ,1.07088 ,2.10564 ,20.66050 
200 ,37.8757 ,1.07266 ,2.08510 ,20.45903 
201 ,38.0674 ,1.07474 ,2.06799 ,20.29114 
202 ,38.2439 ,1.07642 ,2.05773 ,20.19040 
203 ,38.4519 ,1.07853 ,2.02350 ,19.85462 
204 ,38.6439 ,1.08036 ,2.02693 ,19.88820 
205 ,38.8035 ,1.08219 ,2.02008 ,19.82104 
206 ,38.9800 ,1.08378 ,2.00297 ,19.65315 
207 ,39.1563 ,1.08559 ,1.99270 ,19.55241 
208 ,39.3644 ,1.08757 ,1.95848 ,19.21663 
209 ,39.5722 ,1.08970 ,1.93111 ,18.94801 
210 ,39.7646 ,1.09159 ,1.94479 ,19.08232 
211 ,39.9726 ,1.09369 ,1.91742 ,18.81369 
212 ,40.1802 ,1.09572 ,1.91057 ,18.74654 
213 ,40.3568 ,1.09763 ,1.89688 ,18.61222 
214 ,40.5647 ,1.09957 ,1.88662 ,18.51149 
215 ,40.7408 ,1.10140 ,1.87977 ,18.44433 
216 ,40.9170 ,1.10319 ,1.85582 ,18.20928 
217 ,41.1091 ,1.10503 ,1.84213 ,18.07497 
218 ,41.3171 ,1.10712 ,1.82160 ,17.87350 
219 ,41.4933 ,1.10898 ,1.81133 ,17.77276 
220 ,41.6854 ,1.11088 ,1.78395 ,17.50414 
221 ,41.8772 ,1.11273 ,1.77026 ,17.36983 
222 ,42.0694 ,1.11464 ,1.76342 ,17.30267 
223 ,42.2455 ,1.11647 ,1.74631 ,17.13478 
224 ,42.4376 ,1.11831 ,1.73604 ,17.03404 
225 ,42.6297 ,1.12028 ,1.71209 ,16.79899 
226 ,42.8217 ,1.12226 ,1.70866 ,16.76542 
227 ,43.0137 ,1.12405 ,1.69155 ,16.59752 
228 ,43.1899 ,1.12589 ,1.68471 ,16.53037 
229 ,43.3816 ,1.12777 ,1.68813 ,16.56395 
230 ,43.5741 ,1.12968 ,1.65391 ,16.22816 
231 ,43.7662 ,1.13162 ,1.62995 ,15.99311 
232 ,43.9421 ,1.13342 ,1.63680 ,16.06027 
233 ,44.1344 ,1.13539 ,1.62653 ,15.95954 
234 ,44.3264 ,1.13726 ,1.58889 ,15.59018 
235 ,44.5019 ,1.13905 ,1.58547 ,15.55660 
236 ,44.6785 ,1.14076 ,1.59573 ,15.65733 
237 ,44.8705 ,1.14267 ,1.54782 ,15.18724 
238 ,45.0463 ,1.14450 ,1.53756 ,15.08650 
239 ,45.2227 ,1.14621 ,1.53756 ,15.08650 
240 ,45.4145 ,1.14813 ,1.53071 ,15.01934 
241 ,45.5907 ,1.14992 ,1.50333 ,14.75072 
242 ,45.7829 ,1.15172 ,1.48965 ,14.61640 
243 ,46.0069 ,1.15393 ,1.46911 ,14.41493 
244 ,46.1985 ,1.15599 ,1.47938 ,14.51567 
245 ,46.3748 ,1.15774 ,1.46569 ,14.38136 
246 ,46.5510 ,1.15951 ,1.44516 ,14.17989 
247 ,46.7272 ,1.16122 ,1.41436 ,13.87768 
248 ,46.9193 ,1.16314 ,1.42462 ,13.97842 
249 ,47.0954 ,1.16495 ,1.41436 ,13.87768 
250 ,47.2873 ,1.16692 ,1.39725 ,13.70979 
251 ,47.4795 ,1.16877 ,1.38014 ,13.54190 
252 ,47.6714 ,1.17064 ,1.34934 ,13.23969 
253 ,47.8638 ,1.17256 ,1.34249 ,13.17254 
254 ,48.0717 ,1.17467 ,1.33223 ,13.07180 
255 ,48.2637 ,1.17663 ,1.31169 ,12.87033 
256 ,48.4560 ,1.17845 ,1.30827 ,12.83675 
257 ,48.6319 ,1.18033 ,1.30485 ,12.80318 
258 ,48.8077 ,1.18206 ,1.28089 ,12.56813 
259 ,48.9999 ,1.18394 ,1.28089 ,12.56813 
260 ,49.1922 ,1.18594 ,1.26720 ,12.43381 
261 ,49.3844 ,1.18781 ,1.24667 ,12.23235 
262 ,49.5764 ,1.18972 ,1.25009 ,12.26592 
263 ,49.7525 ,1.19151 ,1.22614 ,12.03088 
264 ,49.9765 ,1.19361 ,1.21587 ,11.93014 
265 ,50.1362 ,1.19547 ,1.19876 ,11.76225 
266 ,50.3126 ,1.19709 ,1.18165 ,11.59436 
267 ,50.4887 ,1.19894 ,1.16112 ,11.39289 
268 ,50.6804 ,1.20071 ,1.14058 ,11.19142 
269 ,50.8571 ,1.20257 ,1.14743 ,11.25857 
270 ,51.0328 ,1.20433 ,1.14743 ,11.25857 
271 ,51.2409 ,1.20630 ,1.11663 ,10.95637 
272 ,51.4331 ,1.20834 ,1.12347 ,11.02353 
273 ,51.6251 ,1.21019 ,1.09267 ,10.72132 
274 ,51.8012 ,1.21197 ,1.07899 ,10.58701 
275 ,51.9931 ,1.21382 ,1.06872 ,10.48627 
276 ,52.1694 ,1.21573 ,1.03792 ,10.18407 
277 ,52.3453 ,1.21741 ,1.03450 ,10.15049 
278 ,52.5214 ,1.21914 ,1.02081 ,10.01618 
279 ,52.7134 ,1.22102 ,1.03108 ,10.11691 
280 ,52.8896 ,1.22286 ,1.02081 ,10.01618 
281 ,53.0813 ,1.22468 ,0.99001 ,9.71397 
282 ,53.2579 ,1.22656 ,0.97632 ,9.57966 
283 ,53.4499 ,1.22840 ,0.96263 ,9.44535 
284 ,53.6419 ,1.23037 ,0.94894 ,9.31103 
285 ,53.8180 ,1.23216 ,0.93868 ,9.21030 
286 ,54.0101 ,1.23404 ,0.93183 ,9.14314 
287 ,54.2017 ,1.23602 ,0.91130 ,8.94167 
288 ,54.3782 ,1.23774 ,0.89419 ,8.77378 
289 ,54.5544 ,1.23946 ,0.90446 ,8.87451 
290 ,54.7465 ,1.24134 ,0.88392 ,8.67305 
291 ,54.9385 ,1.24337 ,0.87023 ,8.53873 
292 ,55.1305 ,1.24519 ,0.86339 ,8.47158 
293 ,55.3387 ,1.24729 ,0.84970 ,8.33726 
294 ,55.5305 ,1.24924 ,0.83943 ,8.23653 
295 ,55.7227 ,1.25118 ,0.80863 ,7.93432 
296 ,55.8989 ,1.25293 ,0.79152 ,7.76643 
297 ,56.0746 ,1.25475 ,0.79837 ,7.83359 
298 ,56.2507 ,1.25644 ,0.79495 ,7.80001 
299 ,56.4592 ,1.25844 ,0.78126 ,7.66570 
300 ,56.6672 ,1.26058 ,0.75730 ,7.43065 
301 ,56.8433 ,1.26243 ,0.75046 ,7.36349 
302 ,57.0354 ,1.26425 ,0.75388 ,7.39707 
303 ,57.2434 ,1.26630 ,0.71966 ,7.06129 
304 ,57.4030 ,1.26809 ,0.69913 ,6.85982 
305 ,57.5794 ,1.26974 ,0.69228 ,6.79266 
306 ,57.7712 ,1.27159 ,0.70939 ,6.96055 
307 ,57.9477 ,1.27344 ,0.68886 ,6.75908 
308 ,58.1396 ,1.27530 ,0.66833 ,6.55761 
309 ,58.3157 ,1.27707 ,0.66833 ,6.55761 
310 ,58.4914 ,1.27887 ,0.65464 ,6.42330 
311 ,58.6680 ,1.28061 ,0.64779 ,6.35614 
312 ,58.8600 ,1.28247 ,0.61015 ,5.98678 
313 ,59.0362 ,1.28431 ,0.60330 ,5.91962 
314 ,59.2283 ,1.28619 ,0.62042 ,6.08752 
315 ,59.4042 ,1.28810 ,0.57935 ,5.68458 
316 ,59.5804 ,1.28978 ,0.57593 ,5.65100 
317 ,59.7725 ,1.29164 ,0.57251 ,5.61742 
318 ,59.9805 ,1.29365 ,0.55539 ,5.44953 
319 ,60.1725 ,1.29558 ,0.55882 ,5.48311 
320 ,60.3487 ,1.29740 ,0.54171 ,5.31522 
321 ,60.5407 ,1.29928 ,0.51091 ,5.01301 
322 ,60.7488 ,1.30126 ,0.51433 ,5.04659 
323 ,60.9408 ,1.30336 ,0.49722 ,4.87870 
324 ,61.1327 ,1.30518 ,0.50748 ,4.97943 
325 ,61.3250 ,1.30706 ,0.49037 ,4.81154 
326 ,61.5171 ,1.30912 ,0.46300 ,4.54291 
327 ,61.7092 ,1.31095 ,0.45957 ,4.50934 
328 ,61.9013 ,1.31292 ,0.43904 ,4.30787 
329 ,62.1094 ,1.31498 ,0.44931 ,4.40860 
330 ,62.3009 ,1.31690 ,0.42193 ,4.13997 
331 ,62.4775 ,1.31869 ,0.40824 ,4.00566 
332 ,62.6692 ,1.32066 ,0.40482 ,3.97208 
333 ,62.8450 ,1.32246 ,0.39113 ,3.83777 
334 ,63.0051 ,1.32409 ,0.37060 ,3.63630 
335 ,63.1816 ,1.32575 ,0.36375 ,3.56914 
336 ,63.3895 ,1.32779 ,0.36033 ,3.53557 
337 ,63.5654 ,1.32960 ,0.36375 ,3.56914 
338 ,63.7416 ,1.33133 ,0.35349 ,3.46841 
339 ,63.9178 ,1.33311 ,0.32953 ,3.23336 
340 ,64.1097 ,1.33496 ,0.30558 ,2.99831 
341 ,64.3021 ,1.33694 ,0.31584 ,3.09905 
342 ,64.4944 ,1.33887 ,0.29189 ,2.86400 
343 ,64.7021 ,1.34098 ,0.29531 ,2.89758 
344 ,64.8941 ,1.34280 ,0.26793 ,2.62895 
345 ,65.0706 ,1.34461 ,0.26109 ,2.56179 
346 ,65.2467 ,1.34637 ,0.27135 ,2.66253 
347 ,65.4547 ,1.34830 ,0.24398 ,2.39390 
348 ,65.6467 ,1.35038 ,0.24055 ,2.36032 
349 ,65.8229 ,1.35215 ,0.22687 ,2.22601 
350 ,66.0149 ,1.35407 ,0.19949 ,1.95738 
351 ,66.1911 ,1.35582 ,0.19607 ,1.92381 
352 ,66.3831 ,1.35776 ,0.20976 ,2.05812 
353 ,66.6071 ,1.35972 ,0.16527 ,1.62160 
354 ,66.7833 ,1.36172 ,0.17896 ,1.75592 
355 ,66.9910 ,1.36378 ,0.15842 ,1.55445 
356 ,67.1993 ,1.36576 ,0.16185 ,1.58802 
357 ,67.3752 ,1.36768 ,0.13789 ,1.35298 
358 ,67.5516 ,1.36937 ,0.12420 ,1.21866 
359 ,67.7596 ,1.37150 ,0.12078 ,1.18508 
360 ,67.9358 ,1.37328 ,0.10709 ,1.05077 
361 ,68.1437 ,1.37529 ,0.10025 ,0.98361 
362 ,68.3198 ,1.37708 ,0.08314 ,0.81572 
363 ,68.5279 ,1.37902 ,0.07287 ,0.71499 
364 ,68.7199 ,1.38111 ,0.08656 ,0.84930 
365 ,68.9121 ,1.38294 ,0.04891 ,0.47994 
366 ,69.1042 ,1.38496 ,0.06602 ,0.64783 
367 ,69.2963 ,1.38681 ,0.01811 ,0.17773 
368 ,69.4885 ,1.38874 ,0.01811 ,0.17773 
369 ,69.6805 ,1.39071 ,0.03865 ,0.37920 
370 ,69.8725 ,1.39255 ,0.00100 ,0.00984 
371 ,70.0487 ,1.39439 ,-0.01269 ,-0.12447 
372 ,70.2402 ,1.39634 ,-0.01269 ,-0.12447 
373 ,70.4327 ,1.39813 ,-0.02637 ,-0.25878 
374 ,70.6405 ,1.40026 ,-0.04006 ,-0.39310 
375 ,70.8329 ,1.40213 ,-0.05375 ,-0.52741 
376 ,71.0408 ,1.40424 ,-0.05717 ,-0.56099 
377 ,71.2329 ,1.40613 ,-0.07428 ,-0.72888 
378 ,71.4090 ,1.40797 ,-0.08797 ,-0.86319 
379 ,71.5852 ,1.40975 ,-0.09824 ,-0.96393 
380 ,71.7773 ,1.41167 ,-0.09824 ,-0.96393 
381 ,71.9694 ,1.41352 ,-0.10508 ,-1.03108 
382 ,72.1771 ,1.41556 ,-0.11877 ,-1.16540 
383 ,72.3532 ,1.41746 ,-0.12219 ,-1.19898 
384 ,72.5456 ,1.41932 ,-0.13931 ,-1.36687 
385 ,72.7374 ,1.42126 ,-0.13246 ,-1.29971 
386 ,72.9137 ,1.42301 ,-0.15984 ,-1.56834 
387 ,73.1216 ,1.42504 ,-0.14957 ,-1.46760 
388 ,73.3459 ,1.42727 ,-0.17011 ,-1.66907 
389 ,73.5381 ,1.42919 ,-0.17353 ,-1.70265 
390 ,73.7460 ,1.43129 ,-0.19748 ,-1.93770 
391 ,73.9221 ,1.43310 ,-0.19748 ,-1.93770 
392 ,74.1139 ,1.43493 ,-0.21802 ,-2.13917 
393 ,74.3061 ,1.43692 ,-0.23855 ,-2.34064 
394 ,74.4984 ,1.43880 ,-0.22828 ,-2.23990 
395 ,74.6901 ,1.44069 ,-0.24539 ,-2.40779 
396 ,74.8985 ,1.44281 ,-0.26250 ,-2.57569 
397 ,75.1065 ,1.44490 ,-0.26593 ,-2.60926 
398 ,75.2986 ,1.44684 ,-0.25908 ,-2.54211 
399 ,75.4907 ,1.44872 ,-0.28988 ,-2.84431 
400 ,75.6665 ,1.45066 ,-0.30015 ,-2.94505 
401 ,75.8427 ,1.45231 ,-0.30357 ,-2.97863 
402 ,76.0189 ,1.45407 ,-0.29673 ,-2.91147 
403 ,76.2109 ,1.45591 ,-0.32068 ,-3.14652 
404 ,76.3872 ,1.45773 ,-0.33779 ,-3.31441 
405 ,76.5792 ,1.45963 ,-0.32752 ,-3.21367 
406 ,76.7711 ,1.46149 ,-0.34464 ,-3.38156 
407 ,76.9473 ,1.46330 ,-0.34806 ,-3.41514 
408 ,77.1233 ,1.46511 ,-0.36859 ,-3.61661 
409 ,77.3155 ,1.46690 ,-0.36517 ,-3.58303 
410 ,77.5235 ,1.46894 ,-0.38570 ,-3.78450 
411 ,77.7152 ,1.47111 ,-0.40281 ,-3.95240 
412 ,77.8752 ,1.47273 ,-0.39939 ,-3.91882 
413 ,78.0353 ,1.47433 ,-0.39939 ,-3.91882 
414 ,78.2113 ,1.47596 ,-0.40966 ,-4.01955 
415 ,78.3877 ,1.47770 ,-0.42335 ,-4.15387 
416 ,78.5640 ,1.47954 ,-0.44046 ,-4.32176 
417 ,78.7555 ,1.48137 ,-0.44730 ,-4.38891 
418 ,78.9320 ,1.48315 ,-0.45072 ,-4.42249 
419 ,79.1241 ,1.48505 ,-0.46441 ,-4.55681 
420 ,79.3003 ,1.48687 ,-0.47810 ,-4.69112 
421 ,79.4763 ,1.48869 ,-0.48494 ,-4.75828 
422 ,79.6524 ,1.49039 ,-0.48837 ,-4.79185 
423 ,79.8446 ,1.49223 ,-0.49863 ,-4.89259 
424 ,80.0526 ,1.49432 ,-0.49179 ,-4.82543 
425 ,80.2447 ,1.49634 ,-0.52259 ,-5.12764 
426 ,80.4367 ,1.49813 ,-0.51917 ,-5.09406 
427 ,80.6128 ,1.49997 ,-0.52943 ,-5.19479 
428 ,80.8047 ,1.50182 ,-0.54654 ,-5.36268 
429 ,80.9966 ,1.50378 ,-0.53970 ,-5.29553 
430 ,81.1890 ,1.50568 ,-0.56023 ,-5.49700 
431 ,81.3809 ,1.50758 ,-0.57050 ,-5.59773 
432 ,81.5732 ,1.50961 ,-0.57392 ,-5.63131 
433 ,81.7653 ,1.51144 ,-0.60814 ,-5.96709 
434 ,81.9575 ,1.51339 ,-0.59788 ,-5.86636 
435 ,82.1494 ,1.51525 ,-0.61156 ,-6.00067 
436 ,82.3255 ,1.51716 ,-0.61841 ,-6.06783 
437 ,82.5014 ,1.51892 ,-0.62525 ,-6.13499 
438 ,82.6777 ,1.52061 ,-0.64579 ,-6.33646 
439 ,82.8857 ,1.52258 ,-0.63894 ,-6.26930 
440 ,83.0938 ,1.52468 ,-0.64579 ,-6.33646 
441 ,83.2698 ,1.52648 ,-0.66632 ,-6.53793 
442 ,83.4622 ,1.52848 ,-0.67659 ,-6.63866 
443 ,83.6542 ,1.53043 ,-0.67659 ,-6.63866 
444 ,83.8300 ,1.53217 ,-0.67659 ,-6.63866 
445 ,84.0221 ,1.53405 ,-0.70054 ,-6.87371 
446 ,84.2139 ,1.53591 ,-0.68343 ,-6.70582 
447 ,84.4061 ,1.53785 ,-0.71081 ,-6.97444 
448 ,84.5984 ,1.53983 ,-0.72450 ,-7.10876 
449 ,84.7904 ,1.54174 ,-0.72450 ,-7.10876 
450 ,85.0146 ,1.54381 ,-0.72450 ,-7.10876 
451 ,85.2066 ,1.54599 ,-0.74845 ,-7.34380 
452 ,85.3668 ,1.54762 ,-0.75872 ,-7.44454 
453 ,85.5427 ,1.54925 ,-0.76214 ,-7.47812 
454 ,85.7349 ,1.55110 ,-0.76898 ,-7.54527 
455 ,85.9426 ,1.55314 ,-0.78267 ,-7.67959 
456 ,86.1190 ,1.55502 ,-0.79294 ,-7.78032 
457 ,86.2951 ,1.55680 ,-0.80321 ,-7.88106 
458 ,86.4709 ,1.55849 ,-0.80321 ,-7.88106 
459 ,86.6474 ,1.56031 ,-0.80321 ,-7.88106 
460 ,86.8393 ,1.56215 ,-0.82716 ,-8.11611 
461 ,87.0154 ,1.56399 ,-0.85112 ,-8.35115 
462 ,87.1916 ,1.56576 ,-0.83743 ,-8.21684 
463 ,87.4151 ,1.56783 ,-0.86138 ,-8.45189 
