Data stamp = , 24-04-2022 00:17:09 681

Calibration Values: 
Slope = , 26.54 , g/V 
Offset Voltage at no contact = , -0.501760 , V 

No , Time , Stage Position ,   Mass , Force 
   ,  (s) ,      (mm)      ,   (g)  , (mN)  

1 ,0.0000 ,0.69936 ,5.29852 ,51.98905 
2 ,0.2170 ,0.69947 ,5.31563 ,52.15694 
3 ,0.6016 ,0.70052 ,5.32247 ,52.22410 
4 ,0.8095 ,0.70231 ,5.32247 ,52.22410 
5 ,0.9856 ,0.70397 ,5.31905 ,52.19052 
6 ,1.1617 ,0.70573 ,5.31905 ,52.19052 
7 ,1.3538 ,0.70763 ,5.30878 ,52.08979 
8 ,1.5299 ,0.70933 ,5.30878 ,52.08979 
9 ,1.7058 ,0.71120 ,5.30194 ,52.02263 
10 ,1.8980 ,0.71307 ,5.27456 ,51.75401 
11 ,2.0901 ,0.71493 ,5.27798 ,51.78758 
12 ,2.2820 ,0.71690 ,5.25403 ,51.55254 
13 ,2.4585 ,0.71875 ,5.23692 ,51.38464 
14 ,2.6499 ,0.72069 ,5.21981 ,51.21675 
15 ,2.8265 ,0.72242 ,5.19585 ,50.98170 
16 ,3.0346 ,0.72441 ,5.16163 ,50.64592 
17 ,3.2105 ,0.72627 ,5.16505 ,50.67950 
18 ,3.3866 ,0.72796 ,5.14452 ,50.47803 
19 ,3.5626 ,0.72971 ,5.12056 ,50.24298 
20 ,3.7383 ,0.73153 ,5.10688 ,50.10867 
21 ,3.9147 ,0.73324 ,5.08634 ,49.90720 
22 ,4.0910 ,0.73503 ,5.06581 ,49.70573 
23 ,4.2828 ,0.73691 ,5.05897 ,49.63857 
24 ,4.4750 ,0.73878 ,5.04185 ,49.47068 
25 ,4.6672 ,0.74070 ,5.01790 ,49.23563 
26 ,4.8270 ,0.74249 ,4.99394 ,49.00058 
27 ,5.0033 ,0.74411 ,4.98368 ,48.89985 
28 ,5.1952 ,0.74605 ,4.95288 ,48.59764 
29 ,5.3714 ,0.74780 ,4.93577 ,48.42975 
30 ,5.5473 ,0.74958 ,4.91866 ,48.26186 
31 ,5.7396 ,0.75144 ,4.89812 ,48.06039 
32 ,5.8996 ,0.75322 ,4.88101 ,47.89250 
33 ,6.0755 ,0.75487 ,4.87075 ,47.79177 
34 ,6.2678 ,0.75670 ,4.86048 ,47.69103 
35 ,6.4599 ,0.75872 ,4.82968 ,47.38883 
36 ,6.6357 ,0.76041 ,4.80573 ,47.15378 
37 ,6.8120 ,0.76219 ,4.78519 ,46.95231 
38 ,6.9880 ,0.76398 ,4.76808 ,46.78442 
39 ,7.1644 ,0.76573 ,4.76124 ,46.71726 
40 ,7.3721 ,0.76777 ,4.73044 ,46.41506 
41 ,7.5484 ,0.76960 ,4.72359 ,46.34790 
42 ,7.7405 ,0.77144 ,4.71333 ,46.24716 
43 ,7.9165 ,0.77325 ,4.70306 ,46.14643 
44 ,8.0925 ,0.77504 ,4.66884 ,45.81065 
45 ,8.2847 ,0.77691 ,4.64831 ,45.60918 
46 ,8.4765 ,0.77876 ,4.61408 ,45.27339 
47 ,8.6688 ,0.78075 ,4.61751 ,45.30697 
48 ,8.8449 ,0.78253 ,4.60040 ,45.13908 
49 ,9.0366 ,0.78440 ,4.58671 ,45.00477 
50 ,9.2450 ,0.78640 ,4.54564 ,44.60183 
51 ,9.4531 ,0.78857 ,4.53880 ,44.53467 
52 ,9.6613 ,0.79064 ,4.53537 ,44.50109 
53 ,9.8212 ,0.79241 ,4.50457 ,44.19889 
54 ,9.9974 ,0.79406 ,4.49431 ,44.09815 
55 ,10.2054 ,0.79607 ,4.47035 ,43.86310 
56 ,10.3815 ,0.79791 ,4.44982 ,43.66163 
57 ,10.5574 ,0.79972 ,4.41902 ,43.35943 
58 ,10.7337 ,0.80139 ,4.41902 ,43.35943 
59 ,10.9256 ,0.80335 ,4.40875 ,43.25870 
60 ,11.1178 ,0.80531 ,4.39507 ,43.12438 
61 ,11.3098 ,0.80712 ,4.35742 ,42.75502 
62 ,11.4859 ,0.80893 ,4.33347 ,42.51997 
63 ,11.6620 ,0.81068 ,4.34031 ,42.58713 
64 ,11.8701 ,0.81265 ,4.30951 ,42.28492 
65 ,12.0623 ,0.81473 ,4.29924 ,42.18419 
66 ,12.2378 ,0.81651 ,4.28556 ,42.04988 
67 ,12.4141 ,0.81823 ,4.27187 ,41.91556 
68 ,12.6224 ,0.82023 ,4.25133 ,41.71409 
69 ,12.7981 ,0.82206 ,4.23080 ,41.51262 
70 ,12.9743 ,0.82380 ,4.20342 ,41.24400 
71 ,13.1506 ,0.82559 ,4.19316 ,41.14326 
72 ,13.3422 ,0.82754 ,4.17605 ,40.97537 
73 ,13.5188 ,0.82931 ,4.15894 ,40.80748 
74 ,13.7108 ,0.83122 ,4.12471 ,40.47170 
75 ,13.8869 ,0.83295 ,4.11103 ,40.33738 
76 ,14.0789 ,0.83484 ,4.11445 ,40.37096 
77 ,14.2710 ,0.83678 ,4.08365 ,40.06876 
78 ,14.4791 ,0.83879 ,4.07338 ,39.96802 
79 ,14.6872 ,0.84086 ,4.04258 ,39.66582 
80 ,14.8793 ,0.84279 ,4.03574 ,39.59866 
81 ,15.0713 ,0.84478 ,4.00494 ,39.29646 
82 ,15.2475 ,0.84653 ,3.98098 ,39.06141 
83 ,15.4395 ,0.84841 ,3.98783 ,39.12856 
84 ,15.5995 ,0.85016 ,3.96387 ,38.89352 
85 ,15.7913 ,0.85191 ,3.93650 ,38.62489 
86 ,15.9679 ,0.85378 ,3.91938 ,38.45700 
87 ,16.1596 ,0.85564 ,3.91596 ,38.42342 
88 ,16.3359 ,0.85744 ,3.91596 ,38.42342 
89 ,16.5279 ,0.85920 ,3.88516 ,38.12122 
90 ,16.7039 ,0.86114 ,3.86121 ,37.88617 
91 ,16.8960 ,0.86300 ,3.85094 ,37.78543 
92 ,17.0721 ,0.86478 ,3.83041 ,37.58396 
93 ,17.2803 ,0.86672 ,3.81330 ,37.41607 
94 ,17.4883 ,0.86886 ,3.78250 ,37.11387 
95 ,17.6641 ,0.87069 ,3.77223 ,37.01313 
96 ,17.8402 ,0.87246 ,3.75512 ,36.84524 
97 ,18.0325 ,0.87440 ,3.74143 ,36.71093 
98 ,18.2085 ,0.87615 ,3.72090 ,36.50946 
99 ,18.3847 ,0.87786 ,3.70379 ,36.34157 
100 ,18.5767 ,0.87981 ,3.69352 ,36.24083 
101 ,18.7528 ,0.88165 ,3.65588 ,35.87147 
102 ,18.9285 ,0.88337 ,3.66272 ,35.93863 
103 ,19.1049 ,0.88506 ,3.63534 ,35.67000 
104 ,19.2811 ,0.88685 ,3.61481 ,35.46853 
105 ,19.4732 ,0.88886 ,3.59086 ,35.23348 
106 ,19.6492 ,0.89055 ,3.58059 ,35.13275 
107 ,19.8252 ,0.89226 ,3.56348 ,34.96485 
108 ,20.0174 ,0.89424 ,3.55663 ,34.89770 
109 ,20.1935 ,0.89596 ,3.54295 ,34.76338 
110 ,20.3856 ,0.89785 ,3.51557 ,34.49476 
111 ,20.5617 ,0.89971 ,3.52241 ,34.56192 
112 ,20.7537 ,0.90159 ,3.50530 ,34.39402 
113 ,20.9618 ,0.90361 ,3.46424 ,33.99108 
114 ,21.1699 ,0.90570 ,3.44370 ,33.78961 
115 ,21.3781 ,0.90771 ,3.44713 ,33.82319 
116 ,21.5701 ,0.90975 ,3.42659 ,33.62172 
117 ,21.7461 ,0.91150 ,3.39921 ,33.35310 
118 ,21.9217 ,0.91322 ,3.37526 ,33.11805 
119 ,22.0984 ,0.91507 ,3.36499 ,33.01731 
120 ,22.2742 ,0.91674 ,3.36499 ,33.01731 
121 ,22.4503 ,0.91851 ,3.35130 ,32.88300 
122 ,22.6264 ,0.92027 ,3.31366 ,32.51364 
123 ,22.8025 ,0.92215 ,3.31366 ,32.51364 
124 ,22.9783 ,0.92380 ,3.28971 ,32.27859 
125 ,23.1707 ,0.92565 ,3.28628 ,32.24501 
126 ,23.3948 ,0.92787 ,3.25891 ,31.97639 
127 ,23.5868 ,0.92989 ,3.24864 ,31.87565 
128 ,23.7629 ,0.93163 ,3.21784 ,31.57345 
129 ,23.9870 ,0.93381 ,3.20073 ,31.40555 
130 ,24.1630 ,0.93563 ,3.18020 ,31.20409 
131 ,24.3550 ,0.93749 ,3.18704 ,31.27124 
132 ,24.5312 ,0.93934 ,3.16993 ,31.10335 
133 ,24.7074 ,0.94113 ,3.15282 ,30.93546 
134 ,24.8832 ,0.94283 ,3.13571 ,30.76757 
135 ,25.0595 ,0.94463 ,3.11175 ,30.53252 
136 ,25.2195 ,0.94630 ,3.09122 ,30.33105 
137 ,25.3956 ,0.94798 ,3.09122 ,30.33105 
138 ,25.5718 ,0.94974 ,3.08095 ,30.23031 
139 ,25.7476 ,0.95154 ,3.05358 ,29.96169 
140 ,25.9396 ,0.95331 ,3.04673 ,29.89453 
141 ,26.1320 ,0.95528 ,3.03647 ,29.79380 
142 ,26.3080 ,0.95710 ,3.00909 ,29.52517 
143 ,26.5002 ,0.95901 ,2.97829 ,29.22297 
144 ,26.6920 ,0.96089 ,2.98513 ,29.29012 
145 ,26.8683 ,0.96272 ,2.96802 ,29.12223 
146 ,27.0762 ,0.96467 ,2.94064 ,28.85360 
147 ,27.2680 ,0.96669 ,2.95776 ,29.02150 
148 ,27.4445 ,0.96852 ,2.92696 ,28.71929 
149 ,27.6527 ,0.97051 ,2.90642 ,28.51782 
150 ,27.8443 ,0.97242 ,2.86878 ,28.14846 
151 ,28.0368 ,0.97426 ,2.85167 ,27.98057 
152 ,28.2129 ,0.97613 ,2.85167 ,27.98057 
153 ,28.3887 ,0.97790 ,2.85509 ,28.01415 
154 ,28.5651 ,0.97962 ,2.82771 ,27.74552 
155 ,28.7411 ,0.98142 ,2.81402 ,27.61121 
156 ,28.9332 ,0.98328 ,2.81060 ,27.57763 
157 ,29.1252 ,0.98525 ,2.77980 ,27.27542 
158 ,29.3012 ,0.98704 ,2.75243 ,27.00680 
159 ,29.4774 ,0.98881 ,2.74558 ,26.93964 
160 ,29.6695 ,0.99063 ,2.73874 ,26.87248 
161 ,29.8618 ,0.99262 ,2.70109 ,26.50312 
162 ,30.0697 ,0.99465 ,2.71136 ,26.60386 
163 ,30.2619 ,0.99662 ,2.67372 ,26.23450 
164 ,30.4535 ,0.99859 ,2.64634 ,25.96587 
165 ,30.6299 ,1.00034 ,2.66345 ,26.13376 
166 ,30.8242 ,1.00222 ,2.63949 ,25.89871 
167 ,31.0301 ,1.00431 ,2.62238 ,25.73082 
168 ,31.2062 ,1.00608 ,2.61554 ,25.66367 
169 ,31.3982 ,1.00794 ,2.58132 ,25.32788 
170 ,31.5579 ,1.00969 ,2.57789 ,25.29430 
171 ,31.7341 ,1.01140 ,2.54710 ,24.99210 
172 ,31.9104 ,1.01318 ,2.55394 ,25.05926 
173 ,32.0866 ,1.01488 ,2.53341 ,24.85779 
174 ,32.2786 ,1.01670 ,2.50945 ,24.62274 
175 ,32.4706 ,1.01867 ,2.51630 ,24.68989 
176 ,32.6627 ,1.02055 ,2.47865 ,24.32053 
177 ,32.8388 ,1.02236 ,2.45470 ,24.08549 
178 ,33.0308 ,1.02431 ,2.45127 ,24.05191 
179 ,33.2069 ,1.02612 ,2.44785 ,24.01833 
180 ,33.3991 ,1.02796 ,2.41705 ,23.71612 
181 ,33.5911 ,1.02985 ,2.42390 ,23.78328 
182 ,33.7992 ,1.03194 ,2.39310 ,23.48108 
183 ,33.9749 ,1.03373 ,2.36572 ,23.21245 
184 ,34.1512 ,1.03554 ,2.34861 ,23.04456 
185 ,34.3435 ,1.03734 ,2.34861 ,23.04456 
186 ,34.5354 ,1.03934 ,2.32808 ,22.84309 
187 ,34.7276 ,1.04121 ,2.32808 ,22.84309 
188 ,34.9356 ,1.04327 ,2.29385 ,22.50731 
189 ,35.1276 ,1.04530 ,2.29043 ,22.47373 
190 ,35.3036 ,1.04699 ,2.28701 ,22.44015 
191 ,35.5118 ,1.04908 ,2.25963 ,22.17152 
192 ,35.6879 ,1.05087 ,2.23910 ,21.97005 
193 ,35.8960 ,1.05285 ,2.22541 ,21.83574 
194 ,36.0721 ,1.05469 ,2.20146 ,21.60069 
195 ,36.2482 ,1.05648 ,2.20146 ,21.60069 
196 ,36.4562 ,1.05851 ,2.16723 ,21.26491 
197 ,36.6324 ,1.06030 ,2.15355 ,21.13059 
198 ,36.8240 ,1.06222 ,2.16723 ,21.26491 
199 ,37.0004 ,1.06396 ,2.12959 ,20.89555 
200 ,37.1926 ,1.06587 ,2.11590 ,20.76123 
201 ,37.4007 ,1.06795 ,2.10906 ,20.69408 
202 ,37.5926 ,1.06990 ,2.08852 ,20.49261 
203 ,37.7689 ,1.07165 ,2.09195 ,20.52619 
204 ,37.9606 ,1.07349 ,2.06457 ,20.25756 
205 ,38.1529 ,1.07544 ,2.04061 ,20.02251 
206 ,38.3608 ,1.07753 ,2.03035 ,19.92178 
207 ,38.5370 ,1.07931 ,2.01324 ,19.75388 
208 ,38.7290 ,1.08126 ,2.01324 ,19.75388 
209 ,38.9050 ,1.08305 ,2.00639 ,19.68673 
210 ,39.0968 ,1.08487 ,1.96190 ,19.25021 
211 ,39.2894 ,1.08678 ,1.97217 ,19.35094 
212 ,39.4815 ,1.08881 ,1.96875 ,19.31737 
213 ,39.6731 ,1.09075 ,1.92426 ,18.88085 
214 ,39.8656 ,1.09254 ,1.92426 ,18.88085 
215 ,40.0417 ,1.09439 ,1.91742 ,18.81369 
216 ,40.2498 ,1.09643 ,1.89688 ,18.61222 
217 ,40.4579 ,1.09850 ,1.86266 ,18.27644 
218 ,40.6499 ,1.10043 ,1.86266 ,18.27644 
219 ,40.8419 ,1.10238 ,1.85582 ,18.20928 
220 ,41.0338 ,1.10430 ,1.82844 ,17.94066 
221 ,41.2258 ,1.10617 ,1.82502 ,17.90708 
222 ,41.4182 ,1.10808 ,1.81133 ,17.77276 
223 ,41.6264 ,1.11016 ,1.80449 ,17.70561 
224 ,41.8184 ,1.11206 ,1.76684 ,17.33625 
225 ,42.0265 ,1.11411 ,1.75315 ,17.20193 
226 ,42.2185 ,1.11607 ,1.73604 ,17.03404 
227 ,42.4105 ,1.11806 ,1.72920 ,16.96689 
228 ,42.6027 ,1.11999 ,1.72578 ,16.93331 
229 ,42.7948 ,1.12187 ,1.69498 ,16.63110 
230 ,42.9869 ,1.12386 ,1.69840 ,16.66468 
231 ,43.1626 ,1.12573 ,1.69155 ,16.59752 
232 ,43.3550 ,1.12748 ,1.66075 ,16.29532 
233 ,43.5468 ,1.12934 ,1.66075 ,16.29532 
234 ,43.7390 ,1.13131 ,1.64364 ,16.12743 
235 ,43.9313 ,1.13324 ,1.62311 ,15.92596 
236 ,44.1231 ,1.13510 ,1.62311 ,15.92596 
237 ,44.3154 ,1.13705 ,1.59573 ,15.65733 
238 ,44.4910 ,1.13893 ,1.58889 ,15.59018 
239 ,44.6673 ,1.14065 ,1.55809 ,15.28797 
240 ,44.8593 ,1.14255 ,1.56151 ,15.32155 
241 ,45.0356 ,1.14433 ,1.55124 ,15.22081 
242 ,45.2117 ,1.14608 ,1.51702 ,14.88503 
243 ,45.4037 ,1.14794 ,1.53071 ,15.01934 
244 ,45.5793 ,1.14987 ,1.51702 ,14.88503 
245 ,45.7558 ,1.15153 ,1.49307 ,14.64998 
246 ,45.9155 ,1.15322 ,1.47253 ,14.44851 
247 ,46.0920 ,1.15484 ,1.45885 ,14.31420 
248 ,46.2682 ,1.15663 ,1.46569 ,14.38136 
249 ,46.4443 ,1.15841 ,1.45542 ,14.28062 
250 ,46.6200 ,1.16019 ,1.44858 ,14.21346 
251 ,46.8284 ,1.16208 ,1.41094 ,13.84410 
252 ,47.0366 ,1.16424 ,1.41094 ,13.84410 
253 ,47.2285 ,1.16623 ,1.38014 ,13.54190 
254 ,47.4045 ,1.16798 ,1.38356 ,13.57548 
255 ,47.5968 ,1.16991 ,1.37329 ,13.47474 
256 ,47.8047 ,1.17192 ,1.34934 ,13.23969 
257 ,47.9969 ,1.17387 ,1.33223 ,13.07180 
258 ,48.1890 ,1.17585 ,1.32538 ,13.00465 
259 ,48.3812 ,1.17771 ,1.32196 ,12.97107 
260 ,48.5570 ,1.17954 ,1.30827 ,12.83675 
261 ,48.7331 ,1.18129 ,1.29116 ,12.66886 
262 ,48.9093 ,1.18305 ,1.27405 ,12.50097 
263 ,49.0850 ,1.18476 ,1.26378 ,12.40024 
264 ,49.2616 ,1.18654 ,1.26378 ,12.40024 
265 ,49.4373 ,1.18832 ,1.25694 ,12.33308 
266 ,49.6296 ,1.19015 ,1.21929 ,11.96372 
267 ,49.8375 ,1.19221 ,1.23983 ,12.16519 
268 ,50.0458 ,1.19432 ,1.19876 ,11.76225 
269 ,50.2374 ,1.19630 ,1.19534 ,11.72867 
270 ,50.4136 ,1.19801 ,1.17138 ,11.49362 
271 ,50.5897 ,1.19982 ,1.15085 ,11.29215 
272 ,50.7821 ,1.20175 ,1.15770 ,11.35931 
273 ,50.9901 ,1.20377 ,1.13374 ,11.12426 
274 ,51.1662 ,1.20553 ,1.12690 ,11.05710 
275 ,51.3422 ,1.20732 ,1.11321 ,10.92279 
276 ,51.5183 ,1.20907 ,1.10636 ,10.85563 
277 ,51.6943 ,1.21084 ,1.09610 ,10.75490 
278 ,51.8705 ,1.21260 ,1.07214 ,10.51985 
279 ,52.0786 ,1.21467 ,1.06530 ,10.45270 
280 ,52.2865 ,1.21668 ,1.04134 ,10.21765 
281 ,52.4631 ,1.21853 ,1.04476 ,10.25123 
282 ,52.6547 ,1.22044 ,1.01396 ,9.94902 
283 ,52.8308 ,1.22222 ,1.00370 ,9.84829 
284 ,53.0070 ,1.22401 ,0.99343 ,9.74755 
285 ,53.2149 ,1.22599 ,0.97974 ,9.61324 
286 ,53.4231 ,1.22806 ,0.98659 ,9.68039 
287 ,53.5993 ,1.22993 ,0.97290 ,9.54608 
288 ,53.7912 ,1.23181 ,0.94210 ,9.24388 
289 ,53.9675 ,1.23357 ,0.92157 ,9.04241 
290 ,54.1590 ,1.23550 ,0.93183 ,9.14314 
291 ,54.3355 ,1.23728 ,0.91814 ,9.00883 
292 ,54.5596 ,1.23939 ,0.91130 ,8.94167 
293 ,54.7354 ,1.24127 ,0.90103 ,8.84094 
294 ,54.9118 ,1.24315 ,0.88050 ,8.63947 
295 ,55.0878 ,1.24481 ,0.87023 ,8.53873 
296 ,55.2796 ,1.24668 ,0.84970 ,8.33726 
297 ,55.4559 ,1.24848 ,0.86339 ,8.47158 
298 ,55.6320 ,1.25022 ,0.84286 ,8.27011 
299 ,55.8082 ,1.25204 ,0.81206 ,7.96790 
300 ,56.0002 ,1.25392 ,0.81890 ,8.03506 
301 ,56.1922 ,1.25574 ,0.78810 ,7.73285 
302 ,56.3685 ,1.25758 ,0.77784 ,7.63212 
303 ,56.5599 ,1.25953 ,0.78126 ,7.66570 
304 ,56.7359 ,1.26133 ,0.75730 ,7.43065 
305 ,56.9120 ,1.26305 ,0.73677 ,7.22918 
306 ,57.0883 ,1.26475 ,0.74019 ,7.26276 
307 ,57.2968 ,1.26683 ,0.74019 ,7.26276 
308 ,57.4888 ,1.26876 ,0.72650 ,7.12844 
309 ,57.6969 ,1.27078 ,0.71281 ,6.99413 
310 ,57.8887 ,1.27278 ,0.70597 ,6.92697 
311 ,58.0650 ,1.27455 ,0.68544 ,6.72550 
312 ,58.2411 ,1.27629 ,0.67175 ,6.59119 
313 ,58.4167 ,1.27809 ,0.67859 ,6.65835 
314 ,58.6091 ,1.27991 ,0.65806 ,6.45688 
315 ,58.8014 ,1.28189 ,0.63068 ,6.18825 
316 ,59.0094 ,1.28389 ,0.64095 ,6.28899 
317 ,59.2015 ,1.28589 ,0.62042 ,6.08752 
318 ,59.3776 ,1.28768 ,0.61015 ,5.98678 
319 ,59.5697 ,1.28959 ,0.59646 ,5.85247 
320 ,59.7457 ,1.29138 ,0.57251 ,5.61742 
321 ,59.9378 ,1.29323 ,0.59304 ,5.81889 
322 ,60.1135 ,1.29501 ,0.56908 ,5.58384 
323 ,60.3219 ,1.29698 ,0.54855 ,5.38237 
324 ,60.5299 ,1.29913 ,0.52802 ,5.18090 
325 ,60.7060 ,1.30096 ,0.52802 ,5.18090 
326 ,60.9141 ,1.30292 ,0.52117 ,5.11375 
327 ,61.0902 ,1.30479 ,0.50406 ,4.94585 
328 ,61.2665 ,1.30660 ,0.48353 ,4.74438 
329 ,61.4741 ,1.30852 ,0.48695 ,4.77796 
330 ,61.6500 ,1.31039 ,0.45615 ,4.47576 
331 ,61.8425 ,1.31225 ,0.45273 ,4.44218 
332 ,62.0346 ,1.31428 ,0.44588 ,4.37502 
333 ,62.2265 ,1.31607 ,0.43220 ,4.24071 
334 ,62.4028 ,1.31794 ,0.43220 ,4.24071 
335 ,62.5947 ,1.31973 ,0.41851 ,4.10640 
336 ,62.7706 ,1.32158 ,0.40824 ,4.00566 
337 ,62.9468 ,1.32337 ,0.38429 ,3.77061 
338 ,63.1230 ,1.32511 ,0.36718 ,3.60272 
339 ,63.3151 ,1.32696 ,0.38086 ,3.73703 
340 ,63.5233 ,1.32906 ,0.35006 ,3.43483 
341 ,63.7153 ,1.33101 ,0.34322 ,3.36767 
342 ,63.9073 ,1.33298 ,0.33295 ,3.26694 
343 ,64.0835 ,1.33471 ,0.31926 ,3.13263 
344 ,64.2753 ,1.33665 ,0.31242 ,3.06547 
345 ,64.4678 ,1.33858 ,0.30900 ,3.03189 
346 ,64.6437 ,1.34030 ,0.28162 ,2.76326 
347 ,64.8358 ,1.34213 ,0.29873 ,2.93116 
348 ,65.0117 ,1.34398 ,0.26793 ,2.62895 
349 ,65.2037 ,1.34585 ,0.24740 ,2.42748 
350 ,65.3800 ,1.34766 ,0.24398 ,2.39390 
351 ,65.5721 ,1.34955 ,0.23713 ,2.32675 
352 ,65.7641 ,1.35143 ,0.22344 ,2.19243 
353 ,65.9402 ,1.35327 ,0.20633 ,2.02454 
354 ,66.1483 ,1.35518 ,0.22344 ,2.19243 
355 ,66.3404 ,1.35729 ,0.18238 ,1.78949 
356 ,66.5165 ,1.35907 ,0.18580 ,1.82307 
357 ,66.7083 ,1.36096 ,0.18238 ,1.78949 
358 ,66.9003 ,1.36286 ,0.16527 ,1.62160 
359 ,67.0763 ,1.36456 ,0.16185 ,1.58802 
360 ,67.2528 ,1.36646 ,0.14131 ,1.38655 
361 ,67.4447 ,1.36827 ,0.13105 ,1.28582 
362 ,67.6208 ,1.37009 ,0.11051 ,1.08435 
363 ,67.8290 ,1.37206 ,0.11393 ,1.11793 
364 ,68.0211 ,1.37404 ,0.09682 ,0.95004 
365 ,68.2131 ,1.37603 ,0.08656 ,0.84930 
366 ,68.3889 ,1.37774 ,0.10025 ,0.98361 
367 ,68.5655 ,1.37953 ,0.06945 ,0.68141 
368 ,68.7414 ,1.38128 ,0.05234 ,0.51352 
369 ,68.9494 ,1.38331 ,0.04549 ,0.44636 
370 ,69.1256 ,1.38507 ,0.03865 ,0.37920 
371 ,69.3016 ,1.38695 ,0.03180 ,0.31205 
372 ,69.4778 ,1.38866 ,0.01469 ,0.14416 
373 ,69.6701 ,1.39051 ,0.01127 ,0.11058 
374 ,69.8620 ,1.39242 ,-0.01269 ,-0.12447 
375 ,70.0858 ,1.39469 ,-0.00926 ,-0.09089 
376 ,70.2936 ,1.39678 ,-0.01953 ,-0.19163 
377 ,70.4862 ,1.39866 ,-0.04348 ,-0.42667 
378 ,70.6940 ,1.40073 ,-0.03322 ,-0.32594 
379 ,70.8863 ,1.40261 ,-0.05717 ,-0.56099 
380 ,71.0781 ,1.40456 ,-0.06744 ,-0.66172 
381 ,71.2706 ,1.40653 ,-0.07428 ,-0.72888 
382 ,71.4624 ,1.40841 ,-0.08797 ,-0.86319 
383 ,71.6386 ,1.41024 ,-0.10508 ,-1.03108 
384 ,71.8144 ,1.41195 ,-0.10851 ,-1.06466 
385 ,71.9907 ,1.41376 ,-0.09482 ,-0.93035 
386 ,72.1666 ,1.41546 ,-0.11193 ,-1.09824 
387 ,72.3589 ,1.41737 ,-0.13246 ,-1.29971 
388 ,72.5508 ,1.41934 ,-0.13246 ,-1.29971 
389 ,72.7591 ,1.42131 ,-0.15299 ,-1.50118 
390 ,72.9511 ,1.42326 ,-0.15299 ,-1.50118 
391 ,73.1271 ,1.42508 ,-0.15299 ,-1.50118 
392 ,73.3033 ,1.42686 ,-0.17695 ,-1.73623 
393 ,73.4794 ,1.42867 ,-0.19064 ,-1.87054 
394 ,73.6715 ,1.43050 ,-0.20090 ,-1.97128 
395 ,73.8635 ,1.43240 ,-0.20433 ,-2.00485 
396 ,74.0556 ,1.43438 ,-0.21459 ,-2.10559 
397 ,74.2316 ,1.43622 ,-0.22144 ,-2.17275 
398 ,74.4077 ,1.43794 ,-0.22486 ,-2.20632 
399 ,74.6154 ,1.43990 ,-0.24881 ,-2.44137 
400 ,74.7919 ,1.44177 ,-0.25566 ,-2.50853 
401 ,74.9837 ,1.44359 ,-0.26935 ,-2.64284 
402 ,75.1756 ,1.44550 ,-0.26935 ,-2.64284 
403 ,75.3520 ,1.44737 ,-0.28646 ,-2.81073 
404 ,75.5439 ,1.44925 ,-0.28646 ,-2.81073 
405 ,75.7361 ,1.45119 ,-0.30015 ,-2.94505 
406 ,75.9123 ,1.45292 ,-0.32068 ,-3.14652 
407 ,76.0882 ,1.45473 ,-0.32410 ,-3.18010 
408 ,76.2966 ,1.45670 ,-0.33779 ,-3.31441 
409 ,76.4883 ,1.45866 ,-0.33437 ,-3.28083 
410 ,76.6967 ,1.46062 ,-0.36175 ,-3.54946 
411 ,76.8726 ,1.46253 ,-0.37201 ,-3.65019 
412 ,77.0968 ,1.46461 ,-0.35490 ,-3.48230 
413 ,77.2726 ,1.46652 ,-0.37544 ,-3.68377 
414 ,77.4649 ,1.46849 ,-0.38228 ,-3.75093 
415 ,77.6408 ,1.47027 ,-0.39597 ,-3.88524 
416 ,77.8486 ,1.47218 ,-0.40966 ,-4.01955 
417 ,78.0410 ,1.47411 ,-0.41650 ,-4.08671 
418 ,78.2493 ,1.47623 ,-0.43361 ,-4.25460 
419 ,78.4412 ,1.47830 ,-0.42335 ,-4.15387 
420 ,78.6174 ,1.48000 ,-0.44046 ,-4.32176 
421 ,78.8091 ,1.48190 ,-0.46441 ,-4.55681 
422 ,78.9696 ,1.48365 ,-0.44730 ,-4.38891 
423 ,79.1616 ,1.48538 ,-0.47126 ,-4.62396 
424 ,79.3378 ,1.48722 ,-0.48494 ,-4.75828 
425 ,79.5297 ,1.48902 ,-0.46441 ,-4.55681 
426 ,79.7219 ,1.49099 ,-0.50548 ,-4.95975 
427 ,79.9456 ,1.49311 ,-0.50890 ,-4.99332 
428 ,80.1378 ,1.49510 ,-0.52259 ,-5.12764 
429 ,80.3301 ,1.49708 ,-0.52601 ,-5.16121 
430 ,80.5062 ,1.49892 ,-0.52601 ,-5.16121 
431 ,80.7140 ,1.50087 ,-0.55681 ,-5.46342 
432 ,80.8905 ,1.50273 ,-0.53970 ,-5.29553 
433 ,81.0984 ,1.50472 ,-0.56708 ,-5.56415 
434 ,81.2905 ,1.50665 ,-0.57050 ,-5.59773 
435 ,81.4667 ,1.50851 ,-0.56365 ,-5.53058 
436 ,81.6744 ,1.51047 ,-0.59445 ,-5.83278 
437 ,81.8669 ,1.51239 ,-0.58077 ,-5.69847 
438 ,82.0905 ,1.51466 ,-0.60814 ,-5.96709 
439 ,82.2829 ,1.51662 ,-0.61156 ,-6.00067 
440 ,82.4910 ,1.51867 ,-0.63894 ,-6.26930 
441 ,82.6830 ,1.52055 ,-0.63210 ,-6.20214 
442 ,82.8594 ,1.52240 ,-0.63894 ,-6.26930 
443 ,83.0511 ,1.52427 ,-0.64579 ,-6.33646 
444 ,83.2273 ,1.52608 ,-0.67316 ,-6.60508 
445 ,83.4037 ,1.52780 ,-0.66290 ,-6.50435 
446 ,83.5954 ,1.52976 ,-0.68343 ,-6.70582 
447 ,83.7717 ,1.53151 ,-0.69370 ,-6.80655 
448 ,83.9797 ,1.53349 ,-0.69370 ,-6.80655 
449 ,84.1718 ,1.53540 ,-0.70739 ,-6.94086 
450 ,84.3478 ,1.53733 ,-0.71081 ,-6.97444 
451 ,84.5558 ,1.53930 ,-0.72792 ,-7.14233 
452 ,84.7317 ,1.54113 ,-0.74161 ,-7.27665 
453 ,84.9235 ,1.54298 ,-0.73818 ,-7.24307 
454 ,85.1162 ,1.54492 ,-0.74503 ,-7.31023 
455 ,85.3238 ,1.54695 ,-0.75530 ,-7.41096 
456 ,85.5162 ,1.54887 ,-0.78267 ,-7.67959 
457 ,85.7084 ,1.55090 ,-0.78610 ,-7.71317 
458 ,85.9005 ,1.55275 ,-0.77925 ,-7.64601 
459 ,86.0926 ,1.55475 ,-0.79978 ,-7.84748 
460 ,86.2845 ,1.55658 ,-0.78610 ,-7.71317 
461 ,86.4607 ,1.55839 ,-0.81005 ,-7.94821 
462 ,86.6367 ,1.56012 ,-0.82374 ,-8.08253 
463 ,86.8127 ,1.56192 ,-0.82032 ,-8.04895 
