Data stamp = , 25-04-2022 04:09:23 584

Calibration Values: 
Slope = , 26.54 , g/V 
Offset Voltage at no contact = , -0.501760 , V 

No , Time , Stage Position ,   Mass , Force 
   ,  (s) ,      (mm)      ,   (g)  , (mN)  

1 ,0.0000 ,0.69945 ,5.26087 ,51.61969 
2 ,0.2157 ,0.69954 ,5.26430 ,51.65327 
3 ,0.6800 ,0.70088 ,5.27114 ,51.72043 
4 ,0.8883 ,0.70317 ,5.26772 ,51.68685 
5 ,1.0800 ,0.70502 ,5.24718 ,51.48538 
6 ,1.2725 ,0.70691 ,5.26430 ,51.65327 
7 ,1.4484 ,0.70868 ,5.28483 ,51.85474 
8 ,1.6408 ,0.71051 ,5.26772 ,51.68685 
9 ,1.8328 ,0.71247 ,5.27114 ,51.72043 
10 ,2.0250 ,0.71442 ,5.25061 ,51.51896 
11 ,2.2328 ,0.71653 ,5.23692 ,51.38464 
12 ,2.4250 ,0.71856 ,5.20612 ,51.08244 
13 ,2.6010 ,0.72024 ,5.19585 ,50.98170 
14 ,2.7933 ,0.72219 ,5.18559 ,50.88097 
15 ,2.9853 ,0.72407 ,5.17532 ,50.78023 
16 ,3.1769 ,0.72602 ,5.13083 ,50.34372 
17 ,3.3533 ,0.72774 ,5.11372 ,50.17583 
18 ,3.5295 ,0.72949 ,5.11030 ,50.14225 
19 ,3.7215 ,0.73143 ,5.08292 ,49.87362 
20 ,3.9137 ,0.73330 ,5.05212 ,49.57142 
21 ,4.1213 ,0.73538 ,5.04528 ,49.50426 
22 ,4.2818 ,0.73720 ,5.01106 ,49.16848 
23 ,4.4578 ,0.73882 ,5.00079 ,49.06774 
24 ,4.6339 ,0.74057 ,4.99052 ,48.96701 
25 ,4.8100 ,0.74233 ,4.98368 ,48.89985 
26 ,5.0020 ,0.74429 ,4.96657 ,48.73196 
27 ,5.1782 ,0.74604 ,4.93577 ,48.42975 
28 ,5.3703 ,0.74786 ,4.92550 ,48.32902 
29 ,5.5784 ,0.74993 ,4.89128 ,47.99324 
30 ,5.7704 ,0.75189 ,4.89470 ,48.02681 
31 ,5.9786 ,0.75394 ,4.86390 ,47.72461 
32 ,6.1863 ,0.75605 ,4.85706 ,47.65745 
33 ,6.3623 ,0.75784 ,4.82626 ,47.35525 
34 ,6.5547 ,0.75971 ,4.81257 ,47.22093 
35 ,6.7627 ,0.76176 ,4.77835 ,46.88515 
36 ,6.9387 ,0.76363 ,4.76124 ,46.71726 
37 ,7.1308 ,0.76557 ,4.74755 ,46.58295 
38 ,7.3230 ,0.76743 ,4.73728 ,46.48221 
39 ,7.4989 ,0.76928 ,4.70306 ,46.14643 
40 ,7.6751 ,0.77096 ,4.68595 ,45.97854 
41 ,7.8832 ,0.77300 ,4.66542 ,45.77707 
42 ,8.0753 ,0.77490 ,4.66542 ,45.77707 
43 ,8.2672 ,0.77691 ,4.65173 ,45.64275 
44 ,8.4434 ,0.77866 ,4.62093 ,45.34055 
45 ,8.6515 ,0.78068 ,4.60040 ,45.13908 
46 ,8.8593 ,0.78275 ,4.56960 ,44.83688 
47 ,9.0355 ,0.78454 ,4.55933 ,44.73614 
48 ,9.2118 ,0.78632 ,4.53195 ,44.46751 
49 ,9.3878 ,0.78807 ,4.54564 ,44.60183 
50 ,9.5954 ,0.79007 ,4.52511 ,44.40036 
51 ,9.7720 ,0.79193 ,4.50800 ,44.23247 
52 ,9.9958 ,0.79412 ,4.46693 ,43.82953 
53 ,10.1881 ,0.79606 ,4.47035 ,43.86310 
54 ,10.3804 ,0.79792 ,4.43613 ,43.52732 
55 ,10.5724 ,0.79989 ,4.42244 ,43.39301 
56 ,10.7640 ,0.80190 ,4.39507 ,43.12438 
57 ,10.9403 ,0.80362 ,4.37795 ,42.95649 
58 ,11.1320 ,0.80550 ,4.36769 ,42.85576 
59 ,11.3082 ,0.80722 ,4.36427 ,42.82218 
60 ,11.5004 ,0.80910 ,4.33004 ,42.48639 
61 ,11.6927 ,0.81109 ,4.32320 ,42.41924 
62 ,11.8844 ,0.81302 ,4.31978 ,42.38566 
63 ,12.0765 ,0.81492 ,4.26845 ,41.88198 
64 ,12.2528 ,0.81674 ,4.26502 ,41.84841 
65 ,12.4450 ,0.81856 ,4.23765 ,41.57978 
66 ,12.6369 ,0.82047 ,4.21711 ,41.37831 
67 ,12.8126 ,0.82231 ,4.19316 ,41.14326 
68 ,13.0212 ,0.82431 ,4.21027 ,41.31115 
69 ,13.2292 ,0.82641 ,4.19658 ,41.17684 
70 ,13.4052 ,0.82826 ,4.16578 ,40.87464 
71 ,13.6134 ,0.83025 ,4.14183 ,40.63959 
72 ,13.7894 ,0.83209 ,4.12471 ,40.47170 
73 ,13.9491 ,0.83381 ,4.10418 ,40.27023 
74 ,14.1256 ,0.83550 ,4.09049 ,40.13591 
75 ,14.3018 ,0.83722 ,4.06654 ,39.90087 
76 ,14.5098 ,0.83920 ,4.06312 ,39.86729 
77 ,14.6858 ,0.84110 ,4.02547 ,39.49793 
78 ,14.8614 ,0.84277 ,4.03232 ,39.56508 
79 ,15.0536 ,0.84464 ,3.99809 ,39.22930 
80 ,15.2456 ,0.84658 ,3.98783 ,39.12856 
81 ,15.4380 ,0.84853 ,3.95703 ,38.82636 
82 ,15.6463 ,0.85060 ,3.96387 ,38.89352 
83 ,15.8541 ,0.85268 ,3.91596 ,38.42342 
84 ,16.0305 ,0.85449 ,3.90912 ,38.35626 
85 ,16.2225 ,0.85631 ,3.89201 ,38.18837 
86 ,16.3986 ,0.85819 ,3.87832 ,38.05406 
87 ,16.5907 ,0.86010 ,3.86121 ,37.88617 
88 ,16.7827 ,0.86191 ,3.84752 ,37.75185 
89 ,16.9589 ,0.86376 ,3.82356 ,37.51681 
90 ,17.1510 ,0.86564 ,3.80645 ,37.34891 
91 ,17.3429 ,0.86757 ,3.80303 ,37.31534 
92 ,17.5510 ,0.86962 ,3.77223 ,37.01313 
93 ,17.7430 ,0.87156 ,3.76196 ,36.91240 
94 ,17.9513 ,0.87348 ,3.74485 ,36.74450 
95 ,18.1593 ,0.87566 ,3.72774 ,36.57661 
96 ,18.3513 ,0.87759 ,3.70379 ,36.34157 
97 ,18.5272 ,0.87942 ,3.67983 ,36.10652 
98 ,18.7035 ,0.88121 ,3.67983 ,36.10652 
99 ,18.8953 ,0.88306 ,3.65246 ,35.83789 
100 ,19.0876 ,0.88500 ,3.64903 ,35.80431 
101 ,19.2797 ,0.88686 ,3.61481 ,35.46853 
102 ,19.4556 ,0.88869 ,3.58743 ,35.19990 
103 ,19.6318 ,0.89049 ,3.58059 ,35.13275 
104 ,19.8080 ,0.89221 ,3.57717 ,35.09917 
105 ,19.9999 ,0.89406 ,3.55321 ,34.86412 
106 ,20.1920 ,0.89603 ,3.53952 ,34.72981 
107 ,20.3838 ,0.89794 ,3.50872 ,34.42760 
108 ,20.5442 ,0.89972 ,3.49846 ,34.32687 
109 ,20.7203 ,0.90141 ,3.49504 ,34.29329 
110 ,20.9124 ,0.90329 ,3.47108 ,34.05824 
111 ,21.0886 ,0.90507 ,3.47792 ,34.12540 
112 ,21.2807 ,0.90699 ,3.44370 ,33.78961 
113 ,21.4887 ,0.90889 ,3.43001 ,33.65530 
114 ,21.6809 ,0.91100 ,3.39921 ,33.35310 
115 ,21.8726 ,0.91288 ,3.37526 ,33.11805 
116 ,22.0489 ,0.91463 ,3.37184 ,33.08447 
117 ,22.2411 ,0.91650 ,3.33762 ,32.74869 
118 ,22.4331 ,0.91835 ,3.34446 ,32.81584 
119 ,22.6248 ,0.92033 ,3.32393 ,32.61437 
120 ,22.8012 ,0.92225 ,3.29655 ,32.34575 
121 ,22.9773 ,0.92392 ,3.27944 ,32.17786 
122 ,23.1533 ,0.92566 ,3.25548 ,31.94281 
123 ,23.3294 ,0.92741 ,3.27944 ,32.17786 
124 ,23.5373 ,0.92944 ,3.22811 ,31.67418 
125 ,23.7292 ,0.93136 ,3.23837 ,31.77492 
126 ,23.9057 ,0.93320 ,3.21442 ,31.53987 
127 ,24.0978 ,0.93517 ,3.19046 ,31.30482 
128 ,24.2737 ,0.93690 ,3.15966 ,31.00262 
129 ,24.4499 ,0.93865 ,3.16993 ,31.10335 
130 ,24.6580 ,0.94065 ,3.13571 ,30.76757 
131 ,24.8496 ,0.94257 ,3.11175 ,30.53252 
132 ,25.0260 ,0.94439 ,3.11860 ,30.59968 
133 ,25.2342 ,0.94643 ,3.08438 ,30.26389 
134 ,25.4264 ,0.94834 ,3.08438 ,30.26389 
135 ,25.6025 ,0.95018 ,3.07411 ,30.16316 
136 ,25.8105 ,0.95224 ,3.04673 ,29.89453 
137 ,25.9862 ,0.95398 ,3.04673 ,29.89453 
138 ,26.1783 ,0.95591 ,3.01593 ,29.59233 
139 ,26.3548 ,0.95770 ,2.99540 ,29.39086 
140 ,26.5467 ,0.95958 ,2.98513 ,29.29012 
141 ,26.7388 ,0.96142 ,2.97829 ,29.22297 
142 ,26.9307 ,0.96346 ,2.93722 ,28.82003 
143 ,27.1069 ,0.96522 ,2.93722 ,28.82003 
144 ,27.3149 ,0.96731 ,2.92696 ,28.71929 
145 ,27.5072 ,0.96914 ,2.91327 ,28.58498 
146 ,27.7309 ,0.97132 ,2.88931 ,28.34993 
147 ,27.9073 ,0.97322 ,2.87562 ,28.21562 
148 ,28.0989 ,0.97509 ,2.84140 ,27.87983 
149 ,28.2752 ,0.97684 ,2.83798 ,27.84625 
150 ,28.4675 ,0.97876 ,2.83456 ,27.81268 
151 ,28.6598 ,0.98061 ,2.81402 ,27.61121 
152 ,28.8356 ,0.98249 ,2.78665 ,27.34258 
153 ,29.0118 ,0.98426 ,2.76269 ,27.10753 
154 ,29.1716 ,0.98598 ,2.75927 ,27.07395 
155 ,29.3480 ,0.98760 ,2.74216 ,26.90606 
156 ,29.5398 ,0.98942 ,2.73189 ,26.80533 
157 ,29.7162 ,0.99127 ,2.71478 ,26.63744 
158 ,29.8920 ,0.99303 ,2.70109 ,26.50312 
159 ,30.1003 ,0.99503 ,2.67372 ,26.23450 
160 ,30.2923 ,0.99708 ,2.67714 ,26.26807 
161 ,30.4686 ,0.99885 ,2.65660 ,26.06661 
162 ,30.6606 ,1.00064 ,2.63265 ,25.83156 
163 ,30.8525 ,1.00261 ,2.61554 ,25.66367 
164 ,31.0287 ,1.00443 ,2.60869 ,25.59651 
165 ,31.2208 ,1.00627 ,2.58816 ,25.39504 
166 ,31.4129 ,1.00816 ,2.57105 ,25.22715 
167 ,31.6048 ,1.01022 ,2.58132 ,25.32788 
168 ,31.7967 ,1.01201 ,2.54710 ,24.99210 
169 ,31.9891 ,1.01395 ,2.54710 ,24.99210 
170 ,32.1967 ,1.01603 ,2.50603 ,24.58916 
171 ,32.3728 ,1.01781 ,2.50603 ,24.58916 
172 ,32.5493 ,1.01963 ,2.48892 ,24.42127 
173 ,32.7574 ,1.02160 ,2.48550 ,24.38769 
174 ,32.9494 ,1.02361 ,2.45812 ,24.11906 
175 ,33.1414 ,1.02549 ,2.44101 ,23.95117 
176 ,33.3175 ,1.02731 ,2.43074 ,23.85044 
177 ,33.5259 ,1.02933 ,2.42048 ,23.74970 
178 ,33.7177 ,1.03129 ,2.39310 ,23.48108 
179 ,33.9097 ,1.03325 ,2.37256 ,23.27961 
180 ,34.1018 ,1.03508 ,2.37599 ,23.31318 
181 ,34.2779 ,1.03688 ,2.36572 ,23.21245 
182 ,34.4701 ,1.03877 ,2.33492 ,22.91024 
183 ,34.6618 ,1.04068 ,2.33834 ,22.94382 
184 ,34.8703 ,1.04278 ,2.30412 ,22.60804 
185 ,35.0623 ,1.04460 ,2.29385 ,22.50731 
186 ,35.2543 ,1.04663 ,2.26648 ,22.23868 
187 ,35.4301 ,1.04841 ,2.24937 ,22.07079 
188 ,35.6220 ,1.05024 ,2.24937 ,22.07079 
189 ,35.7982 ,1.05208 ,2.23568 ,21.93647 
190 ,35.9906 ,1.05396 ,2.21515 ,21.73500 
191 ,36.1826 ,1.05598 ,2.20830 ,21.66785 
192 ,36.3742 ,1.05779 ,2.20146 ,21.60069 
193 ,36.5504 ,1.05958 ,2.15697 ,21.16417 
194 ,36.7265 ,1.06130 ,2.15355 ,21.13059 
195 ,36.9028 ,1.06316 ,2.15012 ,21.09702 
196 ,37.1110 ,1.06504 ,2.13301 ,20.92912 
197 ,37.2871 ,1.06695 ,2.11932 ,20.79481 
198 ,37.4631 ,1.06869 ,2.11590 ,20.76123 
199 ,37.6553 ,1.07057 ,2.08852 ,20.49261 
200 ,37.8469 ,1.07250 ,2.08852 ,20.49261 
201 ,38.0395 ,1.07445 ,2.06799 ,20.29114 
202 ,38.2315 ,1.07638 ,2.03377 ,19.95535 
203 ,38.4397 ,1.07840 ,2.03377 ,19.95535 
204 ,38.6155 ,1.08030 ,2.02008 ,19.82104 
205 ,38.7918 ,1.08200 ,2.00297 ,19.65315 
206 ,38.9838 ,1.08388 ,1.99955 ,19.61957 
207 ,39.1918 ,1.08592 ,1.96190 ,19.25021 
208 ,39.3681 ,1.08782 ,1.95506 ,19.18305 
209 ,39.5600 ,1.08965 ,1.95848 ,19.21663 
210 ,39.7360 ,1.09145 ,1.93453 ,18.98158 
211 ,39.9118 ,1.09321 ,1.91057 ,18.74654 
212 ,40.1044 ,1.09508 ,1.91742 ,18.81369 
213 ,40.3124 ,1.09718 ,1.87977 ,18.44433 
214 ,40.4885 ,1.09895 ,1.86951 ,18.34360 
215 ,40.6807 ,1.10086 ,1.86951 ,18.34360 
216 ,40.8881 ,1.10293 ,1.83528 ,18.00781 
217 ,41.0647 ,1.10470 ,1.82502 ,17.90708 
218 ,41.2406 ,1.10649 ,1.82160 ,17.87350 
219 ,41.4168 ,1.10824 ,1.82502 ,17.90708 
220 ,41.6410 ,1.11032 ,1.79422 ,17.60487 
221 ,41.8169 ,1.11225 ,1.79080 ,17.57129 
222 ,42.0090 ,1.11405 ,1.75657 ,17.23551 
223 ,42.2012 ,1.11605 ,1.75315 ,17.20193 
224 ,42.4092 ,1.11808 ,1.73262 ,17.00046 
225 ,42.5854 ,1.11996 ,1.71209 ,16.79899 
226 ,42.7934 ,1.12195 ,1.69155 ,16.59752 
227 ,43.0016 ,1.12389 ,1.68813 ,16.56395 
228 ,43.1931 ,1.12608 ,1.67102 ,16.39605 
229 ,43.3696 ,1.12781 ,1.65049 ,16.19458 
230 ,43.5456 ,1.12955 ,1.64364 ,16.12743 
231 ,43.7375 ,1.13150 ,1.62311 ,15.92596 
232 ,43.9136 ,1.13322 ,1.62653 ,15.95954 
233 ,44.1217 ,1.13513 ,1.60942 ,15.79164 
234 ,44.3137 ,1.13726 ,1.57862 ,15.48944 
235 ,44.4901 ,1.13901 ,1.57862 ,15.48944 
236 ,44.6980 ,1.14099 ,1.56836 ,15.38871 
237 ,44.9058 ,1.14306 ,1.55124 ,15.22081 
238 ,45.0820 ,1.14488 ,1.54098 ,15.12008 
239 ,45.2583 ,1.14663 ,1.54440 ,15.15366 
240 ,45.4343 ,1.14841 ,1.51360 ,14.85145 
241 ,45.6261 ,1.15029 ,1.48622 ,14.58283 
242 ,45.8026 ,1.15208 ,1.48622 ,14.58283 
243 ,46.0265 ,1.15427 ,1.47253 ,14.44851 
244 ,46.2187 ,1.15618 ,1.46911 ,14.41493 
245 ,46.4105 ,1.15812 ,1.42805 ,14.01199 
246 ,46.6028 ,1.16004 ,1.43147 ,14.04557 
247 ,46.7950 ,1.16202 ,1.42120 ,13.94484 
248 ,46.9867 ,1.16386 ,1.40067 ,13.74337 
249 ,47.1632 ,1.16565 ,1.38356 ,13.57548 
250 ,47.3553 ,1.16762 ,1.38356 ,13.57548 
251 ,47.5309 ,1.16944 ,1.36303 ,13.37401 
252 ,47.7073 ,1.17113 ,1.33565 ,13.10538 
253 ,47.9151 ,1.17313 ,1.33223 ,13.07180 
254 ,48.0916 ,1.17497 ,1.32538 ,13.00465 
255 ,48.2678 ,1.17673 ,1.30143 ,12.76960 
256 ,48.4598 ,1.17867 ,1.30827 ,12.83675 
257 ,48.6517 ,1.18050 ,1.26378 ,12.40024 
258 ,48.8279 ,1.18231 ,1.26378 ,12.40024 
259 ,49.1958 ,1.18598 ,1.24667 ,12.23235 
260 ,49.3882 ,1.18795 ,1.22272 ,11.99730 
261 ,49.5804 ,1.18976 ,1.24325 ,12.19877 
262 ,49.7722 ,1.19177 ,1.21587 ,11.93014 
263 ,49.9484 ,1.19359 ,1.19534 ,11.72867 
264 ,50.1403 ,1.19539 ,1.19192 ,11.69509 
265 ,50.3323 ,1.19737 ,1.16454 ,11.42647 
266 ,50.5088 ,1.19916 ,1.15085 ,11.29215 
267 ,50.7165 ,1.20107 ,1.15770 ,11.35931 
268 ,50.8927 ,1.20307 ,1.13032 ,11.09068 
269 ,51.0849 ,1.20484 ,1.10636 ,10.85563 
270 ,51.2769 ,1.20675 ,1.10294 ,10.82206 
271 ,51.4529 ,1.20856 ,1.10294 ,10.82206 
272 ,51.6290 ,1.21037 ,1.06872 ,10.48627 
273 ,51.8208 ,1.21218 ,1.08241 ,10.62059 
274 ,52.0290 ,1.21433 ,1.04819 ,10.28480 
275 ,52.2374 ,1.21633 ,1.05503 ,10.35196 
276 ,52.4293 ,1.21827 ,1.01054 ,9.91544 
277 ,52.6055 ,1.22012 ,1.01054 ,9.91544 
278 ,52.7816 ,1.22185 ,1.01054 ,9.91544 
279 ,52.9732 ,1.22371 ,0.98659 ,9.68039 
280 ,53.1497 ,1.22551 ,0.96948 ,9.51250 
281 ,53.3416 ,1.22747 ,0.97290 ,9.54608 
282 ,53.5338 ,1.22932 ,0.95579 ,9.37819 
283 ,53.7259 ,1.23120 ,0.93525 ,9.17672 
284 ,53.9176 ,1.23315 ,0.93525 ,9.17672 
285 ,54.0939 ,1.23502 ,0.90103 ,8.84094 
286 ,54.2703 ,1.23675 ,0.90103 ,8.84094 
287 ,54.4623 ,1.23862 ,0.89077 ,8.74020 
288 ,54.6704 ,1.24070 ,0.87366 ,8.57231 
289 ,54.8461 ,1.24251 ,0.85654 ,8.40442 
290 ,55.0385 ,1.24434 ,0.86339 ,8.47158 
291 ,55.2464 ,1.24643 ,0.85312 ,8.37084 
292 ,55.4387 ,1.24834 ,0.83601 ,8.20295 
293 ,55.6464 ,1.25044 ,0.80863 ,7.93432 
294 ,55.8228 ,1.25226 ,0.79152 ,7.76643 
295 ,56.0148 ,1.25423 ,0.79837 ,7.83359 
296 ,56.1905 ,1.25592 ,0.77099 ,7.56496 
297 ,56.3830 ,1.25781 ,0.77784 ,7.63212 
298 ,56.5750 ,1.25985 ,0.74704 ,7.32991 
299 ,56.7512 ,1.26149 ,0.76415 ,7.49780 
300 ,56.9429 ,1.26351 ,0.74361 ,7.29633 
301 ,57.1194 ,1.26522 ,0.73335 ,7.19560 
302 ,57.3110 ,1.26720 ,0.69570 ,6.82624 
303 ,57.5035 ,1.26898 ,0.70255 ,6.89340 
304 ,57.6797 ,1.27083 ,0.69913 ,6.85982 
305 ,57.8552 ,1.27264 ,0.67175 ,6.59119 
306 ,58.0474 ,1.27440 ,0.65806 ,6.45688 
307 ,58.2236 ,1.27625 ,0.64095 ,6.28899 
308 ,58.4155 ,1.27812 ,0.65464 ,6.42330 
309 ,58.5918 ,1.27991 ,0.64437 ,6.32256 
310 ,58.8001 ,1.28201 ,0.61015 ,5.98678 
311 ,58.9761 ,1.28382 ,0.60673 ,5.95320 
312 ,59.1523 ,1.28549 ,0.60330 ,5.91962 
313 ,59.3440 ,1.28737 ,0.58277 ,5.71815 
314 ,59.5203 ,1.28918 ,0.57935 ,5.68458 
315 ,59.6963 ,1.29093 ,0.56566 ,5.55026 
316 ,59.8723 ,1.29274 ,0.55539 ,5.44953 
317 ,60.0805 ,1.29476 ,0.54855 ,5.38237 
318 ,60.2565 ,1.29657 ,0.52802 ,5.18090 
319 ,60.4325 ,1.29839 ,0.52117 ,5.11375 
320 ,60.6086 ,1.30011 ,0.51433 ,5.04659 
321 ,60.7848 ,1.30182 ,0.49037 ,4.81154 
322 ,60.9770 ,1.30371 ,0.50064 ,4.91228 
323 ,61.1689 ,1.30572 ,0.48011 ,4.71081 
324 ,61.3449 ,1.30743 ,0.45615 ,4.47576 
325 ,61.5370 ,1.30928 ,0.46300 ,4.54291 
326 ,61.7132 ,1.31113 ,0.45615 ,4.47576 
327 ,61.9054 ,1.31301 ,0.43220 ,4.24071 
328 ,62.0974 ,1.31490 ,0.42535 ,4.17355 
329 ,62.2895 ,1.31684 ,0.40482 ,3.97208 
330 ,62.4976 ,1.31888 ,0.41509 ,4.07282 
331 ,62.6892 ,1.32078 ,0.37744 ,3.70346 
332 ,62.8819 ,1.32270 ,0.37744 ,3.70346 
333 ,63.0899 ,1.32487 ,0.36033 ,3.53557 
334 ,63.2820 ,1.32677 ,0.35006 ,3.43483 
335 ,63.4579 ,1.32856 ,0.34322 ,3.36767 
336 ,63.6340 ,1.33034 ,0.35006 ,3.43483 
337 ,63.8260 ,1.33222 ,0.33638 ,3.30052 
338 ,64.0018 ,1.33400 ,0.31242 ,3.06547 
339 ,64.1781 ,1.33576 ,0.30215 ,2.96473 
340 ,64.3379 ,1.33748 ,0.29531 ,2.89758 
341 ,64.5304 ,1.33916 ,0.29189 ,2.86400 
342 ,64.7224 ,1.34114 ,0.26109 ,2.56179 
343 ,64.9145 ,1.34305 ,0.27478 ,2.69611 
344 ,65.0905 ,1.34492 ,0.24740 ,2.42748 
345 ,65.2825 ,1.34684 ,0.22344 ,2.19243 
346 ,65.4587 ,1.34863 ,0.23029 ,2.25959 
347 ,65.6666 ,1.35059 ,0.20976 ,2.05812 
348 ,65.8429 ,1.35245 ,0.19949 ,1.95738 
349 ,66.0190 ,1.35417 ,0.20291 ,1.99096 
350 ,66.2269 ,1.35620 ,0.18238 ,1.78949 
351 ,66.4192 ,1.35818 ,0.16869 ,1.65518 
352 ,66.6112 ,1.36012 ,0.17553 ,1.72234 
353 ,66.8032 ,1.36201 ,0.14473 ,1.42013 
354 ,66.9790 ,1.36379 ,0.12762 ,1.25224 
355 ,67.1715 ,1.36566 ,0.13447 ,1.31940 
356 ,67.3797 ,1.36774 ,0.12420 ,1.21866 
357 ,67.5715 ,1.36969 ,0.12762 ,1.25224 
358 ,67.7476 ,1.37147 ,0.10025 ,0.98361 
359 ,67.9394 ,1.37329 ,0.10367 ,1.01719 
360 ,68.1156 ,1.37517 ,0.08998 ,0.88288 
361 ,68.2917 ,1.37691 ,0.08656 ,0.84930 
362 ,68.4839 ,1.37867 ,0.06945 ,0.68141 
363 ,68.6760 ,1.38070 ,0.05918 ,0.58067 
364 ,68.8680 ,1.38264 ,0.03180 ,0.31205 
365 ,69.0601 ,1.38453 ,0.01811 ,0.17773 
366 ,69.2361 ,1.38630 ,0.02154 ,0.21131 
367 ,69.4442 ,1.38826 ,0.00100 ,0.00984 
368 ,69.6361 ,1.39026 ,0.01469 ,0.14416 
369 ,69.8284 ,1.39217 ,-0.03664 ,-0.35952 
370 ,70.0365 ,1.39424 ,-0.03322 ,-0.32594 
371 ,70.2439 ,1.39634 ,-0.02980 ,-0.29236 
372 ,70.4206 ,1.39820 ,-0.05033 ,-0.49383 
373 ,70.6125 ,1.40010 ,-0.04348 ,-0.42667 
374 ,70.8048 ,1.40192 ,-0.07428 ,-0.72888 
375 ,70.9967 ,1.40386 ,-0.07428 ,-0.72888 
376 ,71.1730 ,1.40571 ,-0.07771 ,-0.76246 
377 ,71.3490 ,1.40749 ,-0.09140 ,-0.89677 
378 ,71.5249 ,1.40919 ,-0.11535 ,-1.13182 
379 ,71.7010 ,1.41094 ,-0.09824 ,-0.96393 
380 ,71.8933 ,1.41291 ,-0.10166 ,-0.99751 
381 ,72.0692 ,1.41469 ,-0.11193 ,-1.09824 
382 ,72.2454 ,1.41639 ,-0.14615 ,-1.43402 
383 ,72.4054 ,1.41813 ,-0.16326 ,-1.60191 
384 ,72.5815 ,1.41976 ,-0.15299 ,-1.50118 
385 ,72.7576 ,1.42151 ,-0.15299 ,-1.50118 
386 ,72.9336 ,1.42335 ,-0.16668 ,-1.63549 
387 ,73.1098 ,1.42511 ,-0.17011 ,-1.66907 
388 ,73.3019 ,1.42695 ,-0.19406 ,-1.90412 
389 ,73.5096 ,1.42899 ,-0.20090 ,-1.97128 
390 ,73.7020 ,1.43098 ,-0.21459 ,-2.10559 
391 ,73.8940 ,1.43282 ,-0.20433 ,-2.00485 
392 ,74.0703 ,1.43469 ,-0.21802 ,-2.13917 
393 ,74.2463 ,1.43644 ,-0.24197 ,-2.37422 
394 ,74.4220 ,1.43821 ,-0.25224 ,-2.47495 
395 ,74.5984 ,1.43993 ,-0.25908 ,-2.54211 
396 ,74.7901 ,1.44184 ,-0.25224 ,-2.47495 
397 ,74.9826 ,1.44365 ,-0.27619 ,-2.71000 
398 ,75.1745 ,1.44569 ,-0.26935 ,-2.64284 
399 ,75.3501 ,1.44746 ,-0.27961 ,-2.74358 
400 ,75.5422 ,1.44931 ,-0.32068 ,-3.14652 
401 ,75.7342 ,1.45122 ,-0.30357 ,-2.97863 
402 ,75.9263 ,1.45315 ,-0.32068 ,-3.14652 
403 ,76.1348 ,1.45517 ,-0.33095 ,-3.24725 
404 ,76.3269 ,1.45719 ,-0.32752 ,-3.21367 
405 ,76.5027 ,1.45897 ,-0.34806 ,-3.41514 
406 ,76.6788 ,1.46078 ,-0.34806 ,-3.41514 
407 ,76.8551 ,1.46248 ,-0.36517 ,-3.58303 
408 ,77.0313 ,1.46426 ,-0.36859 ,-3.61661 
409 ,77.2072 ,1.46598 ,-0.37886 ,-3.71735 
410 ,77.3995 ,1.46796 ,-0.40623 ,-3.98597 
411 ,77.5755 ,1.46973 ,-0.39597 ,-3.88524 
412 ,77.7511 ,1.47145 ,-0.38912 ,-3.81808 
413 ,77.9277 ,1.47324 ,-0.40966 ,-4.01955 
414 ,78.1037 ,1.47496 ,-0.43019 ,-4.22102 
415 ,78.2955 ,1.47687 ,-0.43019 ,-4.22102 
416 ,78.4721 ,1.47865 ,-0.43361 ,-4.25460 
417 ,78.6798 ,1.48064 ,-0.44730 ,-4.38891 
418 ,78.8397 ,1.48245 ,-0.45757 ,-4.48965 
419 ,79.0160 ,1.48408 ,-0.47126 ,-4.62396 
420 ,79.2082 ,1.48605 ,-0.46783 ,-4.59038 
421 ,79.3843 ,1.48776 ,-0.48837 ,-4.79185 
422 ,79.5604 ,1.48951 ,-0.49863 ,-4.89259 
423 ,79.7363 ,1.49125 ,-0.51232 ,-5.02690 
424 ,79.9120 ,1.49309 ,-0.51917 ,-5.09406 
425 ,80.0887 ,1.49484 ,-0.50890 ,-4.99332 
426 ,80.2968 ,1.49687 ,-0.52601 ,-5.16121 
427 ,80.4889 ,1.49883 ,-0.52601 ,-5.16121 
428 ,80.6810 ,1.50064 ,-0.56023 ,-5.49700 
429 ,80.8732 ,1.50258 ,-0.54312 ,-5.32911 
430 ,81.0650 ,1.50447 ,-0.57734 ,-5.66489 
431 ,81.2412 ,1.50638 ,-0.57734 ,-5.66489 
432 ,81.4493 ,1.50832 ,-0.58077 ,-5.69847 
433 ,81.6253 ,1.51020 ,-0.59445 ,-5.83278 
434 ,81.8174 ,1.51205 ,-0.60472 ,-5.93352 
435 ,81.9930 ,1.51389 ,-0.61499 ,-6.03425 
436 ,82.1853 ,1.51571 ,-0.62183 ,-6.10141 
437 ,82.3936 ,1.51780 ,-0.61841 ,-6.06783 
438 ,82.5694 ,1.51963 ,-0.61156 ,-6.00067 
439 ,82.7453 ,1.52134 ,-0.62525 ,-6.13499 
440 ,82.9215 ,1.52310 ,-0.65605 ,-6.43719 
441 ,83.0975 ,1.52488 ,-0.66632 ,-6.53793 
442 ,83.2736 ,1.52672 ,-0.66290 ,-6.50435 
443 ,83.4499 ,1.52845 ,-0.66290 ,-6.50435 
444 ,83.6580 ,1.53040 ,-0.68685 ,-6.73940 
445 ,83.8502 ,1.53242 ,-0.68001 ,-6.67224 
446 ,84.0262 ,1.53422 ,-0.71081 ,-6.97444 
447 ,84.2019 ,1.53603 ,-0.71423 ,-7.00802 
448 ,84.3943 ,1.53778 ,-0.70396 ,-6.90729 
449 ,84.5863 ,1.53976 ,-0.72792 ,-7.14233 
450 ,84.7626 ,1.54151 ,-0.75187 ,-7.37738 
451 ,84.9385 ,1.54336 ,-0.74161 ,-7.27665 
452 ,85.1147 ,1.54504 ,-0.75187 ,-7.37738 
453 ,85.2904 ,1.54688 ,-0.75872 ,-7.44454 
454 ,85.4830 ,1.54870 ,-0.76898 ,-7.54527 
455 ,85.6908 ,1.55072 ,-0.77583 ,-7.61243 
456 ,85.8670 ,1.55257 ,-0.77925 ,-7.64601 
457 ,86.0430 ,1.55441 ,-0.80663 ,-7.91464 
458 ,86.2191 ,1.55610 ,-0.81689 ,-8.01537 
459 ,86.3949 ,1.55784 ,-0.81005 ,-7.94821 
460 ,86.5873 ,1.55969 ,-0.81005 ,-7.94821 
461 ,86.7951 ,1.56181 ,-0.84085 ,-8.25042 
462 ,86.9873 ,1.56367 ,-0.81005 ,-7.94821 
463 ,87.1796 ,1.56568 ,-0.85454 ,-8.38473 
