Data stamp = , 24-04-2022 07:59:08 789

Calibration Values: 
Slope = , 26.54 , g/V 
Offset Voltage at no contact = , -0.501760 , V 

No , Time , Stage Position ,   Mass , Force 
   ,  (s) ,      (mm)      ,   (g)  , (mN)  

1 ,0.0000 ,0.69945 ,5.24034 ,51.41822 
2 ,0.2284 ,0.69955 ,5.23007 ,51.31749 
3 ,0.5805 ,0.70055 ,5.25403 ,51.55254 
4 ,0.7729 ,0.70213 ,5.24718 ,51.48538 
5 ,0.9649 ,0.70381 ,5.23007 ,51.31749 
6 ,1.1568 ,0.70566 ,5.23350 ,51.35107 
7 ,1.3331 ,0.70751 ,5.25745 ,51.58611 
8 ,1.5255 ,0.70936 ,5.23007 ,51.31749 
9 ,1.7170 ,0.71136 ,5.23692 ,51.38464 
10 ,1.8935 ,0.71314 ,5.24718 ,51.48538 
11 ,2.0857 ,0.71500 ,5.22323 ,51.25033 
12 ,2.3096 ,0.71713 ,5.21639 ,51.18317 
13 ,2.5016 ,0.71913 ,5.20954 ,51.11602 
14 ,2.6937 ,0.72117 ,5.19585 ,50.98170 
15 ,2.8859 ,0.72305 ,5.15821 ,50.61234 
16 ,3.0939 ,0.72513 ,5.15479 ,50.57876 
17 ,3.2695 ,0.72694 ,5.12056 ,50.24298 
18 ,3.4460 ,0.72868 ,5.11372 ,50.17583 
19 ,3.6382 ,0.73044 ,5.10345 ,50.07509 
20 ,3.8297 ,0.73251 ,5.07950 ,49.84004 
21 ,4.0061 ,0.73426 ,5.04870 ,49.53784 
22 ,4.1979 ,0.73617 ,5.05554 ,49.60499 
23 ,4.3742 ,0.73790 ,5.04185 ,49.47068 
24 ,4.5504 ,0.73970 ,5.00421 ,49.10132 
25 ,4.7585 ,0.74160 ,4.99394 ,49.00058 
26 ,4.9666 ,0.74378 ,4.96657 ,48.73196 
27 ,5.1425 ,0.74560 ,4.94261 ,48.49691 
28 ,5.3507 ,0.74761 ,4.94261 ,48.49691 
29 ,5.5429 ,0.74961 ,4.91523 ,48.22828 
30 ,5.7351 ,0.75146 ,4.90497 ,48.12755 
31 ,5.9268 ,0.75350 ,4.86732 ,47.75819 
32 ,6.1193 ,0.75531 ,4.86390 ,47.72461 
33 ,6.3273 ,0.75743 ,4.82968 ,47.38883 
34 ,6.5033 ,0.75927 ,4.82284 ,47.32167 
35 ,6.6793 ,0.76098 ,4.81257 ,47.22093 
36 ,6.9035 ,0.76299 ,4.77493 ,46.85157 
37 ,7.0952 ,0.76510 ,4.77150 ,46.81800 
38 ,7.2715 ,0.76685 ,4.75097 ,46.61653 
39 ,7.4476 ,0.76867 ,4.72017 ,46.31432 
40 ,7.6238 ,0.77043 ,4.69964 ,46.11285 
41 ,7.7996 ,0.77217 ,4.69964 ,46.11285 
42 ,7.9759 ,0.77393 ,4.69279 ,46.04569 
43 ,8.1678 ,0.77583 ,4.64831 ,45.60918 
44 ,8.3601 ,0.77769 ,4.64488 ,45.57560 
45 ,8.5521 ,0.77963 ,4.60724 ,45.20624 
46 ,8.7602 ,0.78172 ,4.60040 ,45.13908 
47 ,8.9523 ,0.78363 ,4.57644 ,44.90403 
48 ,9.1283 ,0.78552 ,4.56275 ,44.76972 
49 ,9.3204 ,0.78730 ,4.55249 ,44.66898 
50 ,9.5286 ,0.78938 ,4.52511 ,44.40036 
51 ,9.7367 ,0.79134 ,4.52169 ,44.36678 
52 ,9.9288 ,0.79349 ,4.47720 ,43.93026 
53 ,10.1208 ,0.79532 ,4.47720 ,43.93026 
54 ,10.3288 ,0.79736 ,4.43955 ,43.56090 
55 ,10.5207 ,0.79934 ,4.42586 ,43.42659 
56 ,10.6970 ,0.80115 ,4.42929 ,43.46016 
57 ,10.8890 ,0.80297 ,4.38822 ,43.05723 
58 ,11.0650 ,0.80483 ,4.37453 ,42.92291 
59 ,11.2573 ,0.80664 ,4.36427 ,42.82218 
60 ,11.4650 ,0.80868 ,4.34716 ,42.65429 
61 ,11.6574 ,0.81066 ,4.33347 ,42.51997 
62 ,11.8336 ,0.81251 ,4.30609 ,42.25135 
63 ,12.0097 ,0.81428 ,4.29582 ,42.15061 
64 ,12.2016 ,0.81610 ,4.28898 ,42.08345 
65 ,12.3773 ,0.81807 ,4.25818 ,41.78125 
66 ,12.5537 ,0.81971 ,4.24791 ,41.68051 
67 ,12.7458 ,0.82162 ,4.22053 ,41.41189 
68 ,12.9382 ,0.82349 ,4.21369 ,41.34473 
69 ,13.1299 ,0.82541 ,4.17605 ,40.97537 
70 ,13.3383 ,0.82745 ,4.16578 ,40.87464 
71 ,13.5462 ,0.82961 ,4.14183 ,40.63959 
72 ,13.7382 ,0.83154 ,4.13840 ,40.60601 
73 ,13.9143 ,0.83327 ,4.11787 ,40.40454 
74 ,14.0902 ,0.83503 ,4.08707 ,40.10233 
75 ,14.2664 ,0.83680 ,4.07680 ,40.00160 
76 ,14.4586 ,0.83869 ,4.06312 ,39.86729 
77 ,14.6667 ,0.84076 ,4.02889 ,39.53150 
78 ,14.8586 ,0.84270 ,4.02547 ,39.49793 
79 ,15.0350 ,0.84451 ,4.01863 ,39.43077 
80 ,15.2268 ,0.84637 ,3.98098 ,39.06141 
81 ,15.4029 ,0.84821 ,3.96387 ,38.89352 
82 ,15.5946 ,0.85010 ,3.97072 ,38.96067 
83 ,15.7711 ,0.85185 ,3.95018 ,38.75920 
84 ,15.9950 ,0.85398 ,3.91938 ,38.45700 
85 ,16.1872 ,0.85607 ,3.89201 ,38.18837 
86 ,16.3634 ,0.85779 ,3.89543 ,38.22195 
87 ,16.5555 ,0.85974 ,3.87490 ,38.02048 
88 ,16.7474 ,0.86159 ,3.84410 ,37.71828 
89 ,16.9392 ,0.86349 ,3.83041 ,37.58396 
90 ,17.1316 ,0.86538 ,3.83041 ,37.58396 
91 ,17.3399 ,0.86748 ,3.80987 ,37.38249 
92 ,17.5319 ,0.86942 ,3.76539 ,36.94597 
93 ,17.7075 ,0.87125 ,3.74143 ,36.71093 
94 ,17.8998 ,0.87305 ,3.74828 ,36.77808 
95 ,18.1082 ,0.87516 ,3.71748 ,36.47588 
96 ,18.3001 ,0.87717 ,3.70721 ,36.37514 
97 ,18.4764 ,0.87889 ,3.69010 ,36.20725 
98 ,18.6682 ,0.88083 ,3.66614 ,35.97220 
99 ,18.8605 ,0.88268 ,3.66272 ,35.93863 
100 ,19.0364 ,0.88449 ,3.65930 ,35.90505 
101 ,19.2126 ,0.88621 ,3.62166 ,35.53569 
102 ,19.3885 ,0.88803 ,3.59086 ,35.23348 
103 ,19.5647 ,0.88975 ,3.57032 ,35.03201 
104 ,19.7568 ,0.89167 ,3.57717 ,35.09917 
105 ,19.9487 ,0.89363 ,3.54295 ,34.76338 
106 ,20.1250 ,0.89538 ,3.51899 ,34.52834 
107 ,20.3170 ,0.89724 ,3.52926 ,34.62907 
108 ,20.4931 ,0.89908 ,3.50872 ,34.42760 
109 ,20.6692 ,0.90078 ,3.47450 ,34.09182 
110 ,20.8613 ,0.90265 ,3.48477 ,34.19255 
111 ,21.0371 ,0.90449 ,3.45739 ,33.92393 
112 ,21.2296 ,0.90640 ,3.43001 ,33.65530 
113 ,21.4056 ,0.90822 ,3.41633 ,33.52099 
114 ,21.5977 ,0.91010 ,3.41290 ,33.48741 
115 ,21.7895 ,0.91196 ,3.37526 ,33.11805 
116 ,21.9813 ,0.91390 ,3.36499 ,33.01731 
117 ,22.1734 ,0.91581 ,3.34788 ,32.84942 
118 ,22.3496 ,0.91759 ,3.33762 ,32.74869 
119 ,22.5419 ,0.91959 ,3.32393 ,32.61437 
120 ,22.7180 ,0.92129 ,3.31708 ,32.54722 
121 ,22.9098 ,0.92311 ,3.28628 ,32.24501 
122 ,23.1018 ,0.92502 ,3.25891 ,31.97639 
123 ,23.2782 ,0.92690 ,3.26917 ,32.07712 
124 ,23.4700 ,0.92881 ,3.24522 ,31.84207 
125 ,23.6463 ,0.93059 ,3.21784 ,31.57345 
126 ,23.8224 ,0.93235 ,3.21100 ,31.50629 
127 ,23.9986 ,0.93413 ,3.20415 ,31.43913 
128 ,24.1902 ,0.93598 ,3.17677 ,31.17051 
129 ,24.3826 ,0.93789 ,3.16651 ,31.06977 
130 ,24.5748 ,0.93985 ,3.16651 ,31.06977 
131 ,24.7670 ,0.94171 ,3.12544 ,30.66683 
132 ,24.9591 ,0.94371 ,3.12202 ,30.63325 
133 ,25.1509 ,0.94555 ,3.08095 ,30.23031 
134 ,25.3271 ,0.94744 ,3.09464 ,30.36463 
135 ,25.5032 ,0.94916 ,3.07069 ,30.12958 
136 ,25.6953 ,0.95097 ,3.05358 ,29.96169 
137 ,25.8874 ,0.95301 ,3.02962 ,29.72664 
138 ,26.0955 ,0.95498 ,3.01935 ,29.62590 
139 ,26.2874 ,0.95699 ,3.00224 ,29.45801 
140 ,26.4797 ,0.95882 ,2.99540 ,29.39086 
141 ,26.6876 ,0.96092 ,2.95776 ,29.02150 
142 ,26.8637 ,0.96270 ,2.95091 ,28.95434 
143 ,27.0398 ,0.96452 ,2.95091 ,28.95434 
144 ,27.2321 ,0.96645 ,2.93380 ,28.78645 
145 ,27.4076 ,0.96818 ,2.90642 ,28.51782 
146 ,27.6001 ,0.97008 ,2.88931 ,28.34993 
147 ,27.7920 ,0.97200 ,2.88247 ,28.28277 
148 ,27.9683 ,0.97376 ,2.86536 ,28.11488 
149 ,28.1599 ,0.97567 ,2.84825 ,27.94699 
150 ,28.3361 ,0.97745 ,2.83798 ,27.84625 
151 ,28.4960 ,0.97916 ,2.82771 ,27.74552 
152 ,28.6724 ,0.98079 ,2.80718 ,27.54405 
153 ,28.8486 ,0.98258 ,2.79007 ,27.37616 
154 ,29.0247 ,0.98436 ,2.76611 ,27.14111 
155 ,29.2168 ,0.98618 ,2.76954 ,27.17469 
156 ,29.4088 ,0.98808 ,2.73874 ,26.87248 
157 ,29.6169 ,0.99019 ,2.73874 ,26.87248 
158 ,29.8091 ,0.99220 ,2.69767 ,26.46954 
159 ,30.0171 ,0.99421 ,2.69767 ,26.46954 
160 ,30.1927 ,0.99602 ,2.69767 ,26.46954 
161 ,30.3692 ,0.99776 ,2.66687 ,26.16734 
162 ,30.5454 ,0.99950 ,2.64976 ,25.99945 
163 ,30.7213 ,1.00128 ,2.62923 ,25.79798 
164 ,30.9135 ,1.00319 ,2.62581 ,25.76440 
165 ,31.1056 ,1.00510 ,2.59501 ,25.46220 
166 ,31.2977 ,1.00700 ,2.60185 ,25.52935 
167 ,31.5059 ,1.00911 ,2.56763 ,25.19357 
168 ,31.6974 ,1.01111 ,2.55736 ,25.09283 
169 ,31.8738 ,1.01284 ,2.54710 ,24.99210 
170 ,32.0657 ,1.01479 ,2.51287 ,24.65632 
171 ,32.2579 ,1.01663 ,2.51972 ,24.72347 
172 ,32.4342 ,1.01844 ,2.50603 ,24.58916 
173 ,32.6261 ,1.02030 ,2.47865 ,24.32053 
174 ,32.8022 ,1.02211 ,2.47523 ,24.28696 
175 ,32.9784 ,1.02383 ,2.45812 ,24.11906 
176 ,33.1703 ,1.02580 ,2.43416 ,23.88402 
177 ,33.3620 ,1.02771 ,2.42390 ,23.78328 
178 ,33.5546 ,1.02953 ,2.42048 ,23.74970 
179 ,33.7626 ,1.03167 ,2.39652 ,23.51465 
180 ,33.9547 ,1.03358 ,2.38283 ,23.38034 
181 ,34.1466 ,1.03556 ,2.35888 ,23.14529 
182 ,34.3228 ,1.03733 ,2.33150 ,22.87667 
183 ,34.4985 ,1.03903 ,2.33492 ,22.91024 
184 ,34.6906 ,1.04094 ,2.31781 ,22.74235 
185 ,34.8667 ,1.04271 ,2.29385 ,22.50731 
186 ,35.0432 ,1.04454 ,2.27674 ,22.33941 
187 ,35.2351 ,1.04645 ,2.28017 ,22.37299 
188 ,35.3951 ,1.04813 ,2.25621 ,22.13794 
189 ,35.5714 ,1.04978 ,2.25963 ,22.17152 
190 ,35.7634 ,1.05161 ,2.21515 ,21.73500 
191 ,35.9392 ,1.05346 ,2.21172 ,21.70143 
192 ,36.1317 ,1.05536 ,2.19803 ,21.56711 
193 ,36.3236 ,1.05733 ,2.17750 ,21.36564 
194 ,36.5157 ,1.05921 ,2.18435 ,21.43280 
195 ,36.7077 ,1.06113 ,2.16039 ,21.19775 
196 ,36.8839 ,1.06286 ,2.13301 ,20.92912 
197 ,37.0595 ,1.06466 ,2.12275 ,20.82839 
198 ,37.2361 ,1.06644 ,2.12617 ,20.86197 
199 ,37.4118 ,1.06820 ,2.12617 ,20.86197 
200 ,37.6042 ,1.07008 ,2.08510 ,20.45903 
201 ,37.7802 ,1.07192 ,2.08510 ,20.45903 
202 ,37.9560 ,1.07372 ,2.05430 ,20.15682 
203 ,38.1478 ,1.07547 ,2.04404 ,20.05609 
204 ,38.3244 ,1.07731 ,2.02350 ,19.85462 
205 ,38.5325 ,1.07932 ,2.02350 ,19.85462 
206 ,38.7086 ,1.08114 ,1.99955 ,19.61957 
207 ,38.8847 ,1.08293 ,1.98586 ,19.48526 
208 ,39.0768 ,1.08482 ,1.98244 ,19.45168 
209 ,39.2847 ,1.08683 ,1.96533 ,19.28379 
210 ,39.4768 ,1.08885 ,1.96533 ,19.28379 
211 ,39.6851 ,1.09081 ,1.92768 ,18.91443 
212 ,39.9092 ,1.09311 ,1.92426 ,18.88085 
213 ,40.1012 ,1.09506 ,1.90715 ,18.71296 
214 ,40.2767 ,1.09683 ,1.90373 ,18.67938 
215 ,40.4534 ,1.09862 ,1.87977 ,18.44433 
216 ,40.6453 ,1.10050 ,1.85924 ,18.24286 
217 ,40.8215 ,1.10222 ,1.84555 ,18.10855 
218 ,41.0135 ,1.10417 ,1.84213 ,18.07497 
219 ,41.2057 ,1.10601 ,1.81475 ,17.80634 
220 ,41.3974 ,1.10811 ,1.82160 ,17.87350 
221 ,41.5738 ,1.10974 ,1.81133 ,17.77276 
222 ,41.7497 ,1.11155 ,1.79080 ,17.57129 
223 ,41.9419 ,1.11344 ,1.77369 ,17.40340 
224 ,42.1496 ,1.11550 ,1.73946 ,17.06762 
225 ,42.3257 ,1.11736 ,1.74973 ,17.16836 
226 ,42.5180 ,1.11917 ,1.74289 ,17.10120 
227 ,42.7263 ,1.12134 ,1.69840 ,16.66468 
228 ,42.9345 ,1.12335 ,1.70182 ,16.69826 
229 ,43.1265 ,1.12528 ,1.67786 ,16.46321 
230 ,43.3186 ,1.12720 ,1.66418 ,16.32890 
231 ,43.5101 ,1.12907 ,1.63680 ,16.06027 
232 ,43.6866 ,1.13090 ,1.63338 ,16.02669 
233 ,43.8788 ,1.13278 ,1.63338 ,16.02669 
234 ,44.0868 ,1.13488 ,1.59916 ,15.69091 
235 ,44.2950 ,1.13682 ,1.60258 ,15.72449 
236 ,44.5029 ,1.13899 ,1.58204 ,15.52302 
237 ,44.6951 ,1.14102 ,1.57862 ,15.48944 
238 ,44.8870 ,1.14293 ,1.54782 ,15.18724 
239 ,45.0633 ,1.14469 ,1.54098 ,15.12008 
240 ,45.2553 ,1.14659 ,1.53413 ,15.05292 
241 ,45.4473 ,1.14850 ,1.49991 ,14.71714 
242 ,45.6231 ,1.15030 ,1.49649 ,14.68356 
243 ,45.7994 ,1.15205 ,1.48622 ,14.58283 
244 ,45.9916 ,1.15387 ,1.47596 ,14.48209 
245 ,46.1832 ,1.15575 ,1.45885 ,14.31420 
246 ,46.3757 ,1.15774 ,1.45885 ,14.31420 
247 ,46.5519 ,1.15953 ,1.43489 ,14.07915 
248 ,46.7598 ,1.16154 ,1.42120 ,13.94484 
249 ,46.9359 ,1.16333 ,1.41436 ,13.87768 
250 ,47.1120 ,1.16511 ,1.40067 ,13.74337 
251 ,47.2882 ,1.16688 ,1.36303 ,13.37401 
252 ,47.4643 ,1.16862 ,1.34934 ,13.23969 
253 ,47.6563 ,1.17059 ,1.36303 ,13.37401 
254 ,47.8324 ,1.17233 ,1.35276 ,13.27327 
255 ,48.0083 ,1.17412 ,1.33565 ,13.10538 
256 ,48.2004 ,1.17603 ,1.32538 ,13.00465 
257 ,48.3764 ,1.17778 ,1.30827 ,12.83675 
258 ,48.5684 ,1.17964 ,1.27747 ,12.53455 
259 ,48.7446 ,1.18148 ,1.27747 ,12.53455 
260 ,48.9046 ,1.18320 ,1.26720 ,12.43381 
261 ,49.0807 ,1.18477 ,1.25009 ,12.26592 
262 ,49.2570 ,1.18658 ,1.25694 ,12.33308 
263 ,49.4491 ,1.18853 ,1.22614 ,12.03088 
264 ,49.6411 ,1.19031 ,1.21929 ,11.96372 
265 ,49.8652 ,1.19250 ,1.19534 ,11.72867 
266 ,50.0574 ,1.19454 ,1.19876 ,11.76225 
267 ,50.2493 ,1.19655 ,1.16796 ,11.46004 
268 ,50.4254 ,1.19830 ,1.15427 ,11.32573 
269 ,50.6015 ,1.19999 ,1.14743 ,11.25857 
270 ,50.8096 ,1.20202 ,1.14058 ,11.19142 
271 ,50.9855 ,1.20387 ,1.11321 ,10.92279 
272 ,51.1772 ,1.20573 ,1.12347 ,11.02353 
273 ,51.3694 ,1.20769 ,1.08925 ,10.68774 
274 ,51.5455 ,1.20947 ,1.07899 ,10.58701 
275 ,51.7381 ,1.21127 ,1.06872 ,10.48627 
276 ,51.9299 ,1.21324 ,1.04819 ,10.28480 
277 ,52.1057 ,1.21508 ,1.02765 ,10.08333 
278 ,52.2823 ,1.21681 ,1.03108 ,10.11691 
279 ,52.4584 ,1.21860 ,1.02765 ,10.08333 
280 ,52.6502 ,1.22044 ,1.00028 ,9.81471 
281 ,52.8585 ,1.22251 ,1.00370 ,9.84829 
282 ,53.0348 ,1.22436 ,1.00028 ,9.81471 
283 ,53.1942 ,1.22608 ,0.97290 ,9.54608 
284 ,53.3706 ,1.22770 ,0.95237 ,9.34461 
285 ,53.5628 ,1.22962 ,0.95921 ,9.41177 
286 ,53.7548 ,1.23145 ,0.94210 ,9.24388 
287 ,53.9309 ,1.23331 ,0.92499 ,9.07598 
288 ,54.1071 ,1.23510 ,0.90446 ,8.87451 
289 ,54.2831 ,1.23685 ,0.89419 ,8.77378 
290 ,54.4593 ,1.23857 ,0.90103 ,8.84094 
291 ,54.6512 ,1.24045 ,0.86681 ,8.50515 
292 ,54.8434 ,1.24238 ,0.87366 ,8.57231 
293 ,55.0355 ,1.24427 ,0.86339 ,8.47158 
294 ,55.2275 ,1.24622 ,0.82917 ,8.13579 
295 ,55.4033 ,1.24805 ,0.82917 ,8.13579 
296 ,55.5956 ,1.24999 ,0.82232 ,8.06864 
297 ,55.7715 ,1.25169 ,0.80863 ,7.93432 
298 ,55.9477 ,1.25347 ,0.78810 ,7.73285 
299 ,56.1240 ,1.25525 ,0.77099 ,7.56496 
300 ,56.3159 ,1.25707 ,0.77784 ,7.63212 
301 ,56.4917 ,1.25893 ,0.76415 ,7.49780 
302 ,56.7002 ,1.26093 ,0.75730 ,7.43065 
303 ,56.8922 ,1.26291 ,0.72650 ,7.12844 
304 ,57.0843 ,1.26478 ,0.72308 ,7.09486 
305 ,57.2923 ,1.26682 ,0.71624 ,7.02771 
306 ,57.4684 ,1.26870 ,0.69228 ,6.79266 
307 ,57.6601 ,1.27055 ,0.69913 ,6.85982 
308 ,57.8366 ,1.27234 ,0.68886 ,6.75908 
309 ,58.0126 ,1.27409 ,0.65806 ,6.45688 
310 ,58.2046 ,1.27599 ,0.65806 ,6.45688 
311 ,58.3967 ,1.27785 ,0.64437 ,6.32256 
312 ,58.5569 ,1.27968 ,0.62042 ,6.08752 
313 ,58.7329 ,1.28129 ,0.62042 ,6.08752 
314 ,58.9091 ,1.28309 ,0.59988 ,5.88605 
315 ,59.1011 ,1.28498 ,0.59988 ,5.88605 
316 ,59.2932 ,1.28688 ,0.57935 ,5.68458 
317 ,59.4849 ,1.28889 ,0.58962 ,5.78531 
318 ,59.6612 ,1.29055 ,0.57593 ,5.65100 
319 ,59.8374 ,1.29236 ,0.56566 ,5.55026 
320 ,60.0136 ,1.29409 ,0.54855 ,5.38237 
321 ,60.2055 ,1.29596 ,0.53828 ,5.28164 
322 ,60.3816 ,1.29782 ,0.52117 ,5.11375 
323 ,60.5576 ,1.29953 ,0.51775 ,5.08017 
324 ,60.7335 ,1.30132 ,0.48695 ,4.77796 
325 ,60.9095 ,1.30304 ,0.47326 ,4.64365 
326 ,61.1017 ,1.30488 ,0.46300 ,4.54291 
327 ,61.2940 ,1.30686 ,0.46300 ,4.54291 
328 ,61.5018 ,1.30894 ,0.46300 ,4.54291 
329 ,61.6938 ,1.31082 ,0.43562 ,4.27429 
330 ,61.9018 ,1.31281 ,0.43562 ,4.27429 
331 ,62.0782 ,1.31473 ,0.42877 ,4.20713 
332 ,62.2863 ,1.31677 ,0.41509 ,4.07282 
333 ,62.4945 ,1.31884 ,0.39455 ,3.87135 
334 ,62.6701 ,1.32066 ,0.38086 ,3.73703 
335 ,62.8466 ,1.32238 ,0.38086 ,3.73703 
336 ,63.0227 ,1.32419 ,0.37402 ,3.66988 
337 ,63.2307 ,1.32624 ,0.34664 ,3.40125 
338 ,63.4384 ,1.32831 ,0.35006 ,3.43483 
339 ,63.6150 ,1.33005 ,0.33980 ,3.33410 
340 ,63.8067 ,1.33203 ,0.31242 ,3.06547 
341 ,63.9831 ,1.33378 ,0.31584 ,3.09905 
342 ,64.1908 ,1.33584 ,0.28847 ,2.83042 
343 ,64.3673 ,1.33763 ,0.28162 ,2.76326 
344 ,64.5592 ,1.33946 ,0.28162 ,2.76326 
345 ,64.7354 ,1.34132 ,0.27135 ,2.66253 
346 ,64.9111 ,1.34305 ,0.24055 ,2.36032 
347 ,65.0876 ,1.34484 ,0.24055 ,2.36032 
348 ,65.2796 ,1.34675 ,0.24740 ,2.42748 
349 ,65.4715 ,1.34868 ,0.22002 ,2.15885 
350 ,65.6637 ,1.35062 ,0.22344 ,2.19243 
351 ,65.8407 ,1.35235 ,0.22002 ,2.15885 
352 ,66.0316 ,1.35420 ,0.19607 ,1.92381 
353 ,66.2081 ,1.35599 ,0.17553 ,1.72234 
354 ,66.4000 ,1.35789 ,0.18580 ,1.82307 
355 ,66.5762 ,1.35971 ,0.16869 ,1.65518 
356 ,66.7523 ,1.36149 ,0.15500 ,1.52087 
357 ,66.9443 ,1.36332 ,0.16527 ,1.62160 
358 ,67.1201 ,1.36513 ,0.14473 ,1.42013 
359 ,67.2963 ,1.36688 ,0.12762 ,1.25224 
360 ,67.4884 ,1.36873 ,0.11393 ,1.11793 
361 ,67.6803 ,1.37070 ,0.12420 ,1.21866 
362 ,67.8725 ,1.37257 ,0.11051 ,1.08435 
363 ,68.0487 ,1.37443 ,0.07629 ,0.74857 
364 ,68.2408 ,1.37625 ,0.09340 ,0.91646 
365 ,68.4327 ,1.37816 ,0.07629 ,0.74857 
366 ,68.6092 ,1.38003 ,0.05234 ,0.51352 
367 ,68.8011 ,1.38192 ,0.06260 ,0.61425 
368 ,68.9929 ,1.38385 ,0.03865 ,0.37920 
369 ,69.1691 ,1.38563 ,0.02838 ,0.27847 
370 ,69.3614 ,1.38749 ,0.02496 ,0.24489 
371 ,69.5695 ,1.38958 ,0.00443 ,0.04342 
372 ,69.7616 ,1.39144 ,0.00100 ,0.00984 
373 ,69.9532 ,1.39345 ,-0.01611 ,-0.15805 
374 ,70.1295 ,1.39520 ,-0.04348 ,-0.42667 
375 ,70.3213 ,1.39705 ,-0.02980 ,-0.29236 
376 ,70.5140 ,1.39898 ,-0.03322 ,-0.32594 
377 ,70.7220 ,1.40106 ,-0.02980 ,-0.29236 
378 ,70.9140 ,1.40300 ,-0.07771 ,-0.76246 
379 ,71.1062 ,1.40495 ,-0.04691 ,-0.46025 
380 ,71.2982 ,1.40692 ,-0.07428 ,-0.72888 
381 ,71.4740 ,1.40874 ,-0.09824 ,-0.96393 
382 ,71.6663 ,1.41058 ,-0.10851 ,-1.06466 
383 ,71.8585 ,1.41246 ,-0.11193 ,-1.09824 
384 ,72.0505 ,1.41438 ,-0.10851 ,-1.06466 
385 ,72.2425 ,1.41629 ,-0.12219 ,-1.19898 
386 ,72.4182 ,1.41817 ,-0.13931 ,-1.36687 
387 ,72.5946 ,1.41989 ,-0.15984 ,-1.56834 
388 ,72.8188 ,1.42196 ,-0.15984 ,-1.56834 
389 ,73.0268 ,1.42415 ,-0.16326 ,-1.60191 
390 ,73.2027 ,1.42594 ,-0.16326 ,-1.60191 
391 ,73.3948 ,1.42785 ,-0.19748 ,-1.93770 
392 ,73.5869 ,1.42972 ,-0.19406 ,-1.90412 
393 ,73.7632 ,1.43158 ,-0.19406 ,-1.90412 
394 ,73.9550 ,1.43336 ,-0.23170 ,-2.27348 
395 ,74.1474 ,1.43540 ,-0.22144 ,-2.17275 
396 ,74.3395 ,1.43730 ,-0.22828 ,-2.23990 
397 ,74.5473 ,1.43921 ,-0.24539 ,-2.40779 
398 ,74.7556 ,1.44142 ,-0.26250 ,-2.57569 
399 ,74.9472 ,1.44342 ,-0.26250 ,-2.57569 
400 ,75.1237 ,1.44518 ,-0.26250 ,-2.57569 
401 ,75.3157 ,1.44699 ,-0.31041 ,-3.04578 
402 ,75.4918 ,1.44883 ,-0.29673 ,-2.91147 
403 ,75.6835 ,1.45075 ,-0.30015 ,-2.94505 
404 ,75.8760 ,1.45260 ,-0.30699 ,-3.01220 
405 ,76.0681 ,1.45464 ,-0.31041 ,-3.04578 
406 ,76.2441 ,1.45633 ,-0.32410 ,-3.18010 
407 ,76.4359 ,1.45818 ,-0.33779 ,-3.31441 
408 ,76.6124 ,1.46005 ,-0.35148 ,-3.44872 
409 ,76.8039 ,1.46203 ,-0.36859 ,-3.61661 
410 ,76.9805 ,1.46372 ,-0.36859 ,-3.61661 
411 ,77.1566 ,1.46550 ,-0.37886 ,-3.71735 
412 ,77.3485 ,1.46739 ,-0.37886 ,-3.71735 
413 ,77.5246 ,1.46914 ,-0.38228 ,-3.75093 
414 ,77.7007 ,1.47095 ,-0.37886 ,-3.71735 
415 ,77.8768 ,1.47279 ,-0.40966 ,-4.01955 
416 ,78.0527 ,1.47443 ,-0.41650 ,-4.08671 
417 ,78.2450 ,1.47627 ,-0.40966 ,-4.01955 
418 ,78.4211 ,1.47811 ,-0.44046 ,-4.32176 
419 ,78.6292 ,1.48012 ,-0.43703 ,-4.28818 
420 ,78.8210 ,1.48209 ,-0.46099 ,-4.52323 
421 ,79.0292 ,1.48414 ,-0.47126 ,-4.62396 
422 ,79.2209 ,1.48611 ,-0.46783 ,-4.59038 
423 ,79.3973 ,1.48787 ,-0.48152 ,-4.72470 
424 ,79.5574 ,1.48959 ,-0.50548 ,-4.95975 
425 ,79.7497 ,1.49133 ,-0.48837 ,-4.79185 
426 ,79.9414 ,1.49330 ,-0.50548 ,-4.95975 
427 ,80.1338 ,1.49515 ,-0.50890 ,-4.99332 
428 ,80.3418 ,1.49730 ,-0.52601 ,-5.16121 
429 ,80.5177 ,1.49914 ,-0.54312 ,-5.32911 
430 ,80.7099 ,1.50095 ,-0.52601 ,-5.16121 
431 ,80.9018 ,1.50284 ,-0.56023 ,-5.49700 
432 ,81.0940 ,1.50482 ,-0.58419 ,-5.73205 
433 ,81.2859 ,1.50662 ,-0.56365 ,-5.53058 
434 ,81.4781 ,1.50867 ,-0.59445 ,-5.83278 
435 ,81.6543 ,1.51042 ,-0.59445 ,-5.83278 
436 ,81.8301 ,1.51214 ,-0.58761 ,-5.76562 
437 ,82.0064 ,1.51393 ,-0.59788 ,-5.86636 
438 ,82.1982 ,1.51580 ,-0.62183 ,-6.10141 
439 ,82.3746 ,1.51767 ,-0.62183 ,-6.10141 
440 ,82.5666 ,1.51953 ,-0.62525 ,-6.13499 
441 ,82.7425 ,1.52129 ,-0.62868 ,-6.16856 
442 ,82.9507 ,1.52338 ,-0.63894 ,-6.26930 
443 ,83.1265 ,1.52514 ,-0.63894 ,-6.26930 
444 ,83.3030 ,1.52695 ,-0.65263 ,-6.40361 
445 ,83.5107 ,1.52895 ,-0.66974 ,-6.57150 
446 ,83.6872 ,1.53075 ,-0.68001 ,-6.67224 
447 ,83.8950 ,1.53275 ,-0.67316 ,-6.60508 
448 ,84.0873 ,1.53469 ,-0.69712 ,-6.84013 
449 ,84.2789 ,1.53663 ,-0.71765 ,-7.04160 
450 ,84.4555 ,1.53842 ,-0.72450 ,-7.10876 
451 ,84.6472 ,1.54033 ,-0.73476 ,-7.20949 
452 ,84.8237 ,1.54209 ,-0.74845 ,-7.34380 
453 ,85.0156 ,1.54396 ,-0.73476 ,-7.20949 
454 ,85.2394 ,1.54615 ,-0.75872 ,-7.44454 
455 ,85.3995 ,1.54798 ,-0.76214 ,-7.47812 
456 ,85.5758 ,1.54962 ,-0.77583 ,-7.61243 
457 ,85.7519 ,1.55138 ,-0.76214 ,-7.47812 
458 ,85.9280 ,1.55316 ,-0.77241 ,-7.57885 
459 ,86.1042 ,1.55489 ,-0.78952 ,-7.74674 
460 ,86.2962 ,1.55674 ,-0.79294 ,-7.78032 
461 ,86.4882 ,1.55874 ,-0.81005 ,-7.94821 
462 ,86.6802 ,1.56062 ,-0.83058 ,-8.14968 
463 ,86.8564 ,1.56241 ,-0.83401 ,-8.18326 
