Data stamp = , 24-04-2022 15:08:31 986

Calibration Values: 
Slope = , 26.54 , g/V 
Offset Voltage at no contact = , -0.501760 , V 

No , Time , Stage Position ,   Mass , Force 
   ,  (s) ,      (mm)      ,   (g)  , (mN)  

1 ,0.0000 ,0.69945 ,5.30194 ,52.02263 
2 ,0.2147 ,0.69954 ,5.29167 ,51.92190 
3 ,0.5513 ,0.70047 ,5.31905 ,52.19052 
4 ,0.7594 ,0.70208 ,5.29167 ,51.92190 
5 ,0.9510 ,0.70374 ,5.30194 ,52.02263 
6 ,1.1273 ,0.70553 ,5.30536 ,52.05621 
7 ,1.3191 ,0.70735 ,5.30878 ,52.08979 
8 ,1.4957 ,0.70914 ,5.30194 ,52.02263 
9 ,1.6876 ,0.71107 ,5.29852 ,51.98905 
10 ,1.8637 ,0.71283 ,5.30536 ,52.05621 
11 ,2.0559 ,0.71471 ,5.27114 ,51.72043 
12 ,2.2320 ,0.71652 ,5.25061 ,51.51896 
13 ,2.4240 ,0.71839 ,5.25061 ,51.51896 
14 ,2.6003 ,0.72025 ,5.24034 ,51.41822 
15 ,2.7760 ,0.72199 ,5.20612 ,51.08244 
16 ,2.9678 ,0.72388 ,5.19927 ,51.01528 
17 ,3.1441 ,0.72563 ,5.19243 ,50.94813 
18 ,3.3204 ,0.72745 ,5.16163 ,50.64592 
19 ,3.5124 ,0.72926 ,5.14452 ,50.47803 
20 ,3.6886 ,0.73108 ,5.12399 ,50.27656 
21 ,3.8804 ,0.73293 ,5.09319 ,49.97436 
22 ,4.0564 ,0.73478 ,5.08292 ,49.87362 
23 ,4.2329 ,0.73656 ,5.06581 ,49.70573 
24 ,4.4248 ,0.73840 ,5.05554 ,49.60499 
25 ,4.6168 ,0.74029 ,5.03159 ,49.36995 
26 ,4.8090 ,0.74225 ,5.02474 ,49.30279 
27 ,4.9852 ,0.74405 ,5.00421 ,49.10132 
28 ,5.1771 ,0.74598 ,4.98368 ,48.89985 
29 ,5.3694 ,0.74783 ,4.96315 ,48.69838 
30 ,5.5770 ,0.74993 ,4.93919 ,48.46333 
31 ,5.7693 ,0.75184 ,4.92208 ,48.29544 
32 ,5.9772 ,0.75389 ,4.90155 ,48.09397 
33 ,6.1536 ,0.75571 ,4.88101 ,47.89250 
34 ,6.3616 ,0.75781 ,4.87075 ,47.79177 
35 ,6.5537 ,0.75981 ,4.83995 ,47.48956 
36 ,6.7293 ,0.76162 ,4.82968 ,47.38883 
37 ,6.9054 ,0.76331 ,4.80915 ,47.18736 
38 ,7.0814 ,0.76507 ,4.79204 ,47.01946 
39 ,7.2736 ,0.76686 ,4.76466 ,46.75084 
40 ,7.4656 ,0.76877 ,4.75782 ,46.68368 
41 ,7.6580 ,0.77073 ,4.75097 ,46.61653 
42 ,7.8498 ,0.77271 ,4.69964 ,46.11285 
43 ,8.0264 ,0.77444 ,4.69279 ,46.04569 
44 ,8.2184 ,0.77640 ,4.68937 ,46.01212 
45 ,8.4110 ,0.77833 ,4.64831 ,45.60918 
46 ,8.6024 ,0.78019 ,4.66542 ,45.77707 
47 ,8.7783 ,0.78199 ,4.63804 ,45.50844 
48 ,8.9546 ,0.78373 ,4.61408 ,45.27339 
49 ,9.1466 ,0.78559 ,4.59355 ,45.07192 
50 ,9.3383 ,0.78753 ,4.58671 ,45.00477 
51 ,9.5150 ,0.78932 ,4.55933 ,44.73614 
52 ,9.7227 ,0.79135 ,4.54564 ,44.60183 
53 ,9.9306 ,0.79344 ,4.51484 ,44.29962 
54 ,10.1065 ,0.79530 ,4.51484 ,44.29962 
55 ,10.2830 ,0.79699 ,4.48746 ,44.03100 
56 ,10.4592 ,0.79878 ,4.47378 ,43.89668 
57 ,10.6514 ,0.80064 ,4.44640 ,43.62806 
58 ,10.8433 ,0.80257 ,4.44298 ,43.59448 
59 ,11.0191 ,0.80437 ,4.42586 ,43.42659 
60 ,11.1955 ,0.80612 ,4.41560 ,43.32585 
61 ,11.3712 ,0.80792 ,4.37111 ,42.88933 
62 ,11.5477 ,0.80966 ,4.35058 ,42.68786 
63 ,11.7398 ,0.81154 ,4.35742 ,42.75502 
64 ,11.9319 ,0.81346 ,4.33347 ,42.51997 
65 ,12.1075 ,0.81534 ,4.31293 ,42.31850 
66 ,12.2839 ,0.81706 ,4.28213 ,42.01630 
67 ,12.4761 ,0.81894 ,4.28213 ,42.01630 
68 ,12.6840 ,0.82101 ,4.26160 ,41.81483 
69 ,12.8761 ,0.82286 ,4.23422 ,41.54620 
70 ,13.0523 ,0.82473 ,4.23422 ,41.54620 
71 ,13.2284 ,0.82646 ,4.20000 ,41.21042 
72 ,13.4044 ,0.82823 ,4.17947 ,41.00895 
73 ,13.5801 ,0.83001 ,4.16920 ,40.90821 
74 ,13.7566 ,0.83173 ,4.17605 ,40.97537 
75 ,13.9326 ,0.83350 ,4.14525 ,40.67317 
76 ,14.1246 ,0.83544 ,4.11103 ,40.33738 
77 ,14.3005 ,0.83722 ,4.11103 ,40.33738 
78 ,14.4767 ,0.83894 ,4.10418 ,40.27023 
79 ,14.6850 ,0.84100 ,4.07338 ,39.96802 
80 ,14.8770 ,0.84293 ,4.06996 ,39.93444 
81 ,15.0692 ,0.84492 ,4.03916 ,39.63224 
82 ,15.2613 ,0.84675 ,4.01178 ,39.36361 
83 ,15.4532 ,0.84862 ,4.00152 ,39.26288 
84 ,15.6294 ,0.85048 ,3.98441 ,39.09499 
85 ,15.8215 ,0.85231 ,3.97072 ,38.96067 
86 ,16.0296 ,0.85439 ,3.92623 ,38.52415 
87 ,16.2216 ,0.85634 ,3.92965 ,38.55773 
88 ,16.4135 ,0.85821 ,3.91938 ,38.45700 
89 ,16.6058 ,0.86015 ,3.88858 ,38.15479 
90 ,16.7979 ,0.86214 ,3.89201 ,38.18837 
91 ,16.9900 ,0.86405 ,3.85779 ,37.85259 
92 ,17.1818 ,0.86595 ,3.85094 ,37.78543 
93 ,17.3580 ,0.86779 ,3.84067 ,37.68470 
94 ,17.5498 ,0.86964 ,3.80645 ,37.34891 
95 ,17.7260 ,0.87144 ,3.79961 ,37.28176 
96 ,17.9182 ,0.87327 ,3.77565 ,37.04671 
97 ,18.1105 ,0.87516 ,3.75512 ,36.84524 
98 ,18.3026 ,0.87717 ,3.72774 ,36.57661 
99 ,18.5106 ,0.87917 ,3.71748 ,36.47588 
100 ,18.7026 ,0.88127 ,3.69010 ,36.20725 
101 ,18.8948 ,0.88312 ,3.68668 ,36.17367 
102 ,19.0866 ,0.88494 ,3.66272 ,35.93863 
103 ,19.2785 ,0.88691 ,3.65930 ,35.90505 
104 ,19.4709 ,0.88883 ,3.63877 ,35.70358 
105 ,19.6467 ,0.89063 ,3.61139 ,35.43495 
106 ,19.8391 ,0.89248 ,3.59428 ,35.26706 
107 ,20.0470 ,0.89456 ,3.58059 ,35.13275 
108 ,20.2233 ,0.89640 ,3.55321 ,34.86412 
109 ,20.4309 ,0.89838 ,3.53952 ,34.72981 
110 ,20.6075 ,0.90022 ,3.54295 ,34.76338 
111 ,20.7831 ,0.90210 ,3.50872 ,34.42760 
112 ,20.9596 ,0.90377 ,3.50872 ,34.42760 
113 ,21.1517 ,0.90565 ,3.47450 ,34.09182 
114 ,21.3435 ,0.90750 ,3.44713 ,33.82319 
115 ,21.5519 ,0.90966 ,3.45397 ,33.89035 
116 ,21.7440 ,0.91158 ,3.42659 ,33.62172 
117 ,21.9360 ,0.91342 ,3.41633 ,33.52099 
118 ,22.1441 ,0.91553 ,3.37526 ,33.11805 
119 ,22.3361 ,0.91746 ,3.35815 ,32.95016 
120 ,22.5120 ,0.91927 ,3.36499 ,33.01731 
121 ,22.7202 ,0.92123 ,3.34104 ,32.78227 
122 ,22.8960 ,0.92313 ,3.33419 ,32.71511 
123 ,23.0724 ,0.92489 ,3.31366 ,32.51364 
124 ,23.2644 ,0.92685 ,3.27944 ,32.17786 
125 ,23.4404 ,0.92849 ,3.26233 ,32.00996 
126 ,23.6328 ,0.93039 ,3.27259 ,32.11070 
127 ,23.8246 ,0.93231 ,3.24180 ,31.80849 
128 ,24.0003 ,0.93416 ,3.22811 ,31.67418 
129 ,24.1768 ,0.93590 ,3.19388 ,31.33840 
130 ,24.3848 ,0.93795 ,3.18020 ,31.20409 
131 ,24.5931 ,0.94002 ,3.19046 ,31.30482 
132 ,24.7852 ,0.94196 ,3.15282 ,30.93546 
133 ,24.9771 ,0.94384 ,3.13913 ,30.80115 
134 ,25.1530 ,0.94563 ,3.12886 ,30.70041 
135 ,25.3454 ,0.94757 ,3.12202 ,30.63325 
136 ,25.5372 ,0.94944 ,3.09464 ,30.36463 
137 ,25.7294 ,0.95143 ,3.09122 ,30.33105 
138 ,25.9052 ,0.95326 ,3.05700 ,29.99527 
139 ,26.0815 ,0.95493 ,3.05700 ,29.99527 
140 ,26.2577 ,0.95670 ,3.02962 ,29.72664 
141 ,26.4657 ,0.95869 ,3.02278 ,29.65948 
142 ,26.6419 ,0.96053 ,3.01251 ,29.55875 
143 ,26.8500 ,0.96254 ,2.99198 ,29.35728 
144 ,27.0739 ,0.96471 ,2.98513 ,29.29012 
145 ,27.2497 ,0.96661 ,2.95433 ,28.98792 
146 ,27.4259 ,0.96837 ,2.96118 ,29.05507 
147 ,27.6024 ,0.97019 ,2.91669 ,28.61856 
148 ,27.7944 ,0.97209 ,2.90985 ,28.55140 
149 ,27.9859 ,0.97397 ,2.89273 ,28.38351 
150 ,28.1620 ,0.97573 ,2.87905 ,28.24919 
151 ,28.3221 ,0.97745 ,2.86878 ,28.14846 
152 ,28.5143 ,0.97917 ,2.86536 ,28.11488 
153 ,28.6908 ,0.98102 ,2.83456 ,27.81268 
154 ,28.8987 ,0.98302 ,2.80718 ,27.54405 
155 ,29.0749 ,0.98486 ,2.80034 ,27.47689 
156 ,29.2990 ,0.98697 ,2.78322 ,27.30900 
157 ,29.4909 ,0.98905 ,2.76611 ,27.14111 
158 ,29.6991 ,0.99104 ,2.74216 ,26.90606 
159 ,29.8913 ,0.99306 ,2.73531 ,26.83891 
160 ,30.0833 ,0.99488 ,2.71820 ,26.67101 
161 ,30.2754 ,0.99688 ,2.70109 ,26.50312 
162 ,30.4670 ,0.99875 ,2.68398 ,26.33523 
163 ,30.6596 ,1.00061 ,2.67372 ,26.23450 
164 ,30.8515 ,1.00258 ,2.66687 ,26.16734 
165 ,31.0598 ,1.00465 ,2.63949 ,25.89871 
166 ,31.2518 ,1.00652 ,2.64292 ,25.93229 
167 ,31.4599 ,1.00872 ,2.61554 ,25.66367 
168 ,31.6360 ,1.01047 ,2.60185 ,25.52935 
169 ,31.8280 ,1.01233 ,2.59501 ,25.46220 
170 ,32.0201 ,1.01434 ,2.57105 ,25.22715 
171 ,32.2121 ,1.01618 ,2.55736 ,25.09283 
172 ,32.3882 ,1.01794 ,2.54367 ,24.95852 
173 ,32.5801 ,1.01979 ,2.53683 ,24.89136 
174 ,32.7722 ,1.02181 ,2.49918 ,24.52200 
175 ,32.9643 ,1.02373 ,2.50603 ,24.58916 
176 ,33.1406 ,1.02551 ,2.48550 ,24.38769 
177 ,33.3325 ,1.02749 ,2.46496 ,24.18622 
178 ,33.5087 ,1.02922 ,2.44101 ,23.95117 
179 ,33.7162 ,1.03116 ,2.42732 ,23.81686 
180 ,33.9089 ,1.03310 ,2.41363 ,23.68255 
181 ,34.1167 ,1.03523 ,2.39994 ,23.54823 
182 ,34.2930 ,1.03705 ,2.38283 ,23.38034 
183 ,34.4846 ,1.03893 ,2.37599 ,23.31318 
184 ,34.6611 ,1.04072 ,2.35888 ,23.14529 
185 ,34.8370 ,1.04250 ,2.33492 ,22.91024 
186 ,35.0134 ,1.04428 ,2.31781 ,22.74235 
187 ,35.2053 ,1.04609 ,2.31781 ,22.74235 
188 ,35.3814 ,1.04790 ,2.30754 ,22.64162 
189 ,35.5575 ,1.04967 ,2.29728 ,22.54088 
190 ,35.7653 ,1.05168 ,2.28017 ,22.37299 
191 ,35.9415 ,1.05352 ,2.26990 ,22.27226 
192 ,36.1336 ,1.05546 ,2.22883 ,21.86932 
193 ,36.3255 ,1.05733 ,2.22883 ,21.86932 
194 ,36.5179 ,1.05928 ,2.21515 ,21.73500 
195 ,36.7256 ,1.06128 ,2.19803 ,21.56711 
196 ,36.9017 ,1.06311 ,2.18777 ,21.46638 
197 ,37.0941 ,1.06504 ,2.15012 ,21.09702 
198 ,37.3023 ,1.06711 ,2.16381 ,21.23133 
199 ,37.4778 ,1.06893 ,2.13301 ,20.92912 
200 ,37.6544 ,1.07065 ,2.12617 ,20.86197 
201 ,37.8462 ,1.07254 ,2.11590 ,20.76123 
202 ,38.0381 ,1.07445 ,2.11248 ,20.72766 
203 ,38.2147 ,1.07620 ,2.08852 ,20.49261 
204 ,38.4063 ,1.07811 ,2.06115 ,20.22398 
205 ,38.5828 ,1.07993 ,2.05773 ,20.19040 
206 ,38.7748 ,1.08181 ,2.02693 ,19.88820 
207 ,38.9829 ,1.08385 ,2.03377 ,19.95535 
208 ,39.1589 ,1.08566 ,2.02350 ,19.85462 
209 ,39.3350 ,1.08742 ,2.00297 ,19.65315 
210 ,39.5269 ,1.08930 ,1.99270 ,19.55241 
211 ,39.7351 ,1.09132 ,1.97217 ,19.35094 
212 ,39.9271 ,1.09327 ,1.94822 ,19.11590 
213 ,40.1351 ,1.09537 ,1.93111 ,18.94801 
214 ,40.3274 ,1.09734 ,1.91057 ,18.74654 
215 ,40.5196 ,1.09929 ,1.91742 ,18.81369 
216 ,40.7116 ,1.10111 ,1.87635 ,18.41075 
217 ,40.9038 ,1.10306 ,1.87293 ,18.37717 
218 ,41.0797 ,1.10486 ,1.87635 ,18.41075 
219 ,41.2714 ,1.10677 ,1.84555 ,18.10855 
220 ,41.4480 ,1.10856 ,1.82844 ,17.94066 
221 ,41.6401 ,1.11045 ,1.79764 ,17.63845 
222 ,41.8321 ,1.11241 ,1.80449 ,17.70561 
223 ,42.0242 ,1.11426 ,1.80106 ,17.67203 
224 ,42.2002 ,1.11609 ,1.78395 ,17.50414 
225 ,42.3919 ,1.11800 ,1.74973 ,17.16836 
226 ,42.5683 ,1.11975 ,1.74631 ,17.13478 
227 ,42.7761 ,1.12176 ,1.73946 ,17.06762 
228 ,42.9525 ,1.12357 ,1.73604 ,17.03404 
229 ,43.1605 ,1.12564 ,1.71893 ,16.86615 
230 ,43.3365 ,1.12740 ,1.69840 ,16.66468 
231 ,43.5446 ,1.12946 ,1.67786 ,16.46321 
232 ,43.7529 ,1.13156 ,1.65391 ,16.22816 
233 ,43.9449 ,1.13344 ,1.66075 ,16.29532 
234 ,44.1210 ,1.13528 ,1.64022 ,16.09385 
235 ,44.3131 ,1.13719 ,1.63680 ,16.06027 
236 ,44.5048 ,1.13915 ,1.62311 ,15.92596 
237 ,44.6971 ,1.14095 ,1.60258 ,15.72449 
238 ,44.8733 ,1.14278 ,1.60258 ,15.72449 
239 ,45.0814 ,1.14478 ,1.56836 ,15.38871 
240 ,45.2894 ,1.14694 ,1.55124 ,15.22081 
241 ,45.4655 ,1.14871 ,1.54098 ,15.12008 
242 ,45.6416 ,1.15049 ,1.54098 ,15.12008 
243 ,45.8337 ,1.15237 ,1.52387 ,14.95219 
244 ,46.0099 ,1.15417 ,1.49649 ,14.68356 
245 ,46.1859 ,1.15591 ,1.48965 ,14.61640 
246 ,46.3776 ,1.15781 ,1.49307 ,14.64998 
247 ,46.5539 ,1.15965 ,1.46227 ,14.34778 
248 ,46.7138 ,1.16129 ,1.44858 ,14.21346 
249 ,46.8900 ,1.16297 ,1.43831 ,14.11273 
250 ,47.0662 ,1.16473 ,1.41778 ,13.91126 
251 ,47.2583 ,1.16655 ,1.42805 ,14.01199 
252 ,47.4499 ,1.16855 ,1.40067 ,13.74337 
253 ,47.6259 ,1.17037 ,1.38698 ,13.60906 
254 ,47.8019 ,1.17211 ,1.38698 ,13.60906 
255 ,48.0106 ,1.17400 ,1.37329 ,13.47474 
256 ,48.2346 ,1.17634 ,1.36645 ,13.40759 
257 ,48.4112 ,1.17819 ,1.34249 ,13.17254 
258 ,48.6028 ,1.18002 ,1.32880 ,13.03822 
259 ,48.7944 ,1.18202 ,1.29458 ,12.70244 
260 ,48.9868 ,1.18381 ,1.28774 ,12.63528 
261 ,49.1631 ,1.18566 ,1.28432 ,12.60171 
262 ,49.3711 ,1.18765 ,1.26036 ,12.36666 
263 ,49.5629 ,1.18958 ,1.26036 ,12.36666 
264 ,49.7393 ,1.19141 ,1.23641 ,12.13161 
265 ,49.9155 ,1.19321 ,1.22272 ,11.99730 
266 ,50.0914 ,1.19496 ,1.22956 ,12.06445 
267 ,50.2835 ,1.19686 ,1.19534 ,11.72867 
268 ,50.4596 ,1.19865 ,1.17481 ,11.52720 
269 ,50.6676 ,1.20068 ,1.16796 ,11.46004 
270 ,50.8598 ,1.20257 ,1.16796 ,11.46004 
271 ,51.0519 ,1.20447 ,1.15085 ,11.29215 
272 ,51.2600 ,1.20658 ,1.12690 ,11.05710 
273 ,51.4521 ,1.20852 ,1.12005 ,10.98995 
274 ,51.6602 ,1.21053 ,1.10294 ,10.82206 
275 ,51.8359 ,1.21245 ,1.10636 ,10.85563 
276 ,52.0120 ,1.21416 ,1.09267 ,10.72132 
277 ,52.2044 ,1.21602 ,1.06530 ,10.45270 
278 ,52.3965 ,1.21801 ,1.05503 ,10.35196 
279 ,52.5883 ,1.21986 ,1.04134 ,10.21765 
280 ,52.7645 ,1.22167 ,1.03108 ,10.11691 
281 ,52.9404 ,1.22341 ,1.01396 ,9.94902 
282 ,53.1324 ,1.22545 ,1.01054 ,9.91544 
283 ,53.3088 ,1.22713 ,1.00370 ,9.84829 
284 ,53.5009 ,1.22905 ,0.96605 ,9.47892 
285 ,53.6927 ,1.23091 ,0.97974 ,9.61324 
286 ,53.8690 ,1.23270 ,0.98659 ,9.68039 
287 ,54.0610 ,1.23456 ,0.93525 ,9.17672 
288 ,54.2531 ,1.23662 ,0.93525 ,9.17672 
289 ,54.4292 ,1.23828 ,0.93525 ,9.17672 
290 ,54.6053 ,1.24013 ,0.90446 ,8.87451 
291 ,54.7973 ,1.24195 ,0.90103 ,8.84094 
292 ,54.9736 ,1.24376 ,0.89419 ,8.77378 
293 ,55.1653 ,1.24564 ,0.87366 ,8.57231 
294 ,55.3252 ,1.24736 ,0.86681 ,8.50515 
295 ,55.5017 ,1.24905 ,0.84286 ,8.27011 
296 ,55.6777 ,1.25077 ,0.83943 ,8.23653 
297 ,55.8700 ,1.25264 ,0.84286 ,8.27011 
298 ,56.0459 ,1.25453 ,0.80863 ,7.93432 
299 ,56.2219 ,1.25624 ,0.79837 ,7.83359 
300 ,56.3820 ,1.25794 ,0.79152 ,7.76643 
301 ,56.5576 ,1.25962 ,0.77441 ,7.59854 
302 ,56.7341 ,1.26138 ,0.78468 ,7.69927 
303 ,56.9260 ,1.26325 ,0.77441 ,7.59854 
304 ,57.1183 ,1.26513 ,0.74019 ,7.26276 
305 ,57.3105 ,1.26708 ,0.74704 ,7.32991 
306 ,57.5026 ,1.26893 ,0.71966 ,7.06129 
307 ,57.7106 ,1.27105 ,0.73335 ,7.19560 
308 ,57.9025 ,1.27300 ,0.69228 ,6.79266 
309 ,58.0786 ,1.27481 ,0.67175 ,6.59119 
310 ,58.2548 ,1.27656 ,0.67859 ,6.65835 
311 ,58.4466 ,1.27847 ,0.67859 ,6.65835 
312 ,58.6389 ,1.28035 ,0.64779 ,6.35614 
313 ,58.8470 ,1.28247 ,0.64095 ,6.28899 
314 ,59.0392 ,1.28431 ,0.63068 ,6.18825 
315 ,59.2471 ,1.28640 ,0.60330 ,5.91962 
316 ,59.4233 ,1.28825 ,0.61015 ,5.98678 
317 ,59.6150 ,1.29018 ,0.59646 ,5.85247 
318 ,59.8074 ,1.29199 ,0.58277 ,5.71815 
319 ,60.0316 ,1.29413 ,0.57593 ,5.65100 
320 ,60.2236 ,1.29623 ,0.55539 ,5.44953 
321 ,60.4158 ,1.29814 ,0.54171 ,5.31522 
322 ,60.5918 ,1.29995 ,0.54513 ,5.34879 
323 ,60.7839 ,1.30182 ,0.52802 ,5.18090 
324 ,60.9599 ,1.30365 ,0.51091 ,5.01301 
325 ,61.1520 ,1.30549 ,0.52117 ,5.11375 
326 ,61.3280 ,1.30728 ,0.51091 ,5.01301 
327 ,61.5202 ,1.30918 ,0.48011 ,4.71081 
328 ,61.7118 ,1.31110 ,0.47326 ,4.64365 
329 ,61.9045 ,1.31295 ,0.45273 ,4.44218 
330 ,62.0805 ,1.31483 ,0.44246 ,4.34144 
331 ,62.2882 ,1.31681 ,0.45273 ,4.44218 
332 ,62.4645 ,1.31861 ,0.44246 ,4.34144 
333 ,62.6564 ,1.32060 ,0.42877 ,4.20713 
334 ,62.8323 ,1.32227 ,0.40824 ,4.00566 
335 ,63.0245 ,1.32416 ,0.39797 ,3.90493 
336 ,63.2170 ,1.32611 ,0.39455 ,3.87135 
337 ,63.3928 ,1.32798 ,0.37060 ,3.63630 
338 ,63.5689 ,1.32968 ,0.38086 ,3.73703 
339 ,63.7449 ,1.33145 ,0.36718 ,3.60272 
340 ,63.9367 ,1.33334 ,0.33295 ,3.26694 
341 ,64.1290 ,1.33521 ,0.32953 ,3.23336 
342 ,64.3372 ,1.33726 ,0.32953 ,3.23336 
343 ,64.5132 ,1.33911 ,0.31242 ,3.06547 
344 ,64.7051 ,1.34102 ,0.31584 ,3.09905 
345 ,64.8814 ,1.34282 ,0.29531 ,2.89758 
346 ,65.0411 ,1.34452 ,0.27135 ,2.66253 
347 ,65.2177 ,1.34613 ,0.27135 ,2.66253 
348 ,65.3937 ,1.34798 ,0.26793 ,2.62895 
349 ,65.5698 ,1.34971 ,0.26109 ,2.56179 
350 ,65.7620 ,1.35152 ,0.24055 ,2.36032 
351 ,65.9699 ,1.35359 ,0.24055 ,2.36032 
352 ,66.1459 ,1.35538 ,0.24398 ,2.39390 
353 ,66.3221 ,1.35716 ,0.21318 ,2.09170 
354 ,66.4983 ,1.35897 ,0.19607 ,1.92381 
355 ,66.6903 ,1.36091 ,0.19607 ,1.92381 
356 ,66.8823 ,1.36271 ,0.17896 ,1.75592 
357 ,67.0584 ,1.36455 ,0.16869 ,1.65518 
358 ,67.2505 ,1.36641 ,0.17553 ,1.72234 
359 ,67.4585 ,1.36850 ,0.14131 ,1.38655 
360 ,67.6505 ,1.37038 ,0.16869 ,1.65518 
361 ,67.8267 ,1.37225 ,0.13789 ,1.35298 
362 ,68.0188 ,1.37413 ,0.12420 ,1.21866 
363 ,68.2107 ,1.37609 ,0.11051 ,1.08435 
364 ,68.3866 ,1.37789 ,0.09682 ,0.95004 
365 ,68.5630 ,1.37959 ,0.09682 ,0.95004 
366 ,68.7709 ,1.38156 ,0.07287 ,0.71499 
367 ,68.9633 ,1.38360 ,0.07287 ,0.71499 
368 ,69.1551 ,1.38557 ,0.05576 ,0.54710 
369 ,69.3310 ,1.38723 ,0.05234 ,0.51352 
370 ,69.5232 ,1.38909 ,0.04549 ,0.44636 
371 ,69.7314 ,1.39122 ,0.03522 ,0.34563 
372 ,69.9233 ,1.39320 ,0.02154 ,0.21131 
373 ,70.0998 ,1.39495 ,0.00443 ,0.04342 
374 ,70.2917 ,1.39683 ,-0.00242 ,-0.02373 
375 ,70.4675 ,1.39867 ,-0.00242 ,-0.02373 
376 ,70.6439 ,1.40038 ,-0.00926 ,-0.09089 
377 ,70.8200 ,1.40218 ,-0.01953 ,-0.19163 
378 ,71.0118 ,1.40399 ,-0.03322 ,-0.32594 
379 ,71.1881 ,1.40586 ,-0.04006 ,-0.39310 
380 ,71.3638 ,1.40763 ,-0.05033 ,-0.49383 
381 ,71.5242 ,1.40931 ,-0.05375 ,-0.52741 
382 ,71.7004 ,1.41093 ,-0.07428 ,-0.72888 
383 ,71.9089 ,1.41306 ,-0.08797 ,-0.86319 
384 ,72.1003 ,1.41497 ,-0.09140 ,-0.89677 
385 ,72.3084 ,1.41693 ,-0.11193 ,-1.09824 
386 ,72.4847 ,1.41878 ,-0.09482 ,-0.93035 
387 ,72.6928 ,1.42083 ,-0.12904 ,-1.26613 
388 ,72.8849 ,1.42282 ,-0.11877 ,-1.16540 
389 ,73.0768 ,1.42469 ,-0.15642 ,-1.53476 
390 ,73.2689 ,1.42661 ,-0.15642 ,-1.53476 
391 ,73.4450 ,1.42839 ,-0.13931 ,-1.36687 
392 ,73.6207 ,1.43014 ,-0.15984 ,-1.56834 
393 ,73.7973 ,1.43193 ,-0.17695 ,-1.73623 
394 ,74.0210 ,1.43399 ,-0.18379 ,-1.80338 
395 ,74.2294 ,1.43617 ,-0.19406 ,-1.90412 
396 ,74.4214 ,1.43811 ,-0.20433 ,-2.00485 
397 ,74.5973 ,1.43990 ,-0.22144 ,-2.17275 
398 ,74.7894 ,1.44179 ,-0.22486 ,-2.20632 
399 ,74.9655 ,1.44367 ,-0.23855 ,-2.34064 
400 ,75.1418 ,1.44533 ,-0.24197 ,-2.37422 
401 ,75.3333 ,1.44727 ,-0.25908 ,-2.54211 
402 ,75.5100 ,1.44903 ,-0.27277 ,-2.67642 
403 ,75.7178 ,1.45106 ,-0.27277 ,-2.67642 
404 ,75.9257 ,1.45317 ,-0.28988 ,-2.84431 
405 ,76.1181 ,1.45511 ,-0.28988 ,-2.84431 
406 ,76.3102 ,1.45693 ,-0.30015 ,-2.94505 
407 ,76.4861 ,1.45878 ,-0.30699 ,-3.01220 
408 ,76.6624 ,1.46053 ,-0.31041 ,-3.04578 
409 ,76.8540 ,1.46248 ,-0.33437 ,-3.28083 
410 ,77.0466 ,1.46430 ,-0.32410 ,-3.18010 
411 ,77.2543 ,1.46645 ,-0.35148 ,-3.44872 
412 ,77.4463 ,1.46833 ,-0.35832 ,-3.51588 
413 ,77.6386 ,1.47024 ,-0.36175 ,-3.54946 
414 ,77.8469 ,1.47236 ,-0.37201 ,-3.65019 
415 ,78.0225 ,1.47422 ,-0.38570 ,-3.78450 
416 ,78.1989 ,1.47591 ,-0.38228 ,-3.75093 
417 ,78.3750 ,1.47767 ,-0.40623 ,-3.98597 
418 ,78.5671 ,1.47952 ,-0.40623 ,-3.98597 
419 ,78.7433 ,1.48133 ,-0.42335 ,-4.15387 
420 ,78.9351 ,1.48325 ,-0.43361 ,-4.25460 
421 ,79.1272 ,1.48512 ,-0.43703 ,-4.28818 
422 ,79.3033 ,1.48698 ,-0.45757 ,-4.48965 
423 ,79.4795 ,1.48870 ,-0.45414 ,-4.45607 
424 ,79.6875 ,1.49073 ,-0.45757 ,-4.48965 
425 ,79.8636 ,1.49261 ,-0.47468 ,-4.65754 
426 ,80.0398 ,1.49430 ,-0.48152 ,-4.72470 
427 ,80.2479 ,1.49630 ,-0.50206 ,-4.92617 
428 ,80.4399 ,1.49832 ,-0.50890 ,-4.99332 
429 ,80.6321 ,1.50015 ,-0.50206 ,-4.92617 
430 ,80.8241 ,1.50214 ,-0.52943 ,-5.19479 
431 ,81.0159 ,1.50401 ,-0.53285 ,-5.22837 
432 ,81.1919 ,1.50580 ,-0.53970 ,-5.29553 
433 ,81.3844 ,1.50771 ,-0.55681 ,-5.46342 
434 ,81.5924 ,1.50981 ,-0.55681 ,-5.46342 
435 ,81.7684 ,1.51157 ,-0.57734 ,-5.66489 
436 ,81.9605 ,1.51354 ,-0.56708 ,-5.56415 
437 ,82.1527 ,1.51535 ,-0.59788 ,-5.86636 
438 ,82.3447 ,1.51733 ,-0.59445 ,-5.83278 
439 ,82.5208 ,1.51915 ,-0.61156 ,-6.00067 
440 ,82.7128 ,1.52097 ,-0.60814 ,-5.96709 
441 ,82.8889 ,1.52283 ,-0.63210 ,-6.20214 
442 ,83.0810 ,1.52473 ,-0.63894 ,-6.26930 
443 ,83.2890 ,1.52672 ,-0.64579 ,-6.33646 
444 ,83.4810 ,1.52866 ,-0.62868 ,-6.16856 
445 ,83.6570 ,1.53046 ,-0.64921 ,-6.37003 
446 ,83.8490 ,1.53233 ,-0.67659 ,-6.63866 
447 ,84.0414 ,1.53421 ,-0.68001 ,-6.67224 
448 ,84.2494 ,1.53638 ,-0.69027 ,-6.77297 
449 ,84.4411 ,1.53830 ,-0.69027 ,-6.77297 
450 ,84.6176 ,1.54010 ,-0.69370 ,-6.80655 
451 ,84.8257 ,1.54212 ,-0.71765 ,-7.04160 
452 ,85.0177 ,1.54397 ,-0.71423 ,-7.00802 
453 ,85.2099 ,1.54604 ,-0.72107 ,-7.07518 
454 ,85.4020 ,1.54790 ,-0.73818 ,-7.24307 
455 ,85.5939 ,1.54983 ,-0.74161 ,-7.27665 
456 ,85.8022 ,1.55187 ,-0.74845 ,-7.34380 
457 ,86.0102 ,1.55384 ,-0.76214 ,-7.47812 
458 ,86.2023 ,1.55591 ,-0.78267 ,-7.67959 
459 ,86.3782 ,1.55768 ,-0.77583 ,-7.61243 
460 ,86.5382 ,1.55940 ,-0.78952 ,-7.74674 
461 ,86.7305 ,1.56117 ,-0.81005 ,-7.94821 
462 ,86.9384 ,1.56317 ,-0.79294 ,-7.78032 
463 ,87.1146 ,1.56502 ,-0.80663 ,-7.91464 
