Data stamp = , 25-04-2022 10:20:23 918

Calibration Values: 
Slope = , 26.54 , g/V 
Offset Voltage at no contact = , -0.501760 , V 

No , Time , Stage Position ,   Mass , Force 
   ,  (s) ,      (mm)      ,   (g)  , (mN)  

1 ,0.0000 ,0.69936 ,5.23350 ,51.35107 
2 ,0.2226 ,0.69945 ,5.22665 ,51.28391 
3 ,0.5593 ,0.70038 ,5.22665 ,51.28391 
4 ,0.7670 ,0.70203 ,5.21296 ,51.14960 
5 ,0.9591 ,0.70378 ,5.22665 ,51.28391 
6 ,1.1350 ,0.70546 ,5.24034 ,51.41822 
7 ,1.3273 ,0.70732 ,5.22665 ,51.28391 
8 ,1.5355 ,0.70941 ,5.24718 ,51.48538 
9 ,1.7598 ,0.71155 ,5.22665 ,51.28391 
10 ,1.9519 ,0.71365 ,5.21296 ,51.14960 
11 ,2.1435 ,0.71551 ,5.18901 ,50.91455 
12 ,2.3356 ,0.71747 ,5.17532 ,50.78023 
13 ,2.5119 ,0.71920 ,5.16163 ,50.64592 
14 ,2.6880 ,0.72102 ,5.14452 ,50.47803 
15 ,2.8640 ,0.72285 ,5.14110 ,50.44445 
16 ,3.0401 ,0.72451 ,5.11372 ,50.17583 
17 ,3.2322 ,0.72639 ,5.08634 ,49.90720 
18 ,3.4403 ,0.72844 ,5.08977 ,49.94078 
19 ,3.6323 ,0.73035 ,5.05212 ,49.57142 
20 ,3.8241 ,0.73235 ,5.03159 ,49.36995 
21 ,4.0005 ,0.73421 ,5.02132 ,49.26921 
22 ,4.1927 ,0.73605 ,5.00079 ,49.06774 
23 ,4.4006 ,0.73798 ,4.98710 ,48.93343 
24 ,4.5765 ,0.73990 ,4.97683 ,48.83269 
25 ,4.8009 ,0.74200 ,4.94261 ,48.49691 
26 ,4.9928 ,0.74410 ,4.90839 ,48.16113 
27 ,5.1691 ,0.74577 ,4.89812 ,48.06039 
28 ,5.3614 ,0.74764 ,4.90155 ,48.09397 
29 ,5.5531 ,0.74961 ,4.86048 ,47.69103 
30 ,5.7287 ,0.75150 ,4.82968 ,47.38883 
31 ,5.9051 ,0.75319 ,4.82284 ,47.32167 
32 ,6.1134 ,0.75522 ,4.80230 ,47.12020 
33 ,6.3053 ,0.75714 ,4.80573 ,47.15378 
34 ,6.5135 ,0.75917 ,4.78177 ,46.91873 
35 ,6.6898 ,0.76102 ,4.74413 ,46.54937 
36 ,6.8977 ,0.76309 ,4.74070 ,46.51579 
37 ,7.1057 ,0.76507 ,4.69964 ,46.11285 
38 ,7.2820 ,0.76694 ,4.69622 ,46.07927 
39 ,7.4739 ,0.76896 ,4.66199 ,45.74349 
40 ,7.6660 ,0.77071 ,4.64831 ,45.60918 
41 ,7.8418 ,0.77259 ,4.65173 ,45.64275 
42 ,8.0341 ,0.77436 ,4.62435 ,45.37413 
43 ,8.2423 ,0.77648 ,4.60040 ,45.13908 
44 ,8.4343 ,0.77836 ,4.57986 ,44.93761 
45 ,8.6264 ,0.78030 ,4.55591 ,44.70256 
46 ,8.8184 ,0.78220 ,4.54906 ,44.63541 
47 ,8.9942 ,0.78402 ,4.53195 ,44.46751 
48 ,9.1706 ,0.78580 ,4.51142 ,44.26604 
49 ,9.3625 ,0.78768 ,4.51142 ,44.26604 
50 ,9.5549 ,0.78965 ,4.47378 ,43.89668 
51 ,9.7475 ,0.79158 ,4.46351 ,43.79595 
52 ,9.9230 ,0.79333 ,4.43613 ,43.52732 
53 ,10.1150 ,0.79523 ,4.42586 ,43.42659 
54 ,10.3231 ,0.79730 ,4.39849 ,43.15796 
55 ,10.4990 ,0.79912 ,4.39849 ,43.15796 
56 ,10.6751 ,0.80087 ,4.38138 ,42.99007 
57 ,10.8674 ,0.80272 ,4.35058 ,42.68786 
58 ,11.0430 ,0.80459 ,4.35058 ,42.68786 
59 ,11.2353 ,0.80642 ,4.31978 ,42.38566 
60 ,11.4436 ,0.80845 ,4.28213 ,42.01630 
61 ,11.6355 ,0.81036 ,4.28556 ,42.04988 
62 ,11.8116 ,0.81216 ,4.26502 ,41.84841 
63 ,11.9713 ,0.81396 ,4.24449 ,41.64694 
64 ,12.1474 ,0.81560 ,4.22396 ,41.44547 
65 ,12.3400 ,0.81740 ,4.20342 ,41.24400 
66 ,12.5478 ,0.81958 ,4.18631 ,41.07611 
67 ,12.7559 ,0.82158 ,4.16578 ,40.87464 
68 ,12.9319 ,0.82342 ,4.15209 ,40.74032 
69 ,13.1400 ,0.82547 ,4.15209 ,40.74032 
70 ,13.3161 ,0.82724 ,4.12814 ,40.50527 
71 ,13.5244 ,0.82928 ,4.12129 ,40.43812 
72 ,13.7323 ,0.83135 ,4.06996 ,39.93444 
73 ,13.9085 ,0.83317 ,4.05627 ,39.80013 
74 ,14.1006 ,0.83505 ,4.04943 ,39.73297 
75 ,14.2923 ,0.83702 ,4.02889 ,39.53150 
76 ,14.4847 ,0.83890 ,4.00494 ,39.29646 
77 ,14.6928 ,0.84098 ,3.98441 ,39.09499 
78 ,14.8689 ,0.84280 ,3.96729 ,38.92709 
79 ,15.0604 ,0.84477 ,3.97756 ,39.02783 
80 ,15.2525 ,0.84653 ,3.92965 ,38.55773 
81 ,15.4286 ,0.84843 ,3.92965 ,38.55773 
82 ,15.6211 ,0.85018 ,3.90912 ,38.35626 
83 ,15.8452 ,0.85251 ,3.88516 ,38.12122 
84 ,16.0212 ,0.85435 ,3.87147 ,37.98690 
85 ,16.1973 ,0.85608 ,3.86121 ,37.88617 
86 ,16.3735 ,0.85779 ,3.83041 ,37.58396 
87 ,16.5816 ,0.85989 ,3.80303 ,37.31534 
88 ,16.7737 ,0.86191 ,3.79619 ,37.24818 
89 ,16.9497 ,0.86359 ,3.77565 ,37.04671 
90 ,17.1417 ,0.86544 ,3.77908 ,37.08029 
91 ,17.3179 ,0.86725 ,3.75512 ,36.84524 
92 ,17.5098 ,0.86908 ,3.72774 ,36.57661 
93 ,17.7020 ,0.87106 ,3.72774 ,36.57661 
94 ,17.8781 ,0.87283 ,3.70037 ,36.30799 
95 ,18.0540 ,0.87461 ,3.68668 ,36.17367 
96 ,18.2623 ,0.87656 ,3.63877 ,35.70358 
97 ,18.4864 ,0.87883 ,3.63192 ,35.63642 
98 ,18.6943 ,0.88093 ,3.61823 ,35.50211 
99 ,18.8706 ,0.88278 ,3.60454 ,35.36779 
100 ,19.0626 ,0.88466 ,3.59428 ,35.26706 
101 ,19.2548 ,0.88662 ,3.57717 ,35.09917 
102 ,19.4468 ,0.88848 ,3.56006 ,34.93128 
103 ,19.6228 ,0.89035 ,3.53610 ,34.69623 
104 ,19.8309 ,0.89232 ,3.51557 ,34.49476 
105 ,20.0389 ,0.89440 ,3.50872 ,34.42760 
106 ,20.2312 ,0.89625 ,3.48819 ,34.22613 
107 ,20.4232 ,0.89822 ,3.47792 ,34.12540 
108 ,20.6151 ,0.90013 ,3.44370 ,33.78961 
109 ,20.7910 ,0.90196 ,3.43001 ,33.65530 
110 ,20.9672 ,0.90374 ,3.41633 ,33.52099 
111 ,21.1594 ,0.90554 ,3.39921 ,33.35310 
112 ,21.3351 ,0.90739 ,3.39579 ,33.31952 
113 ,21.5116 ,0.90921 ,3.36499 ,33.01731 
114 ,21.7033 ,0.91103 ,3.35473 ,32.91658 
115 ,21.8795 ,0.91285 ,3.33762 ,32.74869 
116 ,22.0559 ,0.91459 ,3.31708 ,32.54722 
117 ,22.2479 ,0.91657 ,3.28286 ,32.21143 
118 ,22.4428 ,0.91832 ,3.29313 ,32.31217 
119 ,22.6315 ,0.92048 ,3.25548 ,31.94281 
120 ,22.8236 ,0.92222 ,3.25891 ,31.97639 
121 ,22.9996 ,0.92402 ,3.25891 ,31.97639 
122 ,23.1599 ,0.92578 ,3.24522 ,31.84207 
123 ,23.3359 ,0.92741 ,3.21442 ,31.53987 
124 ,23.5121 ,0.92918 ,3.20415 ,31.43913 
125 ,23.7043 ,0.93107 ,3.16993 ,31.10335 
126 ,23.8805 ,0.93282 ,3.15966 ,31.00262 
127 ,24.1044 ,0.93498 ,3.14940 ,30.90188 
128 ,24.2964 ,0.93706 ,3.13913 ,30.80115 
129 ,24.5049 ,0.93891 ,3.10149 ,30.43178 
130 ,24.6968 ,0.94101 ,3.10491 ,30.46536 
131 ,24.8890 ,0.94285 ,3.07069 ,30.12958 
132 ,25.0806 ,0.94477 ,3.06384 ,30.06242 
133 ,25.2572 ,0.94664 ,3.07069 ,30.12958 
134 ,25.4649 ,0.94865 ,3.01935 ,29.62590 
135 ,25.6413 ,0.95049 ,3.01593 ,29.59233 
136 ,25.8494 ,0.95245 ,2.99540 ,29.39086 
137 ,26.0414 ,0.95442 ,3.00224 ,29.45801 
138 ,26.2174 ,0.95627 ,2.94749 ,28.92076 
139 ,26.3935 ,0.95795 ,2.95091 ,28.95434 
140 ,26.5696 ,0.95974 ,2.93380 ,28.78645 
141 ,26.7616 ,0.96156 ,2.91669 ,28.61856 
142 ,26.9534 ,0.96350 ,2.90300 ,28.48424 
143 ,27.1457 ,0.96544 ,2.88931 ,28.34993 
144 ,27.3537 ,0.96753 ,2.87562 ,28.21562 
145 ,27.5458 ,0.96960 ,2.86193 ,28.08130 
146 ,27.7379 ,0.97133 ,2.83114 ,27.77910 
147 ,27.9461 ,0.97350 ,2.80718 ,27.54405 
148 ,28.1223 ,0.97527 ,2.79691 ,27.44332 
149 ,28.3139 ,0.97706 ,2.78665 ,27.34258 
150 ,28.4903 ,0.97897 ,2.77980 ,27.27542 
151 ,28.6660 ,0.98067 ,2.75243 ,27.00680 
152 ,28.8426 ,0.98245 ,2.74558 ,26.93964 
153 ,29.0342 ,0.98435 ,2.73189 ,26.80533 
154 ,29.2107 ,0.98615 ,2.71136 ,26.60386 
155 ,29.4023 ,0.98802 ,2.70452 ,26.53670 
156 ,29.6106 ,0.98997 ,2.70109 ,26.50312 
157 ,29.8027 ,0.99206 ,2.65660 ,26.06661 
158 ,29.9790 ,0.99383 ,2.64976 ,25.99945 
159 ,30.1868 ,0.99583 ,2.63607 ,25.86514 
160 ,30.3791 ,0.99773 ,2.64292 ,25.93229 
161 ,30.5868 ,0.99984 ,2.59501 ,25.46220 
162 ,30.7793 ,1.00182 ,2.60869 ,25.59651 
163 ,30.9712 ,1.00375 ,2.58474 ,25.36146 
164 ,31.1794 ,1.00582 ,2.56078 ,25.12641 
165 ,31.3713 ,1.00765 ,2.54025 ,24.92494 
166 ,31.5472 ,1.00949 ,2.52656 ,24.79063 
167 ,31.7555 ,1.01138 ,2.51630 ,24.68989 
168 ,31.9476 ,1.01356 ,2.48892 ,24.42127 
169 ,32.1395 ,1.01536 ,2.49234 ,24.45485 
170 ,32.3319 ,1.01727 ,2.46154 ,24.15264 
171 ,32.5238 ,1.01920 ,2.44785 ,24.01833 
172 ,32.6999 ,1.02111 ,2.43759 ,23.91759 
173 ,32.8760 ,1.02278 ,2.42048 ,23.74970 
174 ,33.0526 ,1.02456 ,2.42732 ,23.81686 
175 ,33.2442 ,1.02648 ,2.39652 ,23.51465 
176 ,33.4362 ,1.02829 ,2.38283 ,23.38034 
177 ,33.6124 ,1.03014 ,2.37256 ,23.27961 
178 ,33.8043 ,1.03196 ,2.32808 ,22.84309 
179 ,33.9961 ,1.03398 ,2.33834 ,22.94382 
180 ,34.1726 ,1.03571 ,2.32465 ,22.80951 
181 ,34.3807 ,1.03771 ,2.30070 ,22.57446 
182 ,34.5568 ,1.03963 ,2.28359 ,22.40657 
183 ,34.7646 ,1.04158 ,2.25621 ,22.13794 
184 ,34.9571 ,1.04360 ,2.26648 ,22.23868 
185 ,35.1491 ,1.04550 ,2.24937 ,22.07079 
186 ,35.3411 ,1.04736 ,2.22883 ,21.86932 
187 ,35.5327 ,1.04928 ,2.21857 ,21.76858 
188 ,35.7093 ,1.05106 ,2.19119 ,21.49996 
189 ,35.9009 ,1.05294 ,2.17750 ,21.36564 
190 ,36.0930 ,1.05491 ,2.17066 ,21.29849 
191 ,36.2690 ,1.05670 ,2.15355 ,21.13059 
192 ,36.4451 ,1.05842 ,2.13986 ,20.99628 
193 ,36.6211 ,1.06021 ,2.11248 ,20.72766 
194 ,36.7976 ,1.06199 ,2.11248 ,20.72766 
195 ,36.9732 ,1.06377 ,2.09195 ,20.52619 
196 ,37.1656 ,1.06555 ,2.09195 ,20.52619 
197 ,37.3578 ,1.06748 ,2.08510 ,20.45903 
198 ,37.5334 ,1.06937 ,2.05088 ,20.12325 
199 ,37.7259 ,1.07116 ,2.03719 ,19.98893 
200 ,37.9177 ,1.07307 ,2.02693 ,19.88820 
201 ,38.0940 ,1.07489 ,2.02693 ,19.88820 
202 ,38.2701 ,1.07670 ,2.00639 ,19.68673 
203 ,38.4622 ,1.07855 ,1.98586 ,19.48526 
204 ,38.6541 ,1.08046 ,1.98244 ,19.45168 
205 ,38.8304 ,1.08232 ,1.97217 ,19.35094 
206 ,39.0224 ,1.08420 ,1.93795 ,19.01516 
207 ,39.2146 ,1.08613 ,1.94479 ,19.08232 
208 ,39.4226 ,1.08818 ,1.91742 ,18.81369 
209 ,39.5988 ,1.08996 ,1.91399 ,18.78011 
210 ,39.7908 ,1.09188 ,1.89688 ,18.61222 
211 ,39.9829 ,1.09375 ,1.87635 ,18.41075 
212 ,40.1746 ,1.09576 ,1.86608 ,18.31002 
213 ,40.3667 ,1.09757 ,1.83528 ,18.00781 
214 ,40.5592 ,1.09962 ,1.83871 ,18.04139 
215 ,40.7351 ,1.10134 ,1.82160 ,17.87350 
216 ,40.9113 ,1.10309 ,1.81133 ,17.77276 
217 ,41.1033 ,1.10494 ,1.79422 ,17.60487 
218 ,41.2789 ,1.10677 ,1.77026 ,17.36983 
219 ,41.4715 ,1.10866 ,1.76000 ,17.26909 
220 ,41.6476 ,1.11048 ,1.74631 ,17.13478 
221 ,41.8556 ,1.11249 ,1.73946 ,17.06762 
222 ,42.0475 ,1.11439 ,1.72235 ,16.89973 
223 ,42.2238 ,1.11624 ,1.70866 ,16.76542 
224 ,42.3997 ,1.11797 ,1.68813 ,16.56395 
225 ,42.5758 ,1.11974 ,1.67444 ,16.42963 
226 ,42.7680 ,1.12160 ,1.67102 ,16.39605 
227 ,42.9604 ,1.12360 ,1.66075 ,16.29532 
228 ,43.1522 ,1.12547 ,1.64364 ,16.12743 
229 ,43.3439 ,1.12752 ,1.62311 ,15.92596 
230 ,43.5202 ,1.12917 ,1.59916 ,15.69091 
231 ,43.6960 ,1.13089 ,1.60942 ,15.79164 
232 ,43.8724 ,1.13273 ,1.59916 ,15.69091 
233 ,44.0644 ,1.13453 ,1.57520 ,15.45586 
234 ,44.2564 ,1.13643 ,1.55467 ,15.25439 
235 ,44.4327 ,1.13831 ,1.55467 ,15.25439 
236 ,44.6245 ,1.14017 ,1.52729 ,14.98577 
237 ,44.8167 ,1.14210 ,1.52729 ,14.98577 
238 ,45.0089 ,1.14396 ,1.52387 ,14.95219 
239 ,45.2009 ,1.14593 ,1.48622 ,14.58283 
240 ,45.3765 ,1.14774 ,1.49307 ,14.64998 
241 ,45.5527 ,1.14949 ,1.47253 ,14.44851 
242 ,45.7451 ,1.15137 ,1.44516 ,14.17989 
243 ,45.9535 ,1.15344 ,1.44174 ,14.14631 
244 ,46.1453 ,1.15535 ,1.41778 ,13.91126 
245 ,46.3532 ,1.15743 ,1.42462 ,13.97842 
246 ,46.5295 ,1.15924 ,1.41094 ,13.84410 
247 ,46.7214 ,1.16110 ,1.38698 ,13.60906 
248 ,46.9137 ,1.16304 ,1.38014 ,13.54190 
249 ,47.1218 ,1.16507 ,1.35276 ,13.27327 
250 ,47.3138 ,1.16711 ,1.34591 ,13.20612 
251 ,47.5219 ,1.16906 ,1.33565 ,13.10538 
252 ,47.7136 ,1.17104 ,1.32880 ,13.03822 
253 ,47.9056 ,1.17292 ,1.29458 ,12.70244 
254 ,48.0821 ,1.17476 ,1.27747 ,12.53455 
255 ,48.2583 ,1.17655 ,1.26720 ,12.43381 
256 ,48.4662 ,1.17851 ,1.27747 ,12.53455 
257 ,48.6743 ,1.18065 ,1.26720 ,12.43381 
258 ,48.8665 ,1.18253 ,1.22956 ,12.06445 
259 ,49.0586 ,1.18454 ,1.21245 ,11.89656 
260 ,49.2345 ,1.18629 ,1.21587 ,11.93014 
261 ,49.4106 ,1.18805 ,1.21245 ,11.89656 
262 ,49.6028 ,1.18998 ,1.18165 ,11.59436 
263 ,49.7789 ,1.19177 ,1.16454 ,11.42647 
264 ,49.9546 ,1.19361 ,1.17823 ,11.56078 
265 ,50.1306 ,1.19525 ,1.15770 ,11.35931 
266 ,50.3069 ,1.19700 ,1.13716 ,11.15784 
267 ,50.4991 ,1.19885 ,1.13032 ,11.09068 
268 ,50.6912 ,1.20089 ,1.12690 ,11.05710 
269 ,50.8834 ,1.20273 ,1.09952 ,10.78848 
270 ,51.0914 ,1.20484 ,1.09267 ,10.72132 
271 ,51.2995 ,1.20684 ,1.08925 ,10.68774 
272 ,51.4915 ,1.20882 ,1.06872 ,10.48627 
273 ,51.6836 ,1.21072 ,1.05161 ,10.31838 
274 ,51.8757 ,1.21261 ,1.04819 ,10.28480 
275 ,52.0677 ,1.21460 ,1.02765 ,10.08333 
276 ,52.2439 ,1.21639 ,1.01054 ,9.91544 
277 ,52.4518 ,1.21844 ,1.01396 ,9.94902 
278 ,52.6440 ,1.22035 ,0.98317 ,9.64682 
279 ,52.8361 ,1.22226 ,0.99001 ,9.71397 
280 ,53.0441 ,1.22432 ,0.94894 ,9.31103 
281 ,53.2202 ,1.22615 ,0.94552 ,9.27745 
282 ,53.4283 ,1.22818 ,0.92499 ,9.07598 
283 ,53.6040 ,1.22997 ,0.91814 ,9.00883 
284 ,53.7805 ,1.23175 ,0.91814 ,9.00883 
285 ,54.0046 ,1.23382 ,0.90103 ,8.84094 
286 ,54.1801 ,1.23585 ,0.89761 ,8.80736 
287 ,54.3568 ,1.23752 ,0.87023 ,8.53873 
288 ,54.5649 ,1.23951 ,0.84970 ,8.33726 
289 ,54.7570 ,1.24147 ,0.84970 ,8.33726 
290 ,54.9486 ,1.24346 ,0.85312 ,8.37084 
291 ,55.1247 ,1.24515 ,0.83943 ,8.23653 
292 ,55.3011 ,1.24692 ,0.81890 ,8.03506 
293 ,55.4771 ,1.24872 ,0.81206 ,7.96790 
294 ,55.6850 ,1.25074 ,0.79495 ,7.80001 
295 ,55.8933 ,1.25283 ,0.80179 ,7.86717 
296 ,56.0693 ,1.25466 ,0.78126 ,7.66570 
297 ,56.2776 ,1.25665 ,0.77099 ,7.56496 
298 ,56.4693 ,1.25856 ,0.74704 ,7.32991 
299 ,56.6617 ,1.26052 ,0.72650 ,7.12844 
300 ,56.8376 ,1.26226 ,0.72308 ,7.09486 
301 ,57.0459 ,1.26428 ,0.69570 ,6.82624 
302 ,57.2380 ,1.26634 ,0.68886 ,6.75908 
303 ,57.4296 ,1.26825 ,0.70255 ,6.89340 
304 ,57.6059 ,1.27001 ,0.68886 ,6.75908 
305 ,57.7981 ,1.27188 ,0.66148 ,6.49046 
306 ,57.9902 ,1.27374 ,0.65806 ,6.45688 
307 ,58.1825 ,1.27568 ,0.63753 ,6.25541 
308 ,58.3743 ,1.27765 ,0.64095 ,6.28899 
309 ,58.5505 ,1.27952 ,0.60673 ,5.95320 
310 ,58.7267 ,1.28118 ,0.61699 ,6.05394 
311 ,58.9187 ,1.28310 ,0.58962 ,5.78531 
312 ,59.1108 ,1.28491 ,0.57935 ,5.68458 
313 ,59.3189 ,1.28701 ,0.57593 ,5.65100 
314 ,59.4949 ,1.28884 ,0.57251 ,5.61742 
315 ,59.6711 ,1.29059 ,0.55882 ,5.48311 
316 ,59.8632 ,1.29250 ,0.52802 ,5.18090 
317 ,60.0554 ,1.29440 ,0.53486 ,5.24806 
318 ,60.2312 ,1.29628 ,0.51433 ,5.04659 
319 ,60.4073 ,1.29797 ,0.52117 ,5.11375 
320 ,60.6151 ,1.29998 ,0.48011 ,4.71081 
321 ,60.8075 ,1.30196 ,0.48011 ,4.71081 
322 ,60.9996 ,1.30393 ,0.47668 ,4.67723 
323 ,61.1917 ,1.30581 ,0.46642 ,4.57649 
324 ,61.3838 ,1.30772 ,0.44931 ,4.40860 
325 ,61.5599 ,1.30954 ,0.43904 ,4.30787 
326 ,61.7355 ,1.31128 ,0.41851 ,4.10640 
327 ,61.9277 ,1.31313 ,0.42877 ,4.20713 
328 ,62.1201 ,1.31499 ,0.39797 ,3.90493 
329 ,62.3120 ,1.31697 ,0.40824 ,4.00566 
330 ,62.4882 ,1.31881 ,0.38086 ,3.73703 
331 ,62.6803 ,1.32060 ,0.37060 ,3.63630 
332 ,62.8403 ,1.32241 ,0.35691 ,3.50199 
333 ,63.0162 ,1.32406 ,0.34322 ,3.36767 
334 ,63.1924 ,1.32587 ,0.32269 ,3.16620 
335 ,63.3841 ,1.32767 ,0.33295 ,3.26694 
336 ,63.5606 ,1.32952 ,0.29873 ,2.93116 
337 ,63.7367 ,1.33129 ,0.30900 ,3.03189 
338 ,63.9447 ,1.33326 ,0.30215 ,2.96473 
339 ,64.1524 ,1.33538 ,0.29531 ,2.89758 
340 ,64.3290 ,1.33721 ,0.28162 ,2.76326 
341 ,64.5221 ,1.33904 ,0.25424 ,2.49464 
342 ,64.7292 ,1.34108 ,0.26451 ,2.59537 
343 ,64.9367 ,1.34320 ,0.24398 ,2.39390 
344 ,65.1131 ,1.34499 ,0.22687 ,2.22601 
345 ,65.2893 ,1.34678 ,0.22687 ,2.22601 
346 ,65.4814 ,1.34868 ,0.19607 ,1.92381 
347 ,65.6734 ,1.35060 ,0.20633 ,2.02454 
348 ,65.8497 ,1.35241 ,0.19607 ,1.92381 
349 ,66.0416 ,1.35423 ,0.17896 ,1.75592 
350 ,66.2177 ,1.35602 ,0.15842 ,1.55445 
351 ,66.4097 ,1.35790 ,0.15500 ,1.52087 
352 ,66.6019 ,1.35987 ,0.13789 ,1.35298 
353 ,66.8098 ,1.36190 ,0.13789 ,1.35298 
354 ,67.0021 ,1.36391 ,0.14131 ,1.38655 
355 ,67.1940 ,1.36574 ,0.10025 ,0.98361 
356 ,67.3860 ,1.36770 ,0.09340 ,0.91646 
357 ,67.5622 ,1.36959 ,0.09682 ,0.95004 
358 ,67.7539 ,1.37136 ,0.09340 ,0.91646 
359 ,67.9304 ,1.37318 ,0.08998 ,0.88288 
360 ,68.1061 ,1.37491 ,0.06602 ,0.64783 
361 ,68.2986 ,1.37678 ,0.04891 ,0.47994 
362 ,68.5067 ,1.37885 ,0.04549 ,0.44636 
363 ,68.6987 ,1.38080 ,0.03522 ,0.34563 
364 ,68.9064 ,1.38290 ,0.02496 ,0.24489 
365 ,69.0829 ,1.38472 ,0.00785 ,0.07700 
366 ,69.2745 ,1.38665 ,0.01127 ,0.11058 
367 ,69.4670 ,1.38844 ,0.00785 ,0.07700 
368 ,69.6591 ,1.39039 ,-0.01611 ,-0.15805 
369 ,69.8672 ,1.39246 ,-0.03664 ,-0.35952 
370 ,70.0431 ,1.39439 ,-0.04006 ,-0.39310 
371 ,70.2512 ,1.39635 ,-0.05375 ,-0.52741 
372 ,70.4434 ,1.39828 ,-0.07771 ,-0.76246 
373 ,70.6350 ,1.40013 ,-0.06744 ,-0.66172 
374 ,70.8114 ,1.40196 ,-0.07086 ,-0.69530 
375 ,70.9876 ,1.40374 ,-0.07428 ,-0.72888 
376 ,71.1797 ,1.40561 ,-0.10166 ,-0.99751 
377 ,71.3554 ,1.40742 ,-0.11535 ,-1.13182 
378 ,71.5478 ,1.40931 ,-0.11535 ,-1.13182 
379 ,71.7558 ,1.41135 ,-0.12562 ,-1.23255 
380 ,71.9478 ,1.41333 ,-0.13588 ,-1.33329 
381 ,72.1400 ,1.41521 ,-0.16326 ,-1.60191 
382 ,72.3321 ,1.41714 ,-0.15299 ,-1.50118 
383 ,72.5236 ,1.41905 ,-0.18037 ,-1.76981 
384 ,72.7002 ,1.42084 ,-0.18722 ,-1.83696 
385 ,72.8922 ,1.42287 ,-0.19406 ,-1.90412 
386 ,73.0682 ,1.42457 ,-0.19064 ,-1.87054 
387 ,73.2605 ,1.42648 ,-0.21459 ,-2.10559 
388 ,73.4363 ,1.42823 ,-0.21459 ,-2.10559 
389 ,73.6287 ,1.43017 ,-0.22828 ,-2.23990 
390 ,73.8205 ,1.43206 ,-0.22828 ,-2.23990 
391 ,74.0129 ,1.43391 ,-0.24539 ,-2.40779 
392 ,74.2045 ,1.43579 ,-0.25908 ,-2.54211 
393 ,74.3970 ,1.43772 ,-0.26250 ,-2.57569 
394 ,74.5889 ,1.43966 ,-0.26935 ,-2.64284 
395 ,74.7971 ,1.44181 ,-0.28304 ,-2.77716 
396 ,74.9893 ,1.44371 ,-0.29330 ,-2.87789 
397 ,75.1811 ,1.44562 ,-0.30357 ,-2.97863 
398 ,75.3732 ,1.44756 ,-0.30699 ,-3.01220 
399 ,75.5490 ,1.44934 ,-0.31041 ,-3.04578 
400 ,75.7410 ,1.45117 ,-0.34121 ,-3.34799 
401 ,75.9330 ,1.45311 ,-0.33095 ,-3.24725 
402 ,76.1093 ,1.45498 ,-0.34464 ,-3.38156 
403 ,76.3176 ,1.45693 ,-0.37544 ,-3.68377 
404 ,76.5095 ,1.45893 ,-0.38570 ,-3.78450 
405 ,76.7181 ,1.46098 ,-0.37886 ,-3.71735 
406 ,76.9097 ,1.46295 ,-0.38570 ,-3.78450 
407 ,77.1021 ,1.46481 ,-0.39255 ,-3.85166 
408 ,77.2940 ,1.46678 ,-0.39939 ,-3.91882 
409 ,77.5023 ,1.46875 ,-0.41992 ,-4.12029 
410 ,77.6782 ,1.47060 ,-0.41308 ,-4.05313 
411 ,77.8704 ,1.47255 ,-0.42335 ,-4.15387 
412 ,78.0464 ,1.47433 ,-0.44730 ,-4.38891 
413 ,78.2386 ,1.47621 ,-0.45414 ,-4.45607 
414 ,78.4143 ,1.47796 ,-0.44046 ,-4.32176 
415 ,78.5908 ,1.47975 ,-0.45757 ,-4.48965 
416 ,78.7988 ,1.48177 ,-0.48152 ,-4.72470 
417 ,78.9907 ,1.48370 ,-0.48152 ,-4.72470 
418 ,79.1827 ,1.48564 ,-0.51574 ,-5.06048 
419 ,79.3751 ,1.48754 ,-0.51232 ,-5.02690 
420 ,79.5665 ,1.48942 ,-0.52259 ,-5.12764 
421 ,79.7591 ,1.49139 ,-0.53285 ,-5.22837 
422 ,79.9671 ,1.49341 ,-0.54997 ,-5.39626 
423 ,80.1594 ,1.49536 ,-0.53628 ,-5.26195 
424 ,80.3513 ,1.49736 ,-0.54997 ,-5.39626 
425 ,80.5596 ,1.49939 ,-0.56365 ,-5.53058 
426 ,80.7514 ,1.50130 ,-0.57734 ,-5.66489 
427 ,80.9436 ,1.50328 ,-0.59103 ,-5.79920 
428 ,81.1196 ,1.50501 ,-0.59445 ,-5.83278 
429 ,81.2797 ,1.50673 ,-0.59103 ,-5.79920 
430 ,81.4718 ,1.50848 ,-0.59445 ,-5.83278 
431 ,81.6479 ,1.51030 ,-0.61499 ,-6.03425 
432 ,81.8237 ,1.51204 ,-0.64236 ,-6.30288 
433 ,82.0161 ,1.51391 ,-0.61156 ,-6.00067 
434 ,82.2081 ,1.51586 ,-0.63894 ,-6.26930 
435 ,82.3839 ,1.51768 ,-0.65605 ,-6.43719 
436 ,82.5601 ,1.51950 ,-0.64921 ,-6.37003 
437 ,82.7523 ,1.52138 ,-0.66632 ,-6.53793 
438 ,82.9284 ,1.52309 ,-0.66974 ,-6.57150 
439 ,83.1047 ,1.52487 ,-0.68685 ,-6.73940 
440 ,83.3123 ,1.52689 ,-0.68343 ,-6.70582 
441 ,83.5047 ,1.52885 ,-0.70396 ,-6.90729 
442 ,83.7128 ,1.53087 ,-0.69712 ,-6.84013 
443 ,83.8890 ,1.53272 ,-0.73134 ,-7.17591 
444 ,84.0965 ,1.53470 ,-0.72450 ,-7.10876 
445 ,84.2730 ,1.53650 ,-0.72107 ,-7.07518 
446 ,84.4647 ,1.53836 ,-0.74503 ,-7.31023 
447 ,84.6572 ,1.54035 ,-0.74503 ,-7.31023 
448 ,84.8492 ,1.54228 ,-0.76214 ,-7.47812 
449 ,85.0573 ,1.54431 ,-0.75187 ,-7.37738 
450 ,85.2334 ,1.54620 ,-0.77241 ,-7.57885 
451 ,85.4096 ,1.54791 ,-0.79294 ,-7.78032 
452 ,85.5852 ,1.54960 ,-0.79978 ,-7.84748 
453 ,85.7615 ,1.55139 ,-0.80663 ,-7.91464 
454 ,85.9698 ,1.55343 ,-0.82374 ,-8.08253 
455 ,86.1617 ,1.55539 ,-0.82716 ,-8.11611 
456 ,86.3539 ,1.55741 ,-0.83401 ,-8.18326 
457 ,86.5295 ,1.55913 ,-0.83058 ,-8.14968 
458 ,86.7220 ,1.56097 ,-0.85112 ,-8.35115 
459 ,86.9140 ,1.56288 ,-0.83401 ,-8.18326 
460 ,87.0902 ,1.56474 ,-0.85454 ,-8.38473 
461 ,87.2981 ,1.56676 ,-0.86823 ,-8.51904 
462 ,87.4743 ,1.56858 ,-0.88876 ,-8.72051 
463 ,87.6500 ,1.57033 ,-0.88876 ,-8.72051 
