Data stamp = , 25-04-2022 01:20:16 126

Calibration Values: 
Slope = , 26.54 , g/V 
Offset Voltage at no contact = , -0.501760 , V 

No , Time , Stage Position ,   Mass , Force 
   ,  (s) ,      (mm)      ,   (g)  , (mN)  

1 ,0.0000 ,0.69945 ,5.30194 ,52.02263 
2 ,0.2163 ,0.69954 ,5.29510 ,51.95548 
3 ,0.7129 ,0.70142 ,5.31221 ,52.12337 
4 ,0.9213 ,0.70349 ,5.28141 ,51.82116 
5 ,1.1133 ,0.70540 ,5.30194 ,52.02263 
6 ,1.3048 ,0.70722 ,5.29167 ,51.92190 
7 ,1.4811 ,0.70900 ,5.30194 ,52.02263 
8 ,1.6895 ,0.71100 ,5.30194 ,52.02263 
9 ,1.8655 ,0.71295 ,5.26772 ,51.68685 
10 ,2.0416 ,0.71464 ,5.26087 ,51.61969 
11 ,2.2337 ,0.71651 ,5.25745 ,51.58611 
12 ,2.4256 ,0.71843 ,5.21981 ,51.21675 
13 ,2.6016 ,0.72027 ,5.19927 ,51.01528 
14 ,2.7939 ,0.72216 ,5.19927 ,51.01528 
15 ,2.9859 ,0.72406 ,5.17190 ,50.74666 
16 ,3.1620 ,0.72585 ,5.15821 ,50.61234 
17 ,3.3540 ,0.72774 ,5.13768 ,50.41087 
18 ,3.5623 ,0.72975 ,5.11372 ,50.17583 
19 ,3.7543 ,0.73178 ,5.08634 ,49.90720 
20 ,3.9303 ,0.73357 ,5.07608 ,49.80646 
21 ,4.1224 ,0.73547 ,5.05554 ,49.60499 
22 ,4.2984 ,0.73722 ,5.03843 ,49.43710 
23 ,4.4907 ,0.73910 ,5.04185 ,49.47068 
24 ,4.6825 ,0.74109 ,5.00763 ,49.13490 
25 ,4.8427 ,0.74277 ,4.99052 ,48.96701 
26 ,5.0188 ,0.74437 ,4.96999 ,48.76554 
27 ,5.1948 ,0.74618 ,4.95288 ,48.59764 
28 ,5.3868 ,0.74799 ,4.94261 ,48.49691 
29 ,5.5790 ,0.74996 ,4.93235 ,48.39618 
30 ,5.7710 ,0.75188 ,4.90839 ,48.16113 
31 ,5.9631 ,0.75383 ,4.86390 ,47.72461 
32 ,6.1551 ,0.75577 ,4.86048 ,47.69103 
33 ,6.3788 ,0.75794 ,4.84337 ,47.52314 
34 ,6.5553 ,0.75975 ,4.82626 ,47.35525 
35 ,6.7475 ,0.76165 ,4.80573 ,47.15378 
36 ,6.9390 ,0.76360 ,4.77493 ,46.85157 
37 ,7.1157 ,0.76538 ,4.77493 ,46.85157 
38 ,7.3076 ,0.76726 ,4.74755 ,46.58295 
39 ,7.4997 ,0.76917 ,4.73044 ,46.41506 
40 ,7.7078 ,0.77125 ,4.70648 ,46.18001 
41 ,7.8999 ,0.77312 ,4.69279 ,46.04569 
42 ,8.0919 ,0.77506 ,4.67226 ,45.84422 
43 ,8.2839 ,0.77694 ,4.66884 ,45.81065 
44 ,8.4601 ,0.77882 ,4.63119 ,45.44128 
45 ,8.6521 ,0.78075 ,4.63804 ,45.50844 
46 ,8.8283 ,0.78250 ,4.60724 ,45.20624 
47 ,9.0200 ,0.78444 ,4.58671 ,45.00477 
48 ,9.2283 ,0.78634 ,4.57302 ,44.87045 
49 ,9.4045 ,0.78822 ,4.53195 ,44.46751 
50 ,9.5805 ,0.78998 ,4.52511 ,44.40036 
51 ,9.7567 ,0.79174 ,4.51484 ,44.29962 
52 ,9.9487 ,0.79364 ,4.48746 ,44.03100 
53 ,10.1244 ,0.79548 ,4.48062 ,43.96384 
54 ,10.3169 ,0.79728 ,4.45666 ,43.72879 
55 ,10.5089 ,0.79924 ,4.43271 ,43.49374 
56 ,10.6851 ,0.80106 ,4.41902 ,43.35943 
57 ,10.8611 ,0.80284 ,4.40875 ,43.25870 
58 ,11.0371 ,0.80454 ,4.38822 ,43.05723 
59 ,11.2288 ,0.80638 ,4.38480 ,43.02365 
60 ,11.4216 ,0.80840 ,4.34373 ,42.62071 
61 ,11.6294 ,0.81042 ,4.33347 ,42.51997 
62 ,11.8056 ,0.81222 ,4.31978 ,42.38566 
63 ,12.0136 ,0.81429 ,4.31293 ,42.31850 
64 ,12.1892 ,0.81609 ,4.28556 ,42.04988 
65 ,12.3814 ,0.81810 ,4.26845 ,41.88198 
66 ,12.5578 ,0.81979 ,4.24449 ,41.64694 
67 ,12.7655 ,0.82170 ,4.21711 ,41.37831 
68 ,12.9579 ,0.82375 ,4.21711 ,41.37831 
69 ,13.1659 ,0.82584 ,4.18289 ,41.04253 
70 ,13.3580 ,0.82773 ,4.19316 ,41.14326 
71 ,13.5660 ,0.82979 ,4.15209 ,40.74032 
72 ,13.7744 ,0.83187 ,4.14525 ,40.67317 
73 ,13.9660 ,0.83381 ,4.10418 ,40.27023 
74 ,14.1585 ,0.83568 ,4.09391 ,40.16949 
75 ,14.3662 ,0.83779 ,4.06312 ,39.86729 
76 ,14.5424 ,0.83970 ,4.05969 ,39.83371 
77 ,14.7187 ,0.84133 ,4.05627 ,39.80013 
78 ,14.9107 ,0.84324 ,4.03916 ,39.63224 
79 ,15.1028 ,0.84516 ,4.01520 ,39.39719 
80 ,15.2950 ,0.84715 ,4.01863 ,39.43077 
81 ,15.5028 ,0.84914 ,3.96729 ,38.92709 
82 ,15.6952 ,0.85111 ,3.97414 ,38.99425 
83 ,15.8871 ,0.85302 ,3.93650 ,38.62489 
84 ,16.0793 ,0.85491 ,3.93307 ,38.59131 
85 ,16.2714 ,0.85680 ,3.91254 ,38.38984 
86 ,16.4794 ,0.85891 ,3.89543 ,38.22195 
87 ,16.6390 ,0.86064 ,3.88858 ,38.15479 
88 ,16.8152 ,0.86230 ,3.88516 ,38.12122 
89 ,16.9914 ,0.86408 ,3.84752 ,37.75185 
90 ,17.1837 ,0.86596 ,3.82014 ,37.48323 
91 ,17.3916 ,0.86803 ,3.81330 ,37.41607 
92 ,17.5999 ,0.87013 ,3.79961 ,37.28176 
93 ,17.7756 ,0.87200 ,3.77908 ,37.08029 
94 ,17.9678 ,0.87378 ,3.74828 ,36.77808 
95 ,18.1598 ,0.87570 ,3.74828 ,36.77808 
96 ,18.3523 ,0.87757 ,3.74485 ,36.74450 
97 ,18.5441 ,0.87953 ,3.68668 ,36.17367 
98 ,18.7519 ,0.88169 ,3.69352 ,36.24083 
99 ,18.9443 ,0.88357 ,3.66272 ,35.93863 
100 ,19.1525 ,0.88565 ,3.66957 ,36.00578 
101 ,19.3284 ,0.88746 ,3.64561 ,35.77073 
102 ,19.5206 ,0.88937 ,3.60797 ,35.40137 
103 ,19.6966 ,0.89112 ,3.58743 ,35.19990 
104 ,19.8725 ,0.89288 ,3.58743 ,35.19990 
105 ,20.0488 ,0.89466 ,3.56690 ,34.99843 
106 ,20.2409 ,0.89659 ,3.53610 ,34.69623 
107 ,20.4329 ,0.89850 ,3.54637 ,34.79696 
108 ,20.6090 ,0.90027 ,3.51899 ,34.52834 
109 ,20.8170 ,0.90231 ,3.50188 ,34.36045 
110 ,20.9932 ,0.90409 ,3.49504 ,34.29329 
111 ,21.1853 ,0.90608 ,3.47450 ,34.09182 
112 ,21.3773 ,0.90794 ,3.46081 ,33.95751 
113 ,21.5855 ,0.90992 ,3.44028 ,33.75604 
114 ,21.7775 ,0.91192 ,3.42317 ,33.58814 
115 ,21.9691 ,0.91384 ,3.39921 ,33.35310 
116 ,22.1456 ,0.91562 ,3.37184 ,33.08447 
117 ,22.3537 ,0.91768 ,3.38210 ,33.18520 
118 ,22.5134 ,0.91941 ,3.35130 ,32.88300 
119 ,22.6899 ,0.92107 ,3.33419 ,32.71511 
120 ,22.8979 ,0.92310 ,3.31366 ,32.51364 
121 ,23.0738 ,0.92485 ,3.30682 ,32.44648 
122 ,23.2497 ,0.92663 ,3.28628 ,32.24501 
123 ,23.4262 ,0.92838 ,3.25891 ,31.97639 
124 ,23.6184 ,0.93031 ,3.25891 ,31.97639 
125 ,23.8264 ,0.93237 ,3.23837 ,31.77492 
126 ,24.0181 ,0.93432 ,3.21784 ,31.57345 
127 ,24.1785 ,0.93601 ,3.21100 ,31.50629 
128 ,24.3705 ,0.93776 ,3.18362 ,31.23766 
129 ,24.5786 ,0.93986 ,3.16651 ,31.06977 
130 ,24.7868 ,0.94193 ,3.14597 ,30.86830 
131 ,24.9787 ,0.94393 ,3.12886 ,30.70041 
132 ,25.1545 ,0.94571 ,3.11860 ,30.59968 
133 ,25.3470 ,0.94754 ,3.09122 ,30.33105 
134 ,25.5550 ,0.94973 ,3.07753 ,30.19674 
135 ,25.7312 ,0.95148 ,3.06042 ,30.02884 
136 ,25.9235 ,0.95329 ,3.04331 ,29.86095 
137 ,26.1154 ,0.95524 ,3.03989 ,29.82737 
138 ,26.3075 ,0.95716 ,3.00909 ,29.52517 
139 ,26.5154 ,0.95923 ,3.01251 ,29.55875 
140 ,26.6915 ,0.96104 ,2.99540 ,29.39086 
141 ,26.8676 ,0.96276 ,2.96118 ,29.05507 
142 ,27.0597 ,0.96476 ,2.94749 ,28.92076 
143 ,27.2354 ,0.96651 ,2.94749 ,28.92076 
144 ,27.4439 ,0.96856 ,2.92011 ,28.65213 
145 ,27.6517 ,0.97063 ,2.91327 ,28.58498 
146 ,27.8278 ,0.97241 ,2.89616 ,28.41709 
147 ,28.0202 ,0.97439 ,2.88589 ,28.31635 
148 ,28.2123 ,0.97627 ,2.86536 ,28.11488 
149 ,28.4037 ,0.97814 ,2.83114 ,27.77910 
150 ,28.5800 ,0.97994 ,2.83114 ,27.77910 
151 ,28.7881 ,0.98193 ,2.82429 ,27.71194 
152 ,28.9802 ,0.98382 ,2.80376 ,27.51047 
153 ,29.1565 ,0.98567 ,2.78665 ,27.34258 
154 ,29.3642 ,0.98773 ,2.75243 ,27.00680 
155 ,29.5403 ,0.98956 ,2.75585 ,27.04038 
156 ,29.7326 ,0.99140 ,2.74216 ,26.90606 
157 ,29.9248 ,0.99337 ,2.69425 ,26.43597 
158 ,30.1324 ,0.99536 ,2.69767 ,26.46954 
159 ,30.3245 ,0.99729 ,2.70109 ,26.50312 
160 ,30.5006 ,0.99913 ,2.66345 ,26.13376 
161 ,30.6927 ,1.00096 ,2.66687 ,26.16734 
162 ,30.8688 ,1.00283 ,2.64292 ,25.93229 
163 ,31.0611 ,1.00465 ,2.61896 ,25.69724 
164 ,31.2533 ,1.00666 ,2.61896 ,25.69724 
165 ,31.4295 ,1.00840 ,2.59501 ,25.46220 
166 ,31.6211 ,1.01033 ,2.57105 ,25.22715 
167 ,31.7976 ,1.01207 ,2.57105 ,25.22715 
168 ,31.9895 ,1.01401 ,2.55736 ,25.09283 
169 ,32.1817 ,1.01589 ,2.52998 ,24.82421 
170 ,32.3739 ,1.01786 ,2.52998 ,24.82421 
171 ,32.5657 ,1.01981 ,2.50603 ,24.58916 
172 ,32.7420 ,1.02154 ,2.47865 ,24.32053 
173 ,32.9341 ,1.02347 ,2.48550 ,24.38769 
174 ,33.1262 ,1.02530 ,2.45812 ,24.11906 
175 ,33.3342 ,1.02731 ,2.44785 ,24.01833 
176 ,33.5259 ,1.02934 ,2.41705 ,23.71612 
177 ,33.7180 ,1.03126 ,2.42390 ,23.78328 
178 ,33.9107 ,1.03317 ,2.39994 ,23.54823 
179 ,34.1025 ,1.03516 ,2.37256 ,23.27961 
180 ,34.2786 ,1.03691 ,2.35888 ,23.14529 
181 ,34.4864 ,1.03887 ,2.35888 ,23.14529 
182 ,34.6788 ,1.04081 ,2.32123 ,22.77593 
183 ,34.8710 ,1.04285 ,2.32808 ,22.84309 
184 ,35.0788 ,1.04483 ,2.30412 ,22.60804 
185 ,35.2711 ,1.04683 ,2.30070 ,22.57446 
186 ,35.4630 ,1.04871 ,2.25621 ,22.13794 
187 ,35.6392 ,1.05043 ,2.25963 ,22.17152 
188 ,35.8152 ,1.05228 ,2.25279 ,22.10437 
189 ,35.9914 ,1.05399 ,2.23910 ,21.97005 
190 ,36.1834 ,1.05594 ,2.21172 ,21.70143 
191 ,36.3753 ,1.05784 ,2.21515 ,21.73500 
192 ,36.5671 ,1.05972 ,2.19119 ,21.49996 
193 ,36.7435 ,1.06155 ,2.17066 ,21.29849 
194 ,36.9197 ,1.06335 ,2.16039 ,21.19775 
195 ,37.1275 ,1.06524 ,2.16039 ,21.19775 
196 ,37.3358 ,1.06737 ,2.15012 ,21.09702 
197 ,37.5279 ,1.06931 ,2.11248 ,20.72766 
198 ,37.7200 ,1.07130 ,2.09537 ,20.55976 
199 ,37.8959 ,1.07302 ,2.09537 ,20.55976 
200 ,38.0880 ,1.07485 ,2.08168 ,20.42545 
201 ,38.2801 ,1.07690 ,2.05088 ,20.12325 
202 ,38.4563 ,1.07865 ,2.05430 ,20.15682 
203 ,38.6644 ,1.08066 ,2.01666 ,19.78746 
204 ,38.8405 ,1.08247 ,2.00982 ,19.72031 
205 ,39.0324 ,1.08447 ,1.99270 ,19.55241 
206 ,39.2246 ,1.08626 ,1.98586 ,19.48526 
207 ,39.4486 ,1.08850 ,1.96533 ,19.28379 
208 ,39.6563 ,1.09062 ,1.95848 ,19.21663 
209 ,39.8329 ,1.09242 ,1.95164 ,19.14948 
210 ,40.0410 ,1.09441 ,1.93111 ,18.94801 
211 ,40.2330 ,1.09637 ,1.91399 ,18.78011 
212 ,40.4251 ,1.09833 ,1.87635 ,18.41075 
213 ,40.6331 ,1.10037 ,1.89004 ,18.54507 
214 ,40.8093 ,1.10220 ,1.86266 ,18.27644 
215 ,41.0013 ,1.10408 ,1.83871 ,18.04139 
216 ,41.1934 ,1.10599 ,1.84555 ,18.10855 
217 ,41.4016 ,1.10796 ,1.81817 ,17.83992 
218 ,41.5936 ,1.11009 ,1.79764 ,17.63845 
219 ,41.7695 ,1.11179 ,1.79764 ,17.63845 
220 ,41.9617 ,1.11362 ,1.77369 ,17.40340 
221 ,42.1537 ,1.11556 ,1.78053 ,17.47056 
222 ,42.3454 ,1.11746 ,1.76684 ,17.33625 
223 ,42.5221 ,1.11932 ,1.72578 ,16.93331 
224 ,42.7142 ,1.12118 ,1.73946 ,17.06762 
225 ,42.9062 ,1.12306 ,1.68813 ,16.56395 
226 ,43.0981 ,1.12499 ,1.70524 ,16.73184 
227 ,43.3060 ,1.12708 ,1.66760 ,16.36248 
228 ,43.4823 ,1.12899 ,1.67102 ,16.39605 
229 ,43.6585 ,1.13063 ,1.65733 ,16.26174 
230 ,43.8661 ,1.13268 ,1.64364 ,16.12743 
231 ,44.0422 ,1.13452 ,1.60942 ,15.79164 
232 ,44.2022 ,1.13621 ,1.59916 ,15.69091 
233 ,44.3784 ,1.13784 ,1.59573 ,15.65733 
234 ,44.5547 ,1.13960 ,1.56836 ,15.38871 
235 ,44.7627 ,1.14165 ,1.55809 ,15.28797 
236 ,44.9388 ,1.14350 ,1.55467 ,15.25439 
237 ,45.1468 ,1.14546 ,1.53071 ,15.01934 
238 ,45.3551 ,1.14749 ,1.54440 ,15.15366 
239 ,45.5468 ,1.14955 ,1.51702 ,14.88503 
240 ,45.7394 ,1.15141 ,1.48965 ,14.61640 
241 ,45.9470 ,1.15352 ,1.48622 ,14.58283 
242 ,46.1236 ,1.15529 ,1.46569 ,14.38136 
243 ,46.3315 ,1.15737 ,1.45885 ,14.31420 
244 ,46.5237 ,1.15922 ,1.43831 ,14.11273 
245 ,46.7155 ,1.16118 ,1.42462 ,13.97842 
246 ,46.8917 ,1.16297 ,1.43831 ,14.11273 
247 ,47.0996 ,1.16500 ,1.40067 ,13.74337 
248 ,47.2919 ,1.16690 ,1.39383 ,13.67621 
249 ,47.4998 ,1.16900 ,1.38356 ,13.57548 
250 ,47.7076 ,1.17104 ,1.36645 ,13.40759 
251 ,47.9002 ,1.17306 ,1.34249 ,13.17254 
252 ,48.1081 ,1.17507 ,1.33223 ,13.07180 
253 ,48.2998 ,1.17693 ,1.31512 ,12.90391 
254 ,48.4924 ,1.17900 ,1.31854 ,12.93749 
255 ,48.6845 ,1.18091 ,1.28774 ,12.63528 
256 ,48.8765 ,1.18272 ,1.28432 ,12.60171 
257 ,49.0527 ,1.18456 ,1.26720 ,12.43381 
258 ,49.2286 ,1.18632 ,1.27063 ,12.46739 
259 ,49.4207 ,1.18816 ,1.24325 ,12.19877 
260 ,49.6130 ,1.19011 ,1.23983 ,12.16519 
261 ,49.8045 ,1.19212 ,1.21929 ,11.96372 
262 ,49.9806 ,1.19384 ,1.18850 ,11.66151 
263 ,50.1729 ,1.19569 ,1.20903 ,11.86298 
264 ,50.3491 ,1.19753 ,1.18850 ,11.66151 
265 ,50.5571 ,1.19960 ,1.16796 ,11.46004 
266 ,50.7492 ,1.20148 ,1.15085 ,11.29215 
267 ,50.9250 ,1.20330 ,1.13374 ,11.12426 
268 ,51.1175 ,1.20517 ,1.14058 ,11.19142 
269 ,51.3254 ,1.20722 ,1.10294 ,10.82206 
270 ,51.5016 ,1.20904 ,1.08583 ,10.65416 
271 ,51.6936 ,1.21097 ,1.08583 ,10.65416 
272 ,51.8697 ,1.21279 ,1.08241 ,10.62059 
273 ,52.0614 ,1.21464 ,1.05845 ,10.38554 
274 ,52.2379 ,1.21643 ,1.04134 ,10.21765 
275 ,52.4300 ,1.21840 ,1.04819 ,10.28480 
276 ,52.6222 ,1.22019 ,1.02423 ,10.04976 
277 ,52.8142 ,1.22220 ,1.00712 ,9.88186 
278 ,53.0062 ,1.22407 ,0.98317 ,9.64682 
279 ,53.1660 ,1.22582 ,0.97632 ,9.57966 
280 ,53.3422 ,1.22747 ,0.95579 ,9.37819 
281 ,53.5345 ,1.22933 ,0.96948 ,9.51250 
282 ,53.7425 ,1.23137 ,0.94552 ,9.27745 
283 ,53.9505 ,1.23344 ,0.94210 ,9.24388 
284 ,54.1266 ,1.23531 ,0.92157 ,9.04241 
285 ,54.3183 ,1.23722 ,0.90446 ,8.87451 
286 ,54.4943 ,1.23897 ,0.90446 ,8.87451 
287 ,54.6707 ,1.24072 ,0.89419 ,8.77378 
288 ,54.8466 ,1.24248 ,0.88050 ,8.63947 
289 ,55.0710 ,1.24464 ,0.87708 ,8.60589 
290 ,55.2627 ,1.24666 ,0.84628 ,8.30368 
291 ,55.4392 ,1.24843 ,0.82575 ,8.10221 
292 ,55.6313 ,1.25038 ,0.84286 ,8.27011 
293 ,55.8391 ,1.25235 ,0.81206 ,7.96790 
294 ,56.0470 ,1.25442 ,0.78468 ,7.69927 
295 ,56.2395 ,1.25637 ,0.78468 ,7.69927 
296 ,56.4156 ,1.25822 ,0.78126 ,7.66570 
297 ,56.6075 ,1.26006 ,0.76415 ,7.49780 
298 ,56.7837 ,1.26194 ,0.75046 ,7.36349 
299 ,56.9597 ,1.26357 ,0.73335 ,7.19560 
300 ,57.1358 ,1.26539 ,0.73335 ,7.19560 
301 ,57.3120 ,1.26726 ,0.72992 ,7.16202 
302 ,57.4877 ,1.26886 ,0.71966 ,7.06129 
303 ,57.6801 ,1.27074 ,0.68201 ,6.69193 
304 ,57.8560 ,1.27253 ,0.67859 ,6.65835 
305 ,58.0323 ,1.27438 ,0.66833 ,6.55761 
306 ,58.2245 ,1.27628 ,0.66148 ,6.49046 
307 ,58.4164 ,1.27815 ,0.65464 ,6.42330 
308 ,58.6085 ,1.28004 ,0.63753 ,6.25541 
309 ,58.8165 ,1.28211 ,0.63068 ,6.18825 
310 ,58.9923 ,1.28393 ,0.62726 ,6.15467 
311 ,59.1687 ,1.28567 ,0.61699 ,6.05394 
312 ,59.3608 ,1.28759 ,0.58962 ,5.78531 
313 ,59.5524 ,1.28951 ,0.59646 ,5.85247 
314 ,59.7449 ,1.29139 ,0.57251 ,5.61742 
315 ,59.9372 ,1.29338 ,0.55882 ,5.48311 
316 ,60.1291 ,1.29527 ,0.55197 ,5.41595 
317 ,60.3208 ,1.29722 ,0.52459 ,5.14732 
318 ,60.5127 ,1.29906 ,0.53486 ,5.24806 
319 ,60.7047 ,1.30099 ,0.50748 ,4.97943 
320 ,60.8973 ,1.30295 ,0.49722 ,4.87870 
321 ,61.1218 ,1.30515 ,0.47668 ,4.67723 
322 ,61.3136 ,1.30708 ,0.48011 ,4.71081 
323 ,61.5056 ,1.30903 ,0.46984 ,4.61007 
324 ,61.6973 ,1.31101 ,0.45273 ,4.44218 
325 ,61.8899 ,1.31285 ,0.43562 ,4.27429 
326 ,62.0975 ,1.31490 ,0.43562 ,4.27429 
327 ,62.2738 ,1.31673 ,0.43220 ,4.24071 
328 ,62.4340 ,1.31846 ,0.41851 ,4.10640 
329 ,62.6102 ,1.32012 ,0.41851 ,4.10640 
330 ,62.8016 ,1.32199 ,0.38429 ,3.77061 
331 ,62.9781 ,1.32375 ,0.37402 ,3.66988 
332 ,63.1545 ,1.32555 ,0.37744 ,3.70346 
333 ,63.3463 ,1.32738 ,0.35691 ,3.50199 
334 ,63.5224 ,1.32922 ,0.34664 ,3.40125 
335 ,63.6983 ,1.33100 ,0.32269 ,3.16620 
336 ,63.9061 ,1.33298 ,0.32269 ,3.16620 
337 ,64.0824 ,1.33480 ,0.30215 ,2.96473 
338 ,64.2748 ,1.33674 ,0.30900 ,3.03189 
339 ,64.4666 ,1.33859 ,0.29873 ,2.93116 
340 ,64.6588 ,1.34054 ,0.28504 ,2.79684 
341 ,64.8508 ,1.34245 ,0.29531 ,2.89758 
342 ,65.0430 ,1.34441 ,0.26451 ,2.59537 
343 ,65.2192 ,1.34623 ,0.24398 ,2.39390 
344 ,65.3952 ,1.34801 ,0.24740 ,2.42748 
345 ,65.5712 ,1.34974 ,0.24398 ,2.39390 
346 ,65.7633 ,1.35161 ,0.20976 ,2.05812 
347 ,65.9555 ,1.35349 ,0.21318 ,2.09170 
348 ,66.1476 ,1.35544 ,0.22687 ,2.22601 
349 ,66.3232 ,1.35728 ,0.19264 ,1.89023 
350 ,66.4996 ,1.35900 ,0.18238 ,1.78949 
351 ,66.6916 ,1.36088 ,0.17553 ,1.72234 
352 ,66.8837 ,1.36273 ,0.15500 ,1.52087 
353 ,67.0596 ,1.36459 ,0.14131 ,1.38655 
354 ,67.2518 ,1.36644 ,0.15158 ,1.48729 
355 ,67.4441 ,1.36840 ,0.12420 ,1.21866 
356 ,67.6360 ,1.37029 ,0.11051 ,1.08435 
357 ,67.8279 ,1.37220 ,0.12420 ,1.21866 
358 ,68.0202 ,1.37418 ,0.09340 ,0.91646 
359 ,68.1959 ,1.37589 ,0.07629 ,0.74857 
360 ,68.3884 ,1.37777 ,0.07287 ,0.71499 
361 ,68.5963 ,1.37982 ,0.07287 ,0.71499 
362 ,68.7884 ,1.38187 ,0.05576 ,0.54710 
363 ,68.9807 ,1.38376 ,0.04207 ,0.41278 
364 ,69.1568 ,1.38557 ,0.02838 ,0.27847 
365 ,69.3327 ,1.38743 ,0.03522 ,0.34563 
366 ,69.5090 ,1.38908 ,0.03180 ,0.31205 
367 ,69.7010 ,1.39099 ,-0.00584 ,-0.05731 
368 ,69.8931 ,1.39290 ,0.00443 ,0.04342 
369 ,70.0852 ,1.39476 ,-0.02295 ,-0.22520 
370 ,70.2773 ,1.39664 ,-0.00926 ,-0.09089 
371 ,70.4692 ,1.39867 ,-0.02637 ,-0.25878 
372 ,70.6615 ,1.40059 ,-0.05033 ,-0.49383 
373 ,70.8694 ,1.40255 ,-0.03664 ,-0.35952 
374 ,71.0616 ,1.40457 ,-0.07428 ,-0.72888 
375 ,71.2696 ,1.40657 ,-0.07428 ,-0.72888 
376 ,71.4617 ,1.40855 ,-0.09824 ,-0.96393 
377 ,71.6376 ,1.41032 ,-0.10166 ,-0.99751 
378 ,71.8298 ,1.41227 ,-0.08797 ,-0.86319 
379 ,72.0060 ,1.41402 ,-0.11535 ,-1.13182 
380 ,72.1978 ,1.41586 ,-0.12219 ,-1.19898 
381 ,72.4061 ,1.41787 ,-0.13246 ,-1.29971 
382 ,72.5981 ,1.41998 ,-0.14615 ,-1.43402 
383 ,72.7903 ,1.42186 ,-0.14273 ,-1.40045 
384 ,72.9823 ,1.42376 ,-0.16668 ,-1.63549 
385 ,73.1743 ,1.42562 ,-0.17353 ,-1.70265 
386 ,73.3503 ,1.42749 ,-0.16668 ,-1.63549 
387 ,73.5421 ,1.42931 ,-0.21117 ,-2.07201 
388 ,73.7344 ,1.43123 ,-0.18379 ,-1.80338 
389 ,73.9263 ,1.43329 ,-0.21117 ,-2.07201 
390 ,74.1026 ,1.43498 ,-0.22828 ,-2.23990 
391 ,74.2949 ,1.43689 ,-0.22144 ,-2.17275 
392 ,74.4865 ,1.43877 ,-0.23855 ,-2.34064 
393 ,74.6789 ,1.44075 ,-0.24539 ,-2.40779 
394 ,74.8709 ,1.44254 ,-0.25566 ,-2.50853 
395 ,75.0469 ,1.44442 ,-0.26250 ,-2.57569 
396 ,75.2392 ,1.44627 ,-0.27277 ,-2.67642 
397 ,75.4314 ,1.44827 ,-0.28988 ,-2.84431 
398 ,75.6390 ,1.45027 ,-0.29673 ,-2.91147 
399 ,75.8154 ,1.45209 ,-0.30357 ,-2.97863 
400 ,76.0073 ,1.45400 ,-0.31041 ,-3.04578 
401 ,76.1837 ,1.45578 ,-0.32752 ,-3.21367 
402 ,76.3755 ,1.45769 ,-0.32752 ,-3.21367 
403 ,76.5677 ,1.45965 ,-0.34806 ,-3.41514 
404 ,76.7596 ,1.46143 ,-0.34806 ,-3.41514 
405 ,76.9521 ,1.46339 ,-0.35148 ,-3.44872 
406 ,77.1600 ,1.46547 ,-0.37544 ,-3.68377 
407 ,77.3521 ,1.46739 ,-0.37544 ,-3.68377 
408 ,77.5282 ,1.46920 ,-0.39255 ,-3.85166 
409 ,77.7362 ,1.47126 ,-0.39597 ,-3.88524 
410 ,77.9123 ,1.47318 ,-0.39939 ,-3.91882 
411 ,78.0884 ,1.47478 ,-0.40966 ,-4.01955 
412 ,78.2645 ,1.47661 ,-0.44046 ,-4.32176 
413 ,78.4563 ,1.47849 ,-0.42335 ,-4.15387 
414 ,78.6644 ,1.48056 ,-0.45072 ,-4.42249 
415 ,78.8407 ,1.48239 ,-0.46441 ,-4.55681 
416 ,79.0328 ,1.48420 ,-0.44730 ,-4.38891 
417 ,79.2089 ,1.48607 ,-0.45757 ,-4.48965 
418 ,79.4010 ,1.48790 ,-0.48494 ,-4.75828 
419 ,79.5931 ,1.48978 ,-0.48152 ,-4.72470 
420 ,79.7852 ,1.49168 ,-0.50890 ,-4.99332 
421 ,79.9768 ,1.49375 ,-0.50206 ,-4.92617 
422 ,80.1691 ,1.49553 ,-0.51574 ,-5.06048 
423 ,80.3772 ,1.49765 ,-0.51232 ,-5.02690 
424 ,80.5691 ,1.49956 ,-0.52943 ,-5.19479 
425 ,80.7454 ,1.50136 ,-0.54997 ,-5.39626 
426 ,80.9376 ,1.50325 ,-0.53970 ,-5.29553 
427 ,81.1134 ,1.50512 ,-0.56708 ,-5.56415 
428 ,81.2897 ,1.50682 ,-0.57050 ,-5.59773 
429 ,81.4819 ,1.50864 ,-0.59445 ,-5.83278 
430 ,81.6898 ,1.51073 ,-0.58761 ,-5.76562 
431 ,81.8660 ,1.51255 ,-0.60472 ,-5.93352 
432 ,82.0417 ,1.51439 ,-0.62183 ,-6.10141 
433 ,82.2340 ,1.51627 ,-0.60814 ,-5.96709 
434 ,82.4422 ,1.51828 ,-0.62525 ,-6.13499 
435 ,82.6179 ,1.52007 ,-0.64579 ,-6.33646 
436 ,82.7945 ,1.52183 ,-0.63894 ,-6.26930 
437 ,83.0022 ,1.52386 ,-0.65605 ,-6.43719 
438 ,83.1942 ,1.52577 ,-0.65263 ,-6.40361 
439 ,83.3865 ,1.52771 ,-0.68685 ,-6.73940 
440 ,83.6104 ,1.52989 ,-0.68001 ,-6.67224 
441 ,83.7868 ,1.53185 ,-0.69027 ,-6.77297 
442 ,84.0109 ,1.53387 ,-0.70054 ,-6.87371 
443 ,84.2029 ,1.53590 ,-0.70739 ,-6.94086 
444 ,84.3627 ,1.53766 ,-0.72450 ,-7.10876 
445 ,84.5230 ,1.53925 ,-0.73134 ,-7.17591 
446 ,84.6988 ,1.54087 ,-0.73476 ,-7.20949 
447 ,84.8753 ,1.54268 ,-0.74161 ,-7.27665 
448 ,85.0833 ,1.54470 ,-0.75187 ,-7.37738 
449 ,85.2914 ,1.54673 ,-0.75872 ,-7.44454 
450 ,85.4835 ,1.54868 ,-0.78267 ,-7.67959 
451 ,85.6595 ,1.55055 ,-0.77925 ,-7.64601 
452 ,85.8357 ,1.55225 ,-0.77241 ,-7.57885 
453 ,86.0276 ,1.55412 ,-0.79294 ,-7.78032 
454 ,86.2198 ,1.55604 ,-0.81689 ,-8.01537 
455 ,86.4116 ,1.55804 ,-0.80663 ,-7.91464 
456 ,86.6040 ,1.55991 ,-0.83743 ,-8.21684 
457 ,86.7960 ,1.56183 ,-0.82374 ,-8.08253 
458 ,87.0040 ,1.56387 ,-0.83743 ,-8.21684 
459 ,87.1802 ,1.56572 ,-0.85796 ,-8.41831 
460 ,87.3881 ,1.56763 ,-0.84769 ,-8.31758 
461 ,87.5641 ,1.56954 ,-0.87165 ,-8.55262 
462 ,87.7404 ,1.57132 ,-0.87165 ,-8.55262 
463 ,87.9324 ,1.57320 ,-0.86823 ,-8.51904 
