Data stamp = , 25-04-2022 03:23:52 867

Calibration Values: 
Slope = , 26.54 , g/V 
Offset Voltage at no contact = , -0.501760 , V 

No , Time , Stage Position ,   Mass , Force 
   ,  (s) ,      (mm)      ,   (g)  , (mN)  

1 ,0.0000 ,0.69939 ,5.26430 ,51.65327 
2 ,0.2115 ,0.69945 ,5.25745 ,51.58611 
3 ,0.6757 ,0.70106 ,5.26430 ,51.65327 
4 ,0.8837 ,0.70301 ,5.26087 ,51.61969 
5 ,1.0918 ,0.70505 ,5.26430 ,51.65327 
6 ,1.2839 ,0.70697 ,5.27114 ,51.72043 
7 ,1.4917 ,0.70896 ,5.27456 ,51.75401 
8 ,1.6842 ,0.71098 ,5.26430 ,51.65327 
9 ,1.8602 ,0.71277 ,5.25403 ,51.55254 
10 ,2.0363 ,0.71448 ,5.24376 ,51.45180 
11 ,2.2284 ,0.71639 ,5.21296 ,51.14960 
12 ,2.4202 ,0.71828 ,5.20612 ,51.08244 
13 ,2.6123 ,0.72025 ,5.18216 ,50.84739 
14 ,2.8203 ,0.72225 ,5.16848 ,50.71308 
15 ,3.0126 ,0.72420 ,5.15136 ,50.54519 
16 ,3.2205 ,0.72623 ,5.12399 ,50.27656 
17 ,3.3967 ,0.72809 ,5.12056 ,50.24298 
18 ,3.5724 ,0.72991 ,5.09661 ,50.00793 
19 ,3.7647 ,0.73169 ,5.06581 ,49.70573 
20 ,3.9891 ,0.73388 ,5.04528 ,49.50426 
21 ,4.1972 ,0.73602 ,5.03159 ,49.36995 
22 ,4.3892 ,0.73796 ,5.00421 ,49.10132 
23 ,4.5813 ,0.73986 ,5.00079 ,49.06774 
24 ,4.7893 ,0.74194 ,4.96657 ,48.73196 
25 ,4.9655 ,0.74372 ,4.95288 ,48.59764 
26 ,5.1574 ,0.74561 ,4.93577 ,48.42975 
27 ,5.3335 ,0.74743 ,4.91523 ,48.22828 
28 ,5.5256 ,0.74939 ,4.89128 ,47.99324 
29 ,5.7178 ,0.75125 ,4.88444 ,47.92608 
30 ,5.9098 ,0.75329 ,4.84679 ,47.55672 
31 ,6.1015 ,0.75509 ,4.83995 ,47.48956 
32 ,6.2940 ,0.75698 ,4.83310 ,47.42240 
33 ,6.4860 ,0.75901 ,4.78519 ,46.95231 
34 ,6.6941 ,0.76096 ,4.78861 ,46.98589 
35 ,6.8856 ,0.76296 ,4.75097 ,46.61653 
36 ,7.0617 ,0.76474 ,4.73386 ,46.44863 
37 ,7.2219 ,0.76644 ,4.73728 ,46.48221 
38 ,7.3979 ,0.76806 ,4.72017 ,46.31432 
39 ,7.5903 ,0.76994 ,4.68253 ,45.94496 
40 ,7.7985 ,0.77205 ,4.68937 ,46.01212 
41 ,7.9743 ,0.77386 ,4.66884 ,45.81065 
42 ,8.1502 ,0.77559 ,4.63119 ,45.44128 
43 ,8.3265 ,0.77739 ,4.61066 ,45.23981 
44 ,8.5189 ,0.77931 ,4.60724 ,45.20624 
45 ,8.7264 ,0.78131 ,4.57644 ,44.90403 
46 ,8.9029 ,0.78309 ,4.56275 ,44.76972 
47 ,9.0948 ,0.78505 ,4.55933 ,44.73614 
48 ,9.2710 ,0.78679 ,4.53195 ,44.46751 
49 ,9.4630 ,0.78864 ,4.53195 ,44.46751 
50 ,9.6712 ,0.79074 ,4.48746 ,44.03100 
51 ,9.8472 ,0.79263 ,4.48062 ,43.96384 
52 ,10.0233 ,0.79432 ,4.44982 ,43.66163 
53 ,10.1994 ,0.79607 ,4.44640 ,43.62806 
54 ,10.3755 ,0.79782 ,4.43271 ,43.49374 
55 ,10.5836 ,0.79976 ,4.40533 ,43.22512 
56 ,10.7914 ,0.80196 ,4.38480 ,43.02365 
57 ,10.9996 ,0.80403 ,4.38138 ,42.99007 
58 ,11.1754 ,0.80582 ,4.35400 ,42.72144 
59 ,11.3676 ,0.80773 ,4.31636 ,42.35208 
60 ,11.5600 ,0.80964 ,4.31293 ,42.31850 
61 ,11.7521 ,0.81151 ,4.29240 ,42.11703 
62 ,11.9601 ,0.81367 ,4.28213 ,42.01630 
63 ,12.1522 ,0.81558 ,4.24791 ,41.68051 
64 ,12.3443 ,0.81746 ,4.24107 ,41.61336 
65 ,12.5363 ,0.81951 ,4.23422 ,41.54620 
66 ,12.7765 ,0.82160 ,4.20342 ,41.24400 
67 ,12.9683 ,0.82374 ,4.17262 ,40.94179 
68 ,13.1605 ,0.82569 ,4.14867 ,40.70674 
69 ,13.3362 ,0.82750 ,4.13156 ,40.53885 
70 ,13.5125 ,0.82925 ,4.14867 ,40.70674 
71 ,13.7047 ,0.83119 ,4.11445 ,40.37096 
72 ,13.8969 ,0.83295 ,4.09049 ,40.13591 
73 ,14.0889 ,0.83495 ,4.08023 ,40.03518 
74 ,14.2969 ,0.83702 ,4.05969 ,39.83371 
75 ,14.4566 ,0.83877 ,4.03916 ,39.63224 
76 ,14.6172 ,0.84038 ,4.03574 ,39.59866 
77 ,14.8090 ,0.84220 ,4.00836 ,39.33003 
78 ,14.9852 ,0.84391 ,3.99125 ,39.16214 
79 ,15.1774 ,0.84579 ,3.98441 ,39.09499 
80 ,15.3534 ,0.84769 ,3.94676 ,38.72562 
81 ,15.5289 ,0.84935 ,3.94676 ,38.72562 
82 ,15.7056 ,0.85115 ,3.91938 ,38.45700 
83 ,15.8815 ,0.85292 ,3.91938 ,38.45700 
84 ,16.0572 ,0.85461 ,3.89885 ,38.25553 
85 ,16.2174 ,0.85636 ,3.88858 ,38.15479 
86 ,16.4098 ,0.85812 ,3.85779 ,37.85259 
87 ,16.6015 ,0.86003 ,3.85094 ,37.78543 
88 ,16.7940 ,0.86197 ,3.82014 ,37.48323 
89 ,16.9700 ,0.86384 ,3.79961 ,37.28176 
90 ,17.1620 ,0.86563 ,3.78934 ,37.18102 
91 ,17.3382 ,0.86745 ,3.78934 ,37.18102 
92 ,17.5141 ,0.86923 ,3.77565 ,37.04671 
93 ,17.6898 ,0.87104 ,3.74485 ,36.74450 
94 ,17.8824 ,0.87280 ,3.73459 ,36.64377 
95 ,18.0906 ,0.87488 ,3.69010 ,36.20725 
96 ,18.2824 ,0.87682 ,3.69010 ,36.20725 
97 ,18.4586 ,0.87866 ,3.67983 ,36.10652 
98 ,18.6348 ,0.88044 ,3.67641 ,36.07294 
99 ,18.8266 ,0.88233 ,3.63877 ,35.70358 
100 ,19.0509 ,0.88449 ,3.62166 ,35.53569 
101 ,19.2429 ,0.88653 ,3.60454 ,35.36779 
102 ,19.4189 ,0.88826 ,3.58401 ,35.16632 
103 ,19.6110 ,0.89014 ,3.57717 ,35.09917 
104 ,19.8188 ,0.89218 ,3.54295 ,34.76338 
105 ,20.0274 ,0.89417 ,3.53610 ,34.69623 
106 ,20.2190 ,0.89627 ,3.50872 ,34.42760 
107 ,20.3954 ,0.89803 ,3.50872 ,34.42760 
108 ,20.5715 ,0.89975 ,3.49161 ,34.25971 
109 ,20.7636 ,0.90163 ,3.46424 ,33.99108 
110 ,20.9392 ,0.90355 ,3.44713 ,33.82319 
111 ,21.1158 ,0.90522 ,3.44713 ,33.82319 
112 ,21.3078 ,0.90714 ,3.41290 ,33.48741 
113 ,21.5158 ,0.90917 ,3.41290 ,33.48741 
114 ,21.7081 ,0.91115 ,3.38553 ,33.21878 
115 ,21.9000 ,0.91303 ,3.35130 ,32.88300 
116 ,22.0920 ,0.91491 ,3.36842 ,33.05089 
117 ,22.2843 ,0.91689 ,3.32051 ,32.58080 
118 ,22.4760 ,0.91871 ,3.33762 ,32.74869 
119 ,22.6523 ,0.92056 ,3.31024 ,32.48006 
120 ,22.8445 ,0.92241 ,3.27944 ,32.17786 
121 ,23.0363 ,0.92431 ,3.27602 ,32.14428 
122 ,23.2287 ,0.92628 ,3.23153 ,31.70776 
123 ,23.4204 ,0.92829 ,3.24180 ,31.80849 
124 ,23.6124 ,0.93005 ,3.22126 ,31.60702 
125 ,23.7884 ,0.93201 ,3.18704 ,31.27124 
126 ,23.9650 ,0.93372 ,3.17677 ,31.17051 
127 ,24.1566 ,0.93565 ,3.18704 ,31.27124 
128 ,24.3332 ,0.93737 ,3.16651 ,31.06977 
129 ,24.5408 ,0.93938 ,3.14940 ,30.90188 
130 ,24.7333 ,0.94136 ,3.13913 ,30.80115 
131 ,24.9410 ,0.94332 ,3.09806 ,30.39821 
132 ,25.1333 ,0.94530 ,3.10491 ,30.46536 
133 ,25.3251 ,0.94725 ,3.06384 ,30.06242 
134 ,25.5014 ,0.94901 ,3.05358 ,29.96169 
135 ,25.6776 ,0.95089 ,3.04673 ,29.89453 
136 ,25.8855 ,0.95276 ,3.03989 ,29.82737 
137 ,26.0616 ,0.95467 ,3.00224 ,29.45801 
138 ,26.2538 ,0.95649 ,3.00567 ,29.49159 
139 ,26.4299 ,0.95837 ,2.98171 ,29.25654 
140 ,26.6222 ,0.96024 ,2.95776 ,29.02150 
141 ,26.8142 ,0.96219 ,2.96802 ,29.12223 
142 ,26.9901 ,0.96400 ,2.92011 ,28.65213 
143 ,27.1983 ,0.96597 ,2.93038 ,28.75287 
144 ,27.3579 ,0.96774 ,2.92353 ,28.68571 
145 ,27.5500 ,0.96945 ,2.88931 ,28.34993 
146 ,27.7265 ,0.97130 ,2.87220 ,28.18204 
147 ,27.9186 ,0.97311 ,2.85509 ,28.01415 
148 ,28.1107 ,0.97510 ,2.85509 ,28.01415 
149 ,28.2867 ,0.97699 ,2.81402 ,27.61121 
150 ,28.4624 ,0.97863 ,2.79691 ,27.44332 
151 ,28.6549 ,0.98050 ,2.80718 ,27.54405 
152 ,28.8627 ,0.98258 ,2.77980 ,27.27542 
153 ,29.0391 ,0.98439 ,2.75585 ,27.04038 
154 ,29.2311 ,0.98633 ,2.76269 ,27.10753 
155 ,29.4233 ,0.98819 ,2.72505 ,26.73817 
156 ,29.6312 ,0.99025 ,2.71820 ,26.67101 
157 ,29.8073 ,0.99213 ,2.70794 ,26.57028 
158 ,30.0152 ,0.99413 ,2.70794 ,26.57028 
159 ,30.1915 ,0.99590 ,2.68056 ,26.30165 
160 ,30.3995 ,0.99800 ,2.66687 ,26.16734 
161 ,30.5756 ,0.99978 ,2.64634 ,25.96587 
162 ,30.7517 ,1.00147 ,2.64292 ,25.93229 
163 ,30.9437 ,1.00343 ,2.59158 ,25.42862 
164 ,31.1515 ,1.00548 ,2.60185 ,25.52935 
165 ,31.3280 ,1.00732 ,2.58132 ,25.32788 
166 ,31.5200 ,1.00915 ,2.55736 ,25.09283 
167 ,31.6959 ,1.01098 ,2.56421 ,25.15999 
168 ,31.9042 ,1.01299 ,2.52314 ,24.75705 
169 ,32.1121 ,1.01511 ,2.53341 ,24.85779 
170 ,32.2883 ,1.01689 ,2.50945 ,24.62274 
171 ,32.4964 ,1.01889 ,2.48550 ,24.38769 
172 ,32.6884 ,1.02086 ,2.46839 ,24.21980 
173 ,32.8806 ,1.02274 ,2.46839 ,24.21980 
174 ,33.0566 ,1.02469 ,2.43759 ,23.91759 
175 ,33.2325 ,1.02631 ,2.43074 ,23.85044 
176 ,33.4086 ,1.02809 ,2.41363 ,23.68255 
177 ,33.6008 ,1.03000 ,2.39310 ,23.48108 
178 ,33.7927 ,1.03191 ,2.39310 ,23.48108 
179 ,33.9689 ,1.03371 ,2.36572 ,23.21245 
180 ,34.1768 ,1.03565 ,2.35203 ,23.07814 
181 ,34.3691 ,1.03763 ,2.33150 ,22.87667 
182 ,34.5770 ,1.03960 ,2.31781 ,22.74235 
183 ,34.7692 ,1.04166 ,2.30070 ,22.57446 
184 ,34.9451 ,1.04346 ,2.29043 ,22.47373 
185 ,35.1374 ,1.04537 ,2.30070 ,22.57446 
186 ,35.3293 ,1.04724 ,2.25621 ,22.13794 
187 ,35.5216 ,1.04918 ,2.22883 ,21.86932 
188 ,35.7136 ,1.05116 ,2.25279 ,22.10437 
189 ,35.8896 ,1.05287 ,2.21515 ,21.73500 
190 ,36.0654 ,1.05464 ,2.21172 ,21.70143 
191 ,36.2739 ,1.05658 ,2.19119 ,21.49996 
192 ,36.4659 ,1.05867 ,2.17066 ,21.29849 
193 ,36.6418 ,1.06039 ,2.15697 ,21.16417 
194 ,36.8338 ,1.06225 ,2.15697 ,21.16417 
195 ,37.0262 ,1.06425 ,2.12959 ,20.89555 
196 ,37.2342 ,1.06628 ,2.12275 ,20.82839 
197 ,37.4583 ,1.06843 ,2.09537 ,20.55976 
198 ,37.6343 ,1.07033 ,2.09537 ,20.55976 
199 ,37.8265 ,1.07219 ,2.06115 ,20.22398 
200 ,38.0024 ,1.07401 ,2.05088 ,20.12325 
201 ,38.1785 ,1.07576 ,2.05088 ,20.12325 
202 ,38.3546 ,1.07754 ,2.03719 ,19.98893 
203 ,38.5468 ,1.07945 ,2.02008 ,19.82104 
204 ,38.7388 ,1.08130 ,2.00639 ,19.68673 
205 ,38.9310 ,1.08321 ,1.99270 ,19.55241 
206 ,39.1232 ,1.08517 ,1.97217 ,19.35094 
207 ,39.3150 ,1.08716 ,1.97217 ,19.35094 
208 ,39.5233 ,1.08911 ,1.93111 ,18.94801 
209 ,39.7152 ,1.09116 ,1.92768 ,18.91443 
210 ,39.8913 ,1.09286 ,1.92426 ,18.88085 
211 ,40.0834 ,1.09470 ,1.90373 ,18.67938 
212 ,40.2755 ,1.09664 ,1.90031 ,18.64580 
213 ,40.4511 ,1.09853 ,1.86266 ,18.27644 
214 ,40.6276 ,1.10028 ,1.84897 ,18.14213 
215 ,40.8357 ,1.10225 ,1.85924 ,18.24286 
216 ,41.0278 ,1.10417 ,1.82844 ,17.94066 
217 ,41.2360 ,1.10621 ,1.81475 ,17.80634 
218 ,41.4280 ,1.10827 ,1.79764 ,17.63845 
219 ,41.6041 ,1.11000 ,1.78053 ,17.47056 
220 ,41.7962 ,1.11198 ,1.77369 ,17.40340 
221 ,41.9721 ,1.11366 ,1.77026 ,17.36983 
222 ,42.1644 ,1.11563 ,1.72920 ,16.96689 
223 ,42.3724 ,1.11765 ,1.73262 ,17.00046 
224 ,42.5480 ,1.11945 ,1.72235 ,16.89973 
225 ,42.7405 ,1.12131 ,1.70182 ,16.69826 
226 ,42.9325 ,1.12328 ,1.69155 ,16.59752 
227 ,43.1242 ,1.12512 ,1.66075 ,16.29532 
228 ,43.3006 ,1.12698 ,1.64364 ,16.12743 
229 ,43.4929 ,1.12879 ,1.65391 ,16.22816 
230 ,43.6685 ,1.13070 ,1.62653 ,15.95954 
231 ,43.8611 ,1.13251 ,1.62653 ,15.95954 
232 ,44.0851 ,1.13463 ,1.61284 ,15.82522 
233 ,44.2611 ,1.13656 ,1.57520 ,15.45586 
234 ,44.4372 ,1.13832 ,1.57862 ,15.48944 
235 ,44.5972 ,1.14003 ,1.58204 ,15.52302 
236 ,44.7569 ,1.14166 ,1.56493 ,15.35513 
237 ,44.9494 ,1.14339 ,1.53756 ,15.08650 
238 ,45.1257 ,1.14523 ,1.52729 ,14.98577 
239 ,45.3178 ,1.14711 ,1.52729 ,14.98577 
240 ,45.5096 ,1.14905 ,1.51360 ,14.85145 
241 ,45.6857 ,1.15083 ,1.47938 ,14.51567 
242 ,45.8776 ,1.15281 ,1.48280 ,14.54925 
243 ,46.0539 ,1.15453 ,1.46569 ,14.38136 
244 ,46.2618 ,1.15648 ,1.45200 ,14.24704 
245 ,46.4540 ,1.15838 ,1.44858 ,14.21346 
246 ,46.6302 ,1.16024 ,1.43831 ,14.11273 
247 ,46.8225 ,1.16217 ,1.40409 ,13.77695 
248 ,47.0142 ,1.16415 ,1.40067 ,13.74337 
249 ,47.2066 ,1.16606 ,1.38698 ,13.60906 
250 ,47.3985 ,1.16790 ,1.36987 ,13.44116 
251 ,47.5905 ,1.16982 ,1.35960 ,13.34043 
252 ,47.7665 ,1.17174 ,1.33907 ,13.13896 
253 ,47.9584 ,1.17352 ,1.32880 ,13.03822 
254 ,48.1508 ,1.17539 ,1.31512 ,12.90391 
255 ,48.3587 ,1.17747 ,1.30827 ,12.83675 
256 ,48.5350 ,1.17926 ,1.31169 ,12.87033 
257 ,48.7429 ,1.18132 ,1.27405 ,12.50097 
258 ,48.9189 ,1.18319 ,1.26036 ,12.36666 
259 ,49.0945 ,1.18491 ,1.27063 ,12.46739 
260 ,49.2710 ,1.18663 ,1.26378 ,12.40024 
261 ,49.4632 ,1.18848 ,1.21245 ,11.89656 
262 ,49.6710 ,1.19060 ,1.20903 ,11.86298 
263 ,49.8474 ,1.19241 ,1.20218 ,11.79583 
264 ,50.0229 ,1.19419 ,1.18165 ,11.59436 
265 ,50.1832 ,1.19590 ,1.17138 ,11.49362 
266 ,50.3595 ,1.19751 ,1.15770 ,11.35931 
267 ,50.5357 ,1.19929 ,1.16454 ,11.42647 
268 ,50.7116 ,1.20108 ,1.15770 ,11.35931 
269 ,50.8879 ,1.20283 ,1.13716 ,11.15784 
270 ,51.0799 ,1.20482 ,1.13032 ,11.09068 
271 ,51.2559 ,1.20649 ,1.11321 ,10.92279 
272 ,51.4319 ,1.20824 ,1.10636 ,10.85563 
273 ,51.6243 ,1.21006 ,1.07899 ,10.58701 
274 ,51.8322 ,1.21226 ,1.07556 ,10.55343 
275 ,52.0564 ,1.21438 ,1.05503 ,10.35196 
276 ,52.2480 ,1.21651 ,1.03450 ,10.15049 
277 ,52.4405 ,1.21824 ,1.03450 ,10.15049 
278 ,52.6323 ,1.22025 ,1.02423 ,10.04976 
279 ,52.8083 ,1.22201 ,1.01054 ,9.91544 
280 ,52.9846 ,1.22379 ,0.99001 ,9.71397 
281 ,53.1607 ,1.22553 ,0.97974 ,9.61324 
282 ,53.3524 ,1.22751 ,0.96263 ,9.44535 
283 ,53.5289 ,1.22927 ,0.96605 ,9.47892 
284 ,53.7367 ,1.23128 ,0.95579 ,9.37819 
285 ,53.9289 ,1.23318 ,0.94210 ,9.24388 
286 ,54.1213 ,1.23505 ,0.91814 ,9.00883 
287 ,54.3292 ,1.23717 ,0.90446 ,8.87451 
288 ,54.5215 ,1.23914 ,0.89419 ,8.77378 
289 ,54.7134 ,1.24108 ,0.89419 ,8.77378 
290 ,54.8891 ,1.24289 ,0.88050 ,8.63947 
291 ,55.0655 ,1.24459 ,0.85997 ,8.43800 
292 ,55.2736 ,1.24655 ,0.85654 ,8.40442 
293 ,55.4653 ,1.24851 ,0.82575 ,8.10221 
294 ,55.6736 ,1.25050 ,0.82575 ,8.10221 
295 ,55.8814 ,1.25277 ,0.79495 ,7.80001 
296 ,56.0579 ,1.25449 ,0.79837 ,7.83359 
297 ,56.2341 ,1.25622 ,0.80179 ,7.86717 
298 ,56.4422 ,1.25826 ,0.77784 ,7.63212 
299 ,56.6178 ,1.26017 ,0.78468 ,7.69927 
300 ,56.7943 ,1.26188 ,0.77441 ,7.59854 
301 ,56.9863 ,1.26373 ,0.72650 ,7.12844 
302 ,57.1784 ,1.26567 ,0.74019 ,7.26276 
303 ,57.3545 ,1.26746 ,0.72650 ,7.12844 
304 ,57.5465 ,1.26934 ,0.70939 ,6.96055 
305 ,57.7066 ,1.27112 ,0.67517 ,6.62477 
306 ,57.8823 ,1.27272 ,0.67859 ,6.65835 
307 ,58.0904 ,1.27476 ,0.67859 ,6.65835 
308 ,58.2669 ,1.27659 ,0.65806 ,6.45688 
309 ,58.4749 ,1.27860 ,0.65806 ,6.45688 
310 ,58.6668 ,1.28058 ,0.63753 ,6.25541 
311 ,58.8591 ,1.28250 ,0.62726 ,6.15467 
312 ,59.0671 ,1.28451 ,0.60673 ,5.95320 
313 ,59.2433 ,1.28632 ,0.58277 ,5.71815 
314 ,59.4354 ,1.28816 ,0.60673 ,5.95320 
315 ,59.6273 ,1.29007 ,0.57251 ,5.61742 
316 ,59.8029 ,1.29193 ,0.55882 ,5.48311 
317 ,59.9796 ,1.29371 ,0.55539 ,5.44953 
318 ,60.1713 ,1.29558 ,0.55539 ,5.44953 
319 ,60.3474 ,1.29736 ,0.54513 ,5.34879 
320 ,60.5239 ,1.29916 ,0.53144 ,5.21448 
321 ,60.7160 ,1.30100 ,0.53144 ,5.21448 
322 ,60.9077 ,1.30301 ,0.51091 ,5.01301 
323 ,61.0839 ,1.30477 ,0.48353 ,4.74438 
324 ,61.2921 ,1.30670 ,0.49037 ,4.81154 
325 ,61.4841 ,1.30867 ,0.46300 ,4.54291 
326 ,61.6603 ,1.31049 ,0.44931 ,4.40860 
327 ,61.8523 ,1.31238 ,0.46300 ,4.54291 
328 ,62.0445 ,1.31434 ,0.44588 ,4.37502 
329 ,62.2203 ,1.31617 ,0.43904 ,4.30787 
330 ,62.3966 ,1.31783 ,0.42877 ,4.20713 
331 ,62.5886 ,1.31979 ,0.41166 ,4.03924 
332 ,62.7647 ,1.32152 ,0.39113 ,3.83777 
333 ,62.9569 ,1.32346 ,0.39797 ,3.90493 
334 ,63.1488 ,1.32537 ,0.38086 ,3.73703 
335 ,63.3409 ,1.32725 ,0.37402 ,3.66988 
336 ,63.5329 ,1.32920 ,0.37060 ,3.63630 
337 ,63.7252 ,1.33107 ,0.35349 ,3.46841 
338 ,63.9331 ,1.33314 ,0.33295 ,3.26694 
339 ,64.1087 ,1.33493 ,0.32269 ,3.16620 
340 ,64.2852 ,1.33674 ,0.31584 ,3.09905 
341 ,64.4614 ,1.33850 ,0.30215 ,2.96473 
342 ,64.6532 ,1.34040 ,0.30900 ,3.03189 
343 ,64.8455 ,1.34235 ,0.29189 ,2.86400 
344 ,65.0374 ,1.34414 ,0.26793 ,2.62895 
345 ,65.2134 ,1.34614 ,0.25767 ,2.52822 
346 ,65.3894 ,1.34779 ,0.26109 ,2.56179 
347 ,65.5659 ,1.34955 ,0.25082 ,2.46106 
348 ,65.7577 ,1.35142 ,0.23713 ,2.32675 
349 ,65.9340 ,1.35327 ,0.22344 ,2.19243 
350 ,66.1264 ,1.35500 ,0.23029 ,2.25959 
351 ,66.3182 ,1.35713 ,0.20633 ,2.02454 
352 ,66.5102 ,1.35898 ,0.20976 ,2.05812 
353 ,66.7023 ,1.36086 ,0.17553 ,1.72234 
354 ,66.8942 ,1.36284 ,0.18238 ,1.78949 
355 ,67.0701 ,1.36453 ,0.17553 ,1.72234 
356 ,67.2461 ,1.36643 ,0.13789 ,1.35298 
357 ,67.4061 ,1.36805 ,0.13105 ,1.28582 
358 ,67.5825 ,1.36974 ,0.13447 ,1.31940 
359 ,67.7908 ,1.37172 ,0.12420 ,1.21866 
360 ,67.9829 ,1.37366 ,0.10709 ,1.05077 
361 ,68.1751 ,1.37555 ,0.10709 ,1.05077 
362 ,68.3667 ,1.37745 ,0.07971 ,0.78214 
363 ,68.5752 ,1.37946 ,0.07971 ,0.78214 
364 ,68.7511 ,1.38144 ,0.06602 ,0.64783 
365 ,68.9268 ,1.38313 ,0.05576 ,0.54710 
366 ,69.1033 ,1.38490 ,0.03180 ,0.31205 
367 ,69.3276 ,1.38697 ,0.05576 ,0.54710 
368 ,69.5034 ,1.38893 ,0.03180 ,0.31205 
369 ,69.6953 ,1.39073 ,0.01811 ,0.17773 
370 ,69.9032 ,1.39284 ,0.01127 ,0.11058 
371 ,70.0794 ,1.39465 ,-0.00584 ,-0.05731 
372 ,70.2717 ,1.39656 ,0.00785 ,0.07700 
373 ,70.4476 ,1.39836 ,-0.01953 ,-0.19163 
374 ,70.6239 ,1.40014 ,-0.02295 ,-0.22520 
375 ,70.7999 ,1.40186 ,-0.05375 ,-0.52741 
376 ,70.9761 ,1.40364 ,-0.04006 ,-0.39310 
377 ,71.2001 ,1.40577 ,-0.06060 ,-0.59457 
378 ,71.3923 ,1.40774 ,-0.06744 ,-0.66172 
379 ,71.5999 ,1.40979 ,-0.09482 ,-0.93035 
380 ,71.7924 ,1.41172 ,-0.07086 ,-0.69530 
381 ,72.0004 ,1.41380 ,-0.10166 ,-0.99751 
382 ,72.1925 ,1.41575 ,-0.11877 ,-1.16540 
383 ,72.3845 ,1.41760 ,-0.13588 ,-1.33329 
384 ,72.5606 ,1.41944 ,-0.14273 ,-1.40045 
385 ,72.7367 ,1.42119 ,-0.13246 ,-1.29971 
386 ,72.9125 ,1.42303 ,-0.15299 ,-1.50118 
387 ,73.1050 ,1.42478 ,-0.15299 ,-1.50118 
388 ,73.3129 ,1.42696 ,-0.15642 ,-1.53476 
389 ,73.4887 ,1.42874 ,-0.18379 ,-1.80338 
390 ,73.6652 ,1.43050 ,-0.18722 ,-1.83696 
391 ,73.8253 ,1.43222 ,-0.20775 ,-2.03843 
392 ,74.0012 ,1.43383 ,-0.20433 ,-2.00485 
393 ,74.1935 ,1.43568 ,-0.21459 ,-2.10559 
394 ,74.3856 ,1.43770 ,-0.23855 ,-2.34064 
395 ,74.5777 ,1.43961 ,-0.24539 ,-2.40779 
396 ,74.7694 ,1.44151 ,-0.24539 ,-2.40779 
397 ,74.9615 ,1.44342 ,-0.26935 ,-2.64284 
398 ,75.1538 ,1.44540 ,-0.25908 ,-2.54211 
399 ,75.3300 ,1.44713 ,-0.26935 ,-2.64284 
400 ,75.5219 ,1.44904 ,-0.28646 ,-2.81073 
401 ,75.7300 ,1.45110 ,-0.28646 ,-2.81073 
402 ,75.9381 ,1.45313 ,-0.29330 ,-2.87789 
403 ,76.1145 ,1.45501 ,-0.31041 ,-3.04578 
404 ,76.3063 ,1.45687 ,-0.30699 ,-3.01220 
405 ,76.4823 ,1.45863 ,-0.33779 ,-3.31441 
406 ,76.6744 ,1.46053 ,-0.33437 ,-3.28083 
407 ,76.8504 ,1.46231 ,-0.34121 ,-3.34799 
408 ,77.0423 ,1.46416 ,-0.36517 ,-3.58303 
409 ,77.2188 ,1.46605 ,-0.37201 ,-3.65019 
410 ,77.4267 ,1.46805 ,-0.37886 ,-3.71735 
411 ,77.6027 ,1.46986 ,-0.38570 ,-3.78450 
412 ,77.7946 ,1.47180 ,-0.40281 ,-3.95240 
413 ,77.9868 ,1.47373 ,-0.39939 ,-3.91882 
414 ,78.1948 ,1.47563 ,-0.40966 ,-4.01955 
415 ,78.4028 ,1.47780 ,-0.44388 ,-4.35534 
416 ,78.5953 ,1.47970 ,-0.42677 ,-4.18744 
417 ,78.8031 ,1.48182 ,-0.44388 ,-4.35534 
418 ,78.9792 ,1.48369 ,-0.45414 ,-4.45607 
419 ,79.1712 ,1.48548 ,-0.46441 ,-4.55681 
420 ,79.3473 ,1.48730 ,-0.46441 ,-4.55681 
421 ,79.5556 ,1.48927 ,-0.48152 ,-4.72470 
422 ,79.7478 ,1.49134 ,-0.48837 ,-4.79185 
423 ,79.9398 ,1.49318 ,-0.50548 ,-4.95975 
424 ,80.1316 ,1.49509 ,-0.49863 ,-4.89259 
425 ,80.3240 ,1.49703 ,-0.51574 ,-5.06048 
426 ,80.5317 ,1.49905 ,-0.52943 ,-5.19479 
427 ,80.7242 ,1.50102 ,-0.53285 ,-5.22837 
428 ,80.9318 ,1.50308 ,-0.53285 ,-5.22837 
429 ,81.1242 ,1.50507 ,-0.54654 ,-5.36268 
430 ,81.3003 ,1.50675 ,-0.57050 ,-5.59773 
431 ,81.4762 ,1.50861 ,-0.57392 ,-5.63131 
432 ,81.6520 ,1.51030 ,-0.56708 ,-5.56415 
433 ,81.8286 ,1.51207 ,-0.58077 ,-5.69847 
434 ,82.0205 ,1.51398 ,-0.61156 ,-6.00067 
435 ,82.2288 ,1.51609 ,-0.60130 ,-5.89994 
436 ,82.4207 ,1.51803 ,-0.62525 ,-6.13499 
437 ,82.6284 ,1.52009 ,-0.61156 ,-6.00067 
438 ,82.8047 ,1.52186 ,-0.63210 ,-6.20214 
439 ,82.9971 ,1.52374 ,-0.64236 ,-6.30288 
440 ,83.1727 ,1.52559 ,-0.63552 ,-6.23572 
441 ,83.3491 ,1.52731 ,-0.66290 ,-6.50435 
442 ,83.5409 ,1.52917 ,-0.67316 ,-6.60508 
443 ,83.7334 ,1.53108 ,-0.66974 ,-6.57150 
444 ,83.9090 ,1.53297 ,-0.69712 ,-6.84013 
445 ,84.1010 ,1.53472 ,-0.70739 ,-6.94086 
446 ,84.2771 ,1.53660 ,-0.70396 ,-6.90729 
447 ,84.4693 ,1.53851 ,-0.70054 ,-6.87371 
448 ,84.6615 ,1.54036 ,-0.73476 ,-7.20949 
449 ,84.8538 ,1.54239 ,-0.72792 ,-7.14233 
450 ,85.0299 ,1.54413 ,-0.74161 ,-7.27665 
451 ,85.2060 ,1.54585 ,-0.74503 ,-7.31023 
452 ,85.3979 ,1.54772 ,-0.77241 ,-7.57885 
453 ,85.5736 ,1.54954 ,-0.76214 ,-7.47812 
454 ,85.7661 ,1.55136 ,-0.76556 ,-7.51170 
455 ,85.9582 ,1.55340 ,-0.78610 ,-7.71317 
456 ,86.1662 ,1.55537 ,-0.77925 ,-7.64601 
457 ,86.3584 ,1.55727 ,-0.80663 ,-7.91464 
458 ,86.5504 ,1.55938 ,-0.80663 ,-7.91464 
459 ,86.7265 ,1.56107 ,-0.80321 ,-7.88106 
460 ,86.9343 ,1.56304 ,-0.82374 ,-8.08253 
461 ,87.1107 ,1.56490 ,-0.82716 ,-8.11611 
462 ,87.3026 ,1.56676 ,-0.84769 ,-8.31758 
463 ,87.5109 ,1.56887 ,-0.85454 ,-8.38473 
