Data stamp = , 24-04-2022 19:41:48 417

Calibration Values: 
Slope = , 26.54 , g/V 
Offset Voltage at no contact = , -0.501760 , V 

No , Time , Stage Position ,   Mass , Force 
   ,  (s) ,      (mm)      ,   (g)  , (mN)  

1 ,0.0000 ,0.69939 ,5.33616 ,52.35841 
2 ,0.2101 ,0.69947 ,5.32589 ,52.25768 
3 ,0.6906 ,0.70111 ,5.31221 ,52.12337 
4 ,0.8984 ,0.70317 ,5.33616 ,52.35841 
5 ,1.0746 ,0.70487 ,5.32932 ,52.29126 
6 ,1.2667 ,0.70673 ,5.31905 ,52.19052 
7 ,1.4426 ,0.70850 ,5.32589 ,52.25768 
8 ,1.6191 ,0.71028 ,5.32589 ,52.25768 
9 ,1.8111 ,0.71216 ,5.30878 ,52.08979 
10 ,2.0193 ,0.71428 ,5.30194 ,52.02263 
11 ,2.2273 ,0.71637 ,5.26430 ,51.65327 
12 ,2.4034 ,0.71814 ,5.24034 ,51.41822 
13 ,2.6434 ,0.72048 ,5.24034 ,51.41822 
14 ,2.8191 ,0.72234 ,5.21981 ,51.21675 
15 ,2.9956 ,0.72406 ,5.20954 ,51.11602 
16 ,3.2035 ,0.72608 ,5.18216 ,50.84739 
17 ,3.3957 ,0.72798 ,5.16505 ,50.67950 
18 ,3.5715 ,0.72991 ,5.12056 ,50.24298 
19 ,3.7478 ,0.73161 ,5.12399 ,50.27656 
20 ,3.9239 ,0.73335 ,5.08634 ,49.90720 
21 ,4.1320 ,0.73537 ,5.07608 ,49.80646 
22 ,4.3239 ,0.73732 ,5.06239 ,49.67215 
23 ,4.5001 ,0.73910 ,5.05212 ,49.57142 
24 ,4.6920 ,0.74099 ,5.02817 ,49.33637 
25 ,4.8681 ,0.74280 ,5.01448 ,49.20205 
26 ,5.0604 ,0.74471 ,4.99737 ,49.03416 
27 ,5.2363 ,0.74643 ,4.99052 ,48.96701 
28 ,5.4121 ,0.74821 ,4.96657 ,48.73196 
29 ,5.6040 ,0.75007 ,4.92892 ,48.36260 
30 ,5.7964 ,0.75201 ,4.93235 ,48.39618 
31 ,5.9565 ,0.75380 ,4.92892 ,48.36260 
32 ,6.1328 ,0.75545 ,4.89812 ,48.06039 
33 ,6.3249 ,0.75738 ,4.86390 ,47.72461 
34 ,6.5172 ,0.75933 ,4.85364 ,47.62387 
35 ,6.7089 ,0.76114 ,4.83652 ,47.45598 
36 ,6.8851 ,0.76296 ,4.80230 ,47.12020 
37 ,7.1092 ,0.76504 ,4.79888 ,47.08662 
38 ,7.3170 ,0.76723 ,4.78861 ,46.98589 
39 ,7.4932 ,0.76902 ,4.77835 ,46.88515 
40 ,7.7013 ,0.77106 ,4.74070 ,46.51579 
41 ,7.8932 ,0.77301 ,4.73044 ,46.41506 
42 ,8.1014 ,0.77506 ,4.69964 ,46.11285 
43 ,8.2775 ,0.77691 ,4.67911 ,45.91138 
44 ,8.4534 ,0.77867 ,4.67568 ,45.87780 
45 ,8.6457 ,0.78051 ,4.64488 ,45.57560 
46 ,8.8536 ,0.78258 ,4.62435 ,45.37413 
47 ,9.0459 ,0.78456 ,4.59013 ,45.03835 
48 ,9.2219 ,0.78637 ,4.59013 ,45.03835 
49 ,9.4137 ,0.78813 ,4.57302 ,44.87045 
50 ,9.5900 ,0.78995 ,4.55591 ,44.70256 
51 ,9.7662 ,0.79173 ,4.53195 ,44.46751 
52 ,9.9741 ,0.79376 ,4.51484 ,44.29962 
53 ,10.1504 ,0.79559 ,4.50457 ,44.19889 
54 ,10.3424 ,0.79760 ,4.48062 ,43.96384 
55 ,10.5342 ,0.79943 ,4.47720 ,43.93026 
56 ,10.7105 ,0.80117 ,4.44640 ,43.62806 
57 ,10.8866 ,0.80292 ,4.43613 ,43.52732 
58 ,11.0788 ,0.80486 ,4.42244 ,43.39301 
59 ,11.2705 ,0.80683 ,4.38138 ,42.99007 
60 ,11.4625 ,0.80868 ,4.36427 ,42.82218 
61 ,11.6385 ,0.81046 ,4.36427 ,42.82218 
62 ,11.7986 ,0.81216 ,4.35058 ,42.68786 
63 ,11.9587 ,0.81380 ,4.34031 ,42.58713 
64 ,12.1350 ,0.81547 ,4.31978 ,42.38566 
65 ,12.3429 ,0.81743 ,4.28898 ,42.08345 
66 ,12.5353 ,0.81944 ,4.29240 ,42.11703 
67 ,12.7431 ,0.82145 ,4.24107 ,41.61336 
68 ,12.9195 ,0.82330 ,4.23422 ,41.54620 
69 ,13.1276 ,0.82520 ,4.22053 ,41.41189 
70 ,13.3517 ,0.82754 ,4.20685 ,41.27758 
71 ,13.5434 ,0.82964 ,4.17947 ,41.00895 
72 ,13.7199 ,0.83132 ,4.15209 ,40.74032 
73 ,13.9118 ,0.83311 ,4.15551 ,40.77390 
74 ,14.0880 ,0.83496 ,4.13498 ,40.57243 
75 ,14.2959 ,0.83691 ,4.11787 ,40.40454 
76 ,14.4878 ,0.83894 ,4.10076 ,40.23665 
77 ,14.6641 ,0.84072 ,4.08023 ,40.03518 
78 ,14.8724 ,0.84276 ,4.06996 ,39.93444 
79 ,15.0484 ,0.84464 ,4.02205 ,39.46435 
80 ,15.2243 ,0.84630 ,4.00836 ,39.33003 
81 ,15.4005 ,0.84809 ,4.00836 ,39.33003 
82 ,15.5764 ,0.84984 ,3.99809 ,39.22930 
83 ,15.7687 ,0.85171 ,3.97756 ,39.02783 
84 ,15.9604 ,0.85369 ,3.95361 ,38.79278 
85 ,16.1368 ,0.85545 ,3.93992 ,38.65847 
86 ,16.3291 ,0.85735 ,3.92623 ,38.52415 
87 ,16.5211 ,0.85927 ,3.89885 ,38.25553 
88 ,16.7125 ,0.86111 ,3.90227 ,38.28911 
89 ,16.9052 ,0.86311 ,3.85436 ,37.81901 
90 ,17.0973 ,0.86500 ,3.84410 ,37.71828 
91 ,17.2893 ,0.86697 ,3.84410 ,37.71828 
92 ,17.4809 ,0.86883 ,3.83383 ,37.61754 
93 ,17.6574 ,0.87063 ,3.79276 ,37.21460 
94 ,17.8330 ,0.87239 ,3.79619 ,37.24818 
95 ,18.0096 ,0.87414 ,3.77908 ,37.08029 
96 ,18.2017 ,0.87606 ,3.73801 ,36.67735 
97 ,18.3777 ,0.87783 ,3.71748 ,36.47588 
98 ,18.5700 ,0.87978 ,3.72774 ,36.57661 
99 ,18.7616 ,0.88175 ,3.69694 ,36.27441 
100 ,18.9539 ,0.88356 ,3.68668 ,36.17367 
101 ,19.1303 ,0.88536 ,3.66272 ,35.93863 
102 ,19.3221 ,0.88732 ,3.64903 ,35.80431 
103 ,19.5141 ,0.88914 ,3.64219 ,35.73716 
104 ,19.6903 ,0.89096 ,3.61823 ,35.50211 
105 ,19.8824 ,0.89283 ,3.59086 ,35.23348 
106 ,20.0584 ,0.89469 ,3.58401 ,35.16632 
107 ,20.2343 ,0.89638 ,3.56348 ,34.96485 
108 ,20.4423 ,0.89842 ,3.53268 ,34.66265 
109 ,20.6507 ,0.90057 ,3.52241 ,34.56192 
110 ,20.8428 ,0.90255 ,3.49504 ,34.29329 
111 ,21.0185 ,0.90425 ,3.47450 ,34.09182 
112 ,21.2109 ,0.90612 ,3.48819 ,34.22613 
113 ,21.4189 ,0.90822 ,3.45397 ,33.89035 
114 ,21.5948 ,0.91003 ,3.44370 ,33.78961 
115 ,21.7871 ,0.91186 ,3.44370 ,33.78961 
116 ,21.9631 ,0.91365 ,3.41290 ,33.48741 
117 ,22.1549 ,0.91559 ,3.39921 ,33.35310 
118 ,22.3475 ,0.91740 ,3.38895 ,33.25236 
119 ,22.5395 ,0.91947 ,3.35473 ,32.91658 
120 ,22.7317 ,0.92125 ,3.33762 ,32.74869 
121 ,22.9234 ,0.92323 ,3.33762 ,32.74869 
122 ,23.0998 ,0.92504 ,3.31024 ,32.48006 
123 ,23.2758 ,0.92679 ,3.29655 ,32.34575 
124 ,23.4836 ,0.92878 ,3.27602 ,32.14428 
125 ,23.6760 ,0.93081 ,3.25891 ,31.97639 
126 ,23.8841 ,0.93281 ,3.25206 ,31.90923 
127 ,24.0760 ,0.93477 ,3.21784 ,31.57345 
128 ,24.2678 ,0.93664 ,3.22811 ,31.67418 
129 ,24.4602 ,0.93856 ,3.21442 ,31.53987 
130 ,24.6842 ,0.94071 ,3.18020 ,31.20409 
131 ,24.8605 ,0.94266 ,3.15966 ,31.00262 
132 ,25.0681 ,0.94471 ,3.13571 ,30.76757 
133 ,25.2445 ,0.94645 ,3.14255 ,30.83472 
134 ,25.4207 ,0.94824 ,3.11175 ,30.53252 
135 ,25.5969 ,0.95005 ,3.11175 ,30.53252 
136 ,25.7889 ,0.95189 ,3.08780 ,30.29747 
137 ,25.9649 ,0.95372 ,3.05700 ,29.99527 
138 ,26.1409 ,0.95543 ,3.04673 ,29.89453 
139 ,26.3170 ,0.95724 ,3.02620 ,29.69306 
140 ,26.4927 ,0.95893 ,3.02278 ,29.65948 
141 ,26.6853 ,0.96084 ,3.00909 ,29.52517 
142 ,26.8773 ,0.96273 ,2.98171 ,29.25654 
143 ,27.0853 ,0.96480 ,2.96802 ,29.12223 
144 ,27.2615 ,0.96665 ,2.95433 ,28.98792 
145 ,27.4538 ,0.96858 ,2.94407 ,28.88718 
146 ,27.6776 ,0.97066 ,2.93380 ,28.78645 
147 ,27.8698 ,0.97273 ,2.91327 ,28.58498 
148 ,28.0457 ,0.97454 ,2.88589 ,28.31635 
149 ,28.2221 ,0.97624 ,2.87220 ,28.18204 
150 ,28.4301 ,0.97819 ,2.86193 ,28.08130 
151 ,28.6376 ,0.98034 ,2.84140 ,27.87983 
152 ,28.8461 ,0.98229 ,2.82087 ,27.67836 
153 ,29.0225 ,0.98424 ,2.81745 ,27.64479 
154 ,29.2143 ,0.98609 ,2.79349 ,27.40974 
155 ,29.4226 ,0.98819 ,2.76611 ,27.14111 
156 ,29.6465 ,0.99035 ,2.76954 ,27.17469 
157 ,29.8546 ,0.99254 ,2.72847 ,26.77175 
158 ,30.0625 ,0.99462 ,2.71478 ,26.63744 
159 ,30.2547 ,0.99657 ,2.70452 ,26.53670 
160 ,30.4468 ,0.99847 ,2.70794 ,26.57028 
161 ,30.6389 ,1.00041 ,2.65318 ,26.03303 
162 ,30.8464 ,1.00230 ,2.65660 ,26.06661 
163 ,31.0229 ,1.00423 ,2.64292 ,25.93229 
164 ,31.1992 ,1.00601 ,2.61212 ,25.63009 
165 ,31.3912 ,1.00786 ,2.62581 ,25.76440 
166 ,31.5672 ,1.00968 ,2.60527 ,25.56293 
167 ,31.7593 ,1.01165 ,2.58816 ,25.39504 
168 ,31.9514 ,1.01350 ,2.56763 ,25.19357 
169 ,32.1114 ,1.01526 ,2.56078 ,25.12641 
170 ,32.2876 ,1.01691 ,2.54710 ,24.99210 
171 ,32.4797 ,1.01876 ,2.50603 ,24.58916 
172 ,32.6717 ,1.02068 ,2.50261 ,24.55558 
173 ,32.8476 ,1.02248 ,2.49918 ,24.52200 
174 ,33.0399 ,1.02443 ,2.47181 ,24.25338 
175 ,33.2321 ,1.02634 ,2.45812 ,24.11906 
176 ,33.4239 ,1.02816 ,2.45470 ,24.08549 
177 ,33.6478 ,1.03049 ,2.43416 ,23.88402 
178 ,33.8401 ,1.03242 ,2.41705 ,23.71612 
179 ,34.0158 ,1.03417 ,2.38625 ,23.41392 
180 ,34.2083 ,1.03600 ,2.40336 ,23.58181 
181 ,34.4005 ,1.03804 ,2.37256 ,23.27961 
182 ,34.5924 ,1.03984 ,2.35545 ,23.11171 
183 ,34.7683 ,1.04172 ,2.34519 ,23.01098 
184 ,34.9606 ,1.04360 ,2.30754 ,22.64162 
185 ,35.1523 ,1.04546 ,2.31097 ,22.67520 
186 ,35.3447 ,1.04734 ,2.30070 ,22.57446 
187 ,35.5207 ,1.04925 ,2.29043 ,22.47373 
188 ,35.6968 ,1.05097 ,2.25621 ,22.13794 
189 ,35.8729 ,1.05272 ,2.24594 ,22.03721 
190 ,36.0491 ,1.05450 ,2.23910 ,21.97005 
191 ,36.2407 ,1.05635 ,2.20830 ,21.66785 
192 ,36.4171 ,1.05817 ,2.19803 ,21.56711 
193 ,36.6093 ,1.06001 ,2.20488 ,21.63427 
194 ,36.8011 ,1.06195 ,2.17750 ,21.36564 
195 ,36.9932 ,1.06381 ,2.16723 ,21.26491 
196 ,37.1696 ,1.06566 ,2.15012 ,21.09702 
197 ,37.3613 ,1.06759 ,2.14670 ,21.06344 
198 ,37.5535 ,1.06945 ,2.12959 ,20.89555 
199 ,37.7457 ,1.07139 ,2.11590 ,20.76123 
200 ,37.9219 ,1.07323 ,2.09537 ,20.55976 
201 ,38.1301 ,1.07518 ,2.08852 ,20.49261 
202 ,38.3378 ,1.07732 ,2.05088 ,20.12325 
203 ,38.5301 ,1.07920 ,2.04746 ,20.08967 
204 ,38.7061 ,1.08104 ,2.03377 ,19.95535 
205 ,38.8823 ,1.08282 ,2.03035 ,19.92178 
206 ,39.0902 ,1.08483 ,2.00639 ,19.68673 
207 ,39.2663 ,1.08667 ,2.00297 ,19.65315 
208 ,39.4261 ,1.08836 ,1.99955 ,19.61957 
209 ,39.6186 ,1.09014 ,1.95848 ,19.21663 
210 ,39.8268 ,1.09216 ,1.95848 ,19.21663 
211 ,40.0026 ,1.09407 ,1.94137 ,19.04874 
212 ,40.1788 ,1.09576 ,1.91742 ,18.81369 
213 ,40.3709 ,1.09766 ,1.89688 ,18.61222 
214 ,40.5625 ,1.09968 ,1.88662 ,18.51149 
215 ,40.7391 ,1.10140 ,1.86951 ,18.34360 
216 ,40.9469 ,1.10340 ,1.88319 ,18.47791 
217 ,41.1388 ,1.10526 ,1.85240 ,18.17570 
218 ,41.3150 ,1.10713 ,1.84213 ,18.07497 
219 ,41.5234 ,1.10910 ,1.82844 ,17.94066 
220 ,41.6992 ,1.11096 ,1.80791 ,17.73919 
221 ,41.8914 ,1.11292 ,1.79422 ,17.60487 
222 ,42.0675 ,1.11467 ,1.78737 ,17.53772 
223 ,42.2596 ,1.11658 ,1.76684 ,17.33625 
224 ,42.4517 ,1.11844 ,1.75315 ,17.20193 
225 ,42.6437 ,1.12041 ,1.74289 ,17.10120 
226 ,42.8516 ,1.12239 ,1.71893 ,16.86615 
227 ,43.0279 ,1.12426 ,1.70866 ,16.76542 
228 ,43.2200 ,1.12611 ,1.71551 ,16.83257 
229 ,43.4120 ,1.12808 ,1.66760 ,16.36248 
230 ,43.5882 ,1.12988 ,1.67444 ,16.42963 
231 ,43.7798 ,1.13184 ,1.64364 ,16.12743 
232 ,43.9718 ,1.13361 ,1.64707 ,16.16101 
233 ,44.1478 ,1.13552 ,1.64707 ,16.16101 
234 ,44.3401 ,1.13735 ,1.61627 ,15.85880 
235 ,44.5484 ,1.13940 ,1.61627 ,15.85880 
236 ,44.7245 ,1.14119 ,1.58547 ,15.55660 
237 ,44.9003 ,1.14296 ,1.58547 ,15.55660 
238 ,45.0768 ,1.14476 ,1.56151 ,15.32155 
239 ,45.2689 ,1.14666 ,1.55467 ,15.25439 
240 ,45.4768 ,1.14869 ,1.52387 ,14.95219 
241 ,45.6532 ,1.15049 ,1.52387 ,14.95219 
242 ,45.8612 ,1.15252 ,1.51018 ,14.81787 
243 ,46.0373 ,1.15437 ,1.50333 ,14.75072 
244 ,46.2453 ,1.15635 ,1.49991 ,14.71714 
245 ,46.4375 ,1.15833 ,1.46911 ,14.41493 
246 ,46.6295 ,1.16019 ,1.46227 ,14.34778 
247 ,46.8052 ,1.16201 ,1.44858 ,14.21346 
248 ,46.9816 ,1.16377 ,1.43831 ,14.11273 
249 ,47.1736 ,1.16571 ,1.41778 ,13.91126 
250 ,47.3658 ,1.16762 ,1.40751 ,13.81053 
251 ,47.5417 ,1.16944 ,1.37329 ,13.47474 
252 ,47.7178 ,1.17115 ,1.39040 ,13.64263 
253 ,47.8937 ,1.17288 ,1.35618 ,13.30685 
254 ,48.0857 ,1.17472 ,1.34934 ,13.23969 
255 ,48.2619 ,1.17661 ,1.32196 ,12.97107 
256 ,48.4702 ,1.17864 ,1.32196 ,12.97107 
257 ,48.6460 ,1.18039 ,1.31512 ,12.90391 
258 ,48.8384 ,1.18222 ,1.31854 ,12.93749 
259 ,49.0463 ,1.18429 ,1.28089 ,12.56813 
260 ,49.2386 ,1.18638 ,1.24325 ,12.19877 
261 ,49.4143 ,1.18804 ,1.25694 ,12.33308 
262 ,49.5908 ,1.18985 ,1.23641 ,12.13161 
263 ,49.7828 ,1.19173 ,1.22956 ,12.06445 
264 ,49.9748 ,1.19364 ,1.21587 ,11.93014 
265 ,50.1509 ,1.19544 ,1.19534 ,11.72867 
266 ,50.3271 ,1.19725 ,1.20561 ,11.82941 
267 ,50.5030 ,1.19894 ,1.19192 ,11.69509 
268 ,50.6952 ,1.20094 ,1.16454 ,11.42647 
269 ,50.9030 ,1.20294 ,1.16796 ,11.46004 
270 ,51.0794 ,1.20473 ,1.14058 ,11.19142 
271 ,51.2555 ,1.20648 ,1.13032 ,11.09068 
272 ,51.4634 ,1.20849 ,1.12005 ,10.98995 
273 ,51.6396 ,1.21035 ,1.11663 ,10.95637 
274 ,51.8317 ,1.21232 ,1.10294 ,10.82206 
275 ,52.0078 ,1.21403 ,1.07556 ,10.55343 
276 ,52.1999 ,1.21585 ,1.05845 ,10.38554 
277 ,52.3759 ,1.21769 ,1.05503 ,10.35196 
278 ,52.5838 ,1.21977 ,1.04476 ,10.25123 
279 ,52.7601 ,1.22152 ,1.02765 ,10.08333 
280 ,52.9682 ,1.22353 ,1.01396 ,9.94902 
281 ,53.1762 ,1.22553 ,0.99343 ,9.74755 
282 ,53.3522 ,1.22744 ,0.97632 ,9.57966 
283 ,53.5438 ,1.22933 ,0.96605 ,9.47892 
284 ,53.7365 ,1.23118 ,0.97290 ,9.54608 
285 ,53.9285 ,1.23324 ,0.93868 ,9.21030 
286 ,54.1206 ,1.23512 ,0.94552 ,9.27745 
287 ,54.3287 ,1.23716 ,0.91472 ,8.97525 
288 ,54.5047 ,1.23897 ,0.91130 ,8.94167 
289 ,54.6967 ,1.24082 ,0.90788 ,8.90809 
290 ,54.8889 ,1.24273 ,0.88392 ,8.67305 
291 ,55.0810 ,1.24468 ,0.87366 ,8.57231 
292 ,55.2730 ,1.24663 ,0.85312 ,8.37084 
293 ,55.4487 ,1.24844 ,0.84628 ,8.30368 
294 ,55.6252 ,1.25019 ,0.84286 ,8.27011 
295 ,55.8332 ,1.25220 ,0.81890 ,8.03506 
296 ,56.0254 ,1.25418 ,0.80863 ,7.93432 
297 ,56.2014 ,1.25593 ,0.81548 ,8.00148 
298 ,56.3771 ,1.25764 ,0.79495 ,7.80001 
299 ,56.5695 ,1.25958 ,0.76757 ,7.53138 
300 ,56.7452 ,1.26137 ,0.75388 ,7.39707 
301 ,56.9376 ,1.26325 ,0.74704 ,7.32991 
302 ,57.1455 ,1.26533 ,0.74361 ,7.29633 
303 ,57.3220 ,1.26714 ,0.73335 ,7.19560 
304 ,57.5139 ,1.26896 ,0.72992 ,7.16202 
305 ,57.7222 ,1.27108 ,0.71966 ,7.06129 
306 ,57.9299 ,1.27313 ,0.68544 ,6.72550 
307 ,58.1221 ,1.27507 ,0.67175 ,6.59119 
308 ,58.3138 ,1.27696 ,0.65121 ,6.38972 
309 ,58.4904 ,1.27880 ,0.64095 ,6.28899 
310 ,58.6664 ,1.28059 ,0.63410 ,6.22183 
311 ,58.8746 ,1.28259 ,0.62042 ,6.08752 
312 ,59.0667 ,1.28457 ,0.60330 ,5.91962 
313 ,59.2747 ,1.28658 ,0.59988 ,5.88605 
314 ,59.4666 ,1.28855 ,0.59646 ,5.85247 
315 ,59.6589 ,1.29043 ,0.58619 ,5.75173 
316 ,59.8508 ,1.29243 ,0.55539 ,5.44953 
317 ,60.0429 ,1.29430 ,0.56566 ,5.55026 
318 ,60.2190 ,1.29612 ,0.55539 ,5.44953 
319 ,60.3791 ,1.29781 ,0.53486 ,5.24806 
320 ,60.5552 ,1.29945 ,0.53828 ,5.28164 
321 ,60.7472 ,1.30132 ,0.52117 ,5.11375 
322 ,60.9232 ,1.30313 ,0.50748 ,4.97943 
323 ,61.0990 ,1.30494 ,0.48695 ,4.77796 
324 ,61.2755 ,1.30666 ,0.49037 ,4.81154 
325 ,61.4833 ,1.30864 ,0.47668 ,4.67723 
326 ,61.6757 ,1.31056 ,0.48353 ,4.74438 
327 ,61.8836 ,1.31265 ,0.45957 ,4.50934 
328 ,62.0759 ,1.31456 ,0.44931 ,4.40860 
329 ,62.2839 ,1.31667 ,0.44588 ,4.37502 
330 ,62.4760 ,1.31869 ,0.41509 ,4.07282 
331 ,62.6682 ,1.32060 ,0.38771 ,3.80419 
332 ,62.9082 ,1.32273 ,0.38086 ,3.73703 
333 ,63.1164 ,1.32496 ,0.38429 ,3.77061 
334 ,63.3083 ,1.32690 ,0.36375 ,3.56914 
335 ,63.5004 ,1.32887 ,0.37744 ,3.70346 
336 ,63.7083 ,1.33088 ,0.34664 ,3.40125 
337 ,63.9007 ,1.33292 ,0.33638 ,3.30052 
338 ,64.0924 ,1.33479 ,0.33980 ,3.33410 
339 ,64.2684 ,1.33656 ,0.30900 ,3.03189 
340 ,64.4608 ,1.33840 ,0.31584 ,3.09905 
341 ,64.6371 ,1.34025 ,0.30558 ,2.99831 
342 ,64.8293 ,1.34220 ,0.28162 ,2.76326 
343 ,65.0211 ,1.34410 ,0.27820 ,2.72969 
344 ,65.1973 ,1.34588 ,0.27820 ,2.72969 
345 ,65.3889 ,1.34769 ,0.25082 ,2.46106 
346 ,65.5972 ,1.34968 ,0.23713 ,2.32675 
347 ,65.7734 ,1.35164 ,0.24055 ,2.36032 
348 ,65.9496 ,1.35338 ,0.21660 ,2.12528 
349 ,66.1416 ,1.35525 ,0.22002 ,2.15885 
350 ,66.3176 ,1.35707 ,0.20633 ,2.02454 
351 ,66.4936 ,1.35879 ,0.17896 ,1.75592 
352 ,66.7020 ,1.36073 ,0.19264 ,1.89023 
353 ,66.8780 ,1.36268 ,0.18238 ,1.78949 
354 ,67.0699 ,1.36452 ,0.14131 ,1.38655 
355 ,67.2461 ,1.36636 ,0.14473 ,1.42013 
356 ,67.4383 ,1.36816 ,0.14473 ,1.42013 
357 ,67.6302 ,1.37018 ,0.13105 ,1.28582 
358 ,67.8384 ,1.37222 ,0.13447 ,1.31940 
359 ,68.0307 ,1.37418 ,0.10367 ,1.01719 
360 ,68.2226 ,1.37603 ,0.10025 ,0.98361 
361 ,68.4304 ,1.37809 ,0.07971 ,0.78214 
362 ,68.6224 ,1.38001 ,0.09340 ,0.91646 
363 ,68.7987 ,1.38189 ,0.08314 ,0.81572 
364 ,68.9909 ,1.38372 ,0.04207 ,0.41278 
365 ,69.1829 ,1.38561 ,0.05576 ,0.54710 
366 ,69.3750 ,1.38755 ,0.03522 ,0.34563 
367 ,69.5511 ,1.38946 ,0.02838 ,0.27847 
368 ,69.7271 ,1.39114 ,0.01127 ,0.11058 
369 ,69.9194 ,1.39306 ,0.01127 ,0.11058 
370 ,70.1274 ,1.39507 ,-0.00926 ,-0.09089 
371 ,70.3193 ,1.39704 ,-0.00584 ,-0.05731 
372 ,70.5274 ,1.39899 ,-0.02980 ,-0.29236 
373 ,70.7031 ,1.40086 ,-0.03322 ,-0.32594 
374 ,70.8795 ,1.40265 ,-0.04006 ,-0.39310 
375 ,71.0717 ,1.40452 ,-0.06060 ,-0.59457 
376 ,71.2477 ,1.40635 ,-0.07428 ,-0.72888 
377 ,71.4394 ,1.40820 ,-0.06402 ,-0.62814 
378 ,71.6315 ,1.41011 ,-0.08455 ,-0.82961 
379 ,71.8076 ,1.41192 ,-0.09824 ,-0.96393 
380 ,71.9839 ,1.41367 ,-0.11193 ,-1.09824 
381 ,72.1600 ,1.41546 ,-0.11535 ,-1.13182 
382 ,72.3362 ,1.41724 ,-0.09824 ,-0.96393 
383 ,72.5284 ,1.41909 ,-0.14615 ,-1.43402 
384 ,72.7204 ,1.42103 ,-0.13931 ,-1.36687 
385 ,72.9124 ,1.42297 ,-0.13931 ,-1.36687 
386 ,73.0884 ,1.42473 ,-0.16326 ,-1.60191 
387 ,73.2646 ,1.42651 ,-0.17011 ,-1.66907 
388 ,73.4723 ,1.42851 ,-0.18037 ,-1.76981 
389 ,73.6487 ,1.43036 ,-0.18722 ,-1.83696 
390 ,73.8247 ,1.43222 ,-0.19406 ,-1.90412 
391 ,74.0008 ,1.43383 ,-0.20433 ,-2.00485 
392 ,74.1772 ,1.43561 ,-0.21459 ,-2.10559 
393 ,74.3690 ,1.43753 ,-0.22486 ,-2.20632 
394 ,74.5605 ,1.43951 ,-0.21459 ,-2.10559 
395 ,74.7531 ,1.44139 ,-0.24539 ,-2.40779 
396 ,74.9453 ,1.44334 ,-0.26935 ,-2.64284 
397 ,75.1373 ,1.44520 ,-0.24197 ,-2.37422 
398 ,75.3298 ,1.44711 ,-0.28646 ,-2.81073 
399 ,75.5213 ,1.44903 ,-0.27619 ,-2.71000 
400 ,75.6975 ,1.45082 ,-0.27961 ,-2.74358 
401 ,75.8731 ,1.45254 ,-0.28646 ,-2.81073 
402 ,76.0493 ,1.45435 ,-0.30357 ,-2.97863 
403 ,76.2256 ,1.45616 ,-0.31041 ,-3.04578 
404 ,76.4016 ,1.45788 ,-0.32752 ,-3.21367 
405 ,76.5779 ,1.45964 ,-0.32752 ,-3.21367 
406 ,76.7698 ,1.46149 ,-0.34464 ,-3.38156 
407 ,76.9458 ,1.46326 ,-0.36859 ,-3.61661 
408 ,77.1376 ,1.46527 ,-0.35490 ,-3.48230 
409 ,77.3304 ,1.46709 ,-0.38570 ,-3.78450 
410 ,77.5382 ,1.46913 ,-0.37886 ,-3.71735 
411 ,77.7464 ,1.47117 ,-0.40281 ,-3.95240 
412 ,77.9384 ,1.47321 ,-0.39939 ,-3.91882 
413 ,78.1306 ,1.47513 ,-0.40281 ,-3.95240 
414 ,78.3225 ,1.47697 ,-0.40623 ,-3.98597 
415 ,78.5146 ,1.47889 ,-0.42677 ,-4.18744 
416 ,78.6907 ,1.48079 ,-0.41992 ,-4.12029 
417 ,78.8828 ,1.48267 ,-0.45414 ,-4.45607 
418 ,79.0748 ,1.48456 ,-0.45414 ,-4.45607 
419 ,79.2826 ,1.48663 ,-0.47468 ,-4.65754 
420 ,79.4750 ,1.48851 ,-0.46783 ,-4.59038 
421 ,79.6829 ,1.49057 ,-0.48494 ,-4.75828 
422 ,79.8752 ,1.49255 ,-0.49863 ,-4.89259 
423 ,80.0673 ,1.49450 ,-0.50548 ,-4.95975 
424 ,80.2752 ,1.49650 ,-0.49863 ,-4.89259 
425 ,80.4352 ,1.49829 ,-0.51232 ,-5.02690 
426 ,80.6114 ,1.49991 ,-0.52943 ,-5.19479 
427 ,80.8035 ,1.50179 ,-0.53970 ,-5.29553 
428 ,80.9956 ,1.50373 ,-0.52601 ,-5.16121 
429 ,81.1716 ,1.50560 ,-0.56023 ,-5.49700 
430 ,81.3476 ,1.50732 ,-0.56365 ,-5.53058 
431 ,81.5397 ,1.50914 ,-0.56708 ,-5.56415 
432 ,81.7159 ,1.51100 ,-0.56708 ,-5.56415 
433 ,81.8920 ,1.51272 ,-0.58077 ,-5.69847 
434 ,82.0839 ,1.51460 ,-0.60472 ,-5.93352 
435 ,82.2598 ,1.51644 ,-0.60472 ,-5.93352 
436 ,82.4362 ,1.51819 ,-0.61156 ,-6.00067 
437 ,82.6283 ,1.52013 ,-0.61156 ,-6.00067 
438 ,82.8202 ,1.52198 ,-0.62525 ,-6.13499 
439 ,83.0286 ,1.52408 ,-0.63552 ,-6.23572 
440 ,83.2366 ,1.52609 ,-0.64236 ,-6.30288 
441 ,83.4445 ,1.52816 ,-0.66632 ,-6.53793 
442 ,83.6201 ,1.53007 ,-0.65605 ,-6.43719 
443 ,83.7967 ,1.53179 ,-0.68343 ,-6.70582 
444 ,83.9729 ,1.53351 ,-0.66974 ,-6.57150 
445 ,84.1647 ,1.53539 ,-0.69370 ,-6.80655 
446 ,84.3570 ,1.53730 ,-0.69027 ,-6.77297 
447 ,84.5651 ,1.53941 ,-0.71765 ,-7.04160 
448 ,84.7571 ,1.54128 ,-0.71765 ,-7.04160 
449 ,84.9331 ,1.54314 ,-0.72450 ,-7.10876 
450 ,85.1255 ,1.54507 ,-0.75187 ,-7.37738 
451 ,85.3171 ,1.54690 ,-0.74161 ,-7.27665 
452 ,85.4933 ,1.54874 ,-0.74161 ,-7.27665 
453 ,85.6855 ,1.55059 ,-0.76898 ,-7.54527 
454 ,85.8937 ,1.55257 ,-0.75872 ,-7.44454 
455 ,86.1013 ,1.55473 ,-0.78267 ,-7.67959 
456 ,86.2778 ,1.55660 ,-0.78952 ,-7.74674 
457 ,86.4697 ,1.55846 ,-0.81005 ,-7.94821 
458 ,86.6460 ,1.56027 ,-0.79636 ,-7.81390 
459 ,86.8375 ,1.56212 ,-0.81005 ,-7.94821 
460 ,87.0305 ,1.56399 ,-0.82374 ,-8.08253 
461 ,87.2380 ,1.56614 ,-0.81689 ,-8.01537 
462 ,87.4464 ,1.56810 ,-0.83743 ,-8.21684 
463 ,87.6544 ,1.57023 ,-0.84085 ,-8.25042 
