Data stamp = , 24-04-2022 06:34:33 332

Calibration Values: 
Slope = , 26.54 , g/V 
Offset Voltage at no contact = , -0.501760 , V 

No , Time , Stage Position ,   Mass , Force 
   ,  (s) ,      (mm)      ,   (g)  , (mN)  

1 ,0.0000 ,0.69945 ,5.27456 ,51.75401 
2 ,0.2055 ,0.69954 ,5.27798 ,51.78758 
3 ,0.5096 ,0.70034 ,5.29167 ,51.92190 
4 ,0.6861 ,0.70154 ,5.28141 ,51.82116 
5 ,0.8782 ,0.70305 ,5.29510 ,51.95548 
6 ,1.0699 ,0.70486 ,5.28141 ,51.82116 
7 ,1.2464 ,0.70664 ,5.27798 ,51.78758 
8 ,1.4544 ,0.70858 ,5.28825 ,51.88832 
9 ,1.6143 ,0.71047 ,5.27456 ,51.75401 
10 ,1.7906 ,0.71212 ,5.27798 ,51.78758 
11 ,1.9826 ,0.71403 ,5.28141 ,51.82116 
12 ,2.1589 ,0.71588 ,5.25061 ,51.51896 
13 ,2.3348 ,0.71766 ,5.23007 ,51.31749 
14 ,2.5106 ,0.71932 ,5.20954 ,51.11602 
15 ,2.6869 ,0.72114 ,5.18901 ,50.91455 
16 ,2.8631 ,0.72287 ,5.17874 ,50.81381 
17 ,3.0392 ,0.72464 ,5.16505 ,50.67950 
18 ,3.2152 ,0.72650 ,5.12741 ,50.31014 
19 ,3.4072 ,0.72824 ,5.13425 ,50.37729 
20 ,3.5995 ,0.73025 ,5.11372 ,50.17583 
21 ,3.7755 ,0.73203 ,5.07950 ,49.84004 
22 ,3.9831 ,0.73391 ,5.06581 ,49.70573 
23 ,4.1436 ,0.73577 ,5.06581 ,49.70573 
24 ,4.3197 ,0.73744 ,5.03501 ,49.40352 
25 ,4.4958 ,0.73917 ,5.02474 ,49.30279 
26 ,4.6719 ,0.74098 ,4.99394 ,49.00058 
27 ,4.8641 ,0.74286 ,4.97683 ,48.83269 
28 ,5.0400 ,0.74459 ,4.96999 ,48.76554 
29 ,5.2320 ,0.74647 ,4.92892 ,48.36260 
30 ,5.4240 ,0.74848 ,4.91866 ,48.26186 
31 ,5.6320 ,0.75052 ,4.89470 ,48.02681 
32 ,5.8239 ,0.75251 ,4.88101 ,47.89250 
33 ,6.0164 ,0.75434 ,4.86048 ,47.69103 
34 ,6.2085 ,0.75622 ,4.85021 ,47.59030 
35 ,6.4325 ,0.75842 ,4.81941 ,47.28809 
36 ,6.6086 ,0.76033 ,4.79546 ,47.05304 
37 ,6.8009 ,0.76216 ,4.79546 ,47.05304 
38 ,6.9768 ,0.76396 ,4.77835 ,46.88515 
39 ,7.1525 ,0.76574 ,4.74755 ,46.58295 
40 ,7.3289 ,0.76746 ,4.72017 ,46.31432 
41 ,7.5050 ,0.76925 ,4.70306 ,46.14643 
42 ,7.6811 ,0.77102 ,4.69964 ,46.11285 
43 ,7.8571 ,0.77277 ,4.68937 ,46.01212 
44 ,8.0333 ,0.77455 ,4.64146 ,45.54202 
45 ,8.2093 ,0.77628 ,4.63462 ,45.47486 
46 ,8.4014 ,0.77819 ,4.62093 ,45.34055 
47 ,8.5934 ,0.78011 ,4.61066 ,45.23981 
48 ,8.7695 ,0.78192 ,4.58671 ,45.00477 
49 ,8.9457 ,0.78365 ,4.56275 ,44.76972 
50 ,9.1537 ,0.78571 ,4.56275 ,44.76972 
51 ,9.3613 ,0.78785 ,4.53880 ,44.53467 
52 ,9.5378 ,0.78956 ,4.53537 ,44.50109 
53 ,9.7300 ,0.79141 ,4.49773 ,44.13173 
54 ,9.9220 ,0.79346 ,4.48062 ,43.96384 
55 ,10.0977 ,0.79517 ,4.49089 ,44.06457 
56 ,10.2902 ,0.79701 ,4.43613 ,43.52732 
57 ,10.4663 ,0.79886 ,4.42929 ,43.46016 
58 ,10.6582 ,0.80072 ,4.41902 ,43.35943 
59 ,10.8344 ,0.80252 ,4.41560 ,43.32585 
60 ,11.0426 ,0.80454 ,4.38480 ,43.02365 
61 ,11.2182 ,0.80641 ,4.36084 ,42.78860 
62 ,11.3944 ,0.80816 ,4.36769 ,42.85576 
63 ,11.6027 ,0.81015 ,4.33004 ,42.48639 
64 ,11.7786 ,0.81199 ,4.32662 ,42.45282 
65 ,11.9708 ,0.81393 ,4.29924 ,42.18419 
66 ,12.1628 ,0.81578 ,4.28213 ,42.01630 
67 ,12.3550 ,0.81772 ,4.28213 ,42.01630 
68 ,12.5310 ,0.81950 ,4.24449 ,41.64694 
69 ,12.7232 ,0.82138 ,4.22053 ,41.41189 
70 ,12.9148 ,0.82333 ,4.21369 ,41.34473 
71 ,13.1072 ,0.82520 ,4.20685 ,41.27758 
72 ,13.3151 ,0.82728 ,4.17947 ,41.00895 
73 ,13.4915 ,0.82916 ,4.16236 ,40.84106 
74 ,13.6996 ,0.83116 ,4.14867 ,40.70674 
75 ,13.9075 ,0.83314 ,4.12814 ,40.50527 
76 ,14.0994 ,0.83508 ,4.08365 ,40.06876 
77 ,14.2920 ,0.83703 ,4.07680 ,40.00160 
78 ,14.4837 ,0.83909 ,4.08023 ,40.03518 
79 ,14.6598 ,0.84073 ,4.05285 ,39.76655 
80 ,14.8359 ,0.84258 ,4.03232 ,39.56508 
81 ,15.0279 ,0.84445 ,4.00152 ,39.26288 
82 ,15.2202 ,0.84627 ,3.99467 ,39.19572 
83 ,15.4123 ,0.84831 ,3.98441 ,39.09499 
84 ,15.5882 ,0.85003 ,3.97414 ,38.99425 
85 ,15.7803 ,0.85200 ,3.93650 ,38.62489 
86 ,15.9564 ,0.85373 ,3.92965 ,38.55773 
87 ,16.1480 ,0.85559 ,3.90570 ,38.32268 
88 ,16.3246 ,0.85744 ,3.89543 ,38.22195 
89 ,16.5168 ,0.85932 ,3.87147 ,37.98690 
90 ,16.7088 ,0.86117 ,3.86463 ,37.91975 
91 ,16.8847 ,0.86309 ,3.84410 ,37.71828 
92 ,17.0609 ,0.86480 ,3.82356 ,37.51681 
93 ,17.2530 ,0.86665 ,3.82014 ,37.48323 
94 ,17.4290 ,0.86850 ,3.79961 ,37.28176 
95 ,17.6367 ,0.87053 ,3.78250 ,37.11387 
96 ,17.8292 ,0.87239 ,3.76196 ,36.91240 
97 ,18.0210 ,0.87437 ,3.72432 ,36.54303 
98 ,18.1972 ,0.87614 ,3.72774 ,36.57661 
99 ,18.4213 ,0.87821 ,3.70037 ,36.30799 
100 ,18.5973 ,0.88015 ,3.69010 ,36.20725 
101 ,18.7729 ,0.88194 ,3.66272 ,35.93863 
102 ,18.9497 ,0.88369 ,3.66614 ,35.97220 
103 ,19.1418 ,0.88548 ,3.63534 ,35.67000 
104 ,19.3338 ,0.88753 ,3.62508 ,35.56926 
105 ,19.5260 ,0.88939 ,3.59428 ,35.26706 
106 ,19.7178 ,0.89130 ,3.59086 ,35.23348 
107 ,19.8937 ,0.89310 ,3.57717 ,35.09917 
108 ,20.0860 ,0.89503 ,3.54979 ,34.83054 
109 ,20.2942 ,0.89705 ,3.54637 ,34.79696 
110 ,20.4860 ,0.89899 ,3.52241 ,34.56192 
111 ,20.6619 ,0.90078 ,3.49161 ,34.25971 
112 ,20.8544 ,0.90272 ,3.49161 ,34.25971 
113 ,21.0303 ,0.90454 ,3.46766 ,34.02466 
114 ,21.2226 ,0.90634 ,3.43686 ,33.72246 
115 ,21.4147 ,0.90826 ,3.43344 ,33.68888 
116 ,21.5907 ,0.91011 ,3.43001 ,33.65530 
117 ,21.7987 ,0.91202 ,3.38895 ,33.25236 
118 ,21.9744 ,0.91392 ,3.39579 ,33.31952 
119 ,22.1667 ,0.91575 ,3.36157 ,32.98374 
120 ,22.3589 ,0.91769 ,3.34104 ,32.78227 
121 ,22.5351 ,0.91953 ,3.34788 ,32.84942 
122 ,22.7268 ,0.92141 ,3.33077 ,32.68153 
123 ,22.9032 ,0.92317 ,3.29313 ,32.31217 
124 ,23.0953 ,0.92510 ,3.28628 ,32.24501 
125 ,23.2873 ,0.92701 ,3.26233 ,32.00996 
126 ,23.4630 ,0.92881 ,3.25206 ,31.90923 
127 ,23.6713 ,0.93085 ,3.23837 ,31.77492 
128 ,23.8636 ,0.93276 ,3.20415 ,31.43913 
129 ,24.0397 ,0.93453 ,3.19731 ,31.37198 
130 ,24.2318 ,0.93647 ,3.19731 ,31.37198 
131 ,24.4236 ,0.93839 ,3.18020 ,31.20409 
132 ,24.5999 ,0.94015 ,3.13913 ,30.80115 
133 ,24.7759 ,0.94193 ,3.12886 ,30.70041 
134 ,24.9521 ,0.94367 ,3.13913 ,30.80115 
135 ,25.1598 ,0.94562 ,3.11860 ,30.59968 
136 ,25.3521 ,0.94759 ,3.09122 ,30.33105 
137 ,25.5282 ,0.94947 ,3.09806 ,30.39821 
138 ,25.7205 ,0.95127 ,3.04673 ,29.89453 
139 ,25.9126 ,0.95323 ,3.05700 ,29.99527 
140 ,26.1045 ,0.95515 ,3.01935 ,29.62590 
141 ,26.2961 ,0.95709 ,3.01251 ,29.55875 
142 ,26.4882 ,0.95896 ,3.00567 ,29.49159 
143 ,26.6962 ,0.96107 ,2.97144 ,29.15581 
144 ,26.8724 ,0.96285 ,2.97487 ,29.18939 
145 ,27.0325 ,0.96457 ,2.96802 ,29.12223 
146 ,27.2088 ,0.96624 ,2.94749 ,28.92076 
147 ,27.4008 ,0.96815 ,2.90300 ,28.48424 
148 ,27.5770 ,0.96992 ,2.89273 ,28.38351 
149 ,27.7692 ,0.97177 ,2.89958 ,28.45066 
150 ,27.9611 ,0.97365 ,2.86193 ,28.08130 
151 ,28.1371 ,0.97553 ,2.84482 ,27.91341 
152 ,28.3294 ,0.97736 ,2.84140 ,27.87983 
153 ,28.5214 ,0.97932 ,2.81745 ,27.64479 
154 ,28.6974 ,0.98107 ,2.79007 ,27.37616 
155 ,28.8894 ,0.98295 ,2.80376 ,27.51047 
156 ,29.0817 ,0.98493 ,2.77638 ,27.24185 
157 ,29.2737 ,0.98681 ,2.76611 ,27.14111 
158 ,29.4494 ,0.98866 ,2.74900 ,26.97322 
159 ,29.6578 ,0.99066 ,2.71820 ,26.67101 
160 ,29.8499 ,0.99262 ,2.72505 ,26.73817 
161 ,30.0258 ,0.99436 ,2.71136 ,26.60386 
162 ,30.2021 ,0.99612 ,2.68740 ,26.36881 
163 ,30.3781 ,0.99793 ,2.65318 ,26.03303 
164 ,30.5701 ,0.99983 ,2.66003 ,26.10018 
165 ,30.7463 ,1.00163 ,2.63607 ,25.86514 
166 ,30.9380 ,1.00347 ,2.61896 ,25.69724 
167 ,31.1144 ,1.00526 ,2.60185 ,25.52935 
168 ,31.3065 ,1.00723 ,2.60869 ,25.59651 
169 ,31.5149 ,1.00921 ,2.58474 ,25.36146 
170 ,31.7063 ,1.01115 ,2.56078 ,25.12641 
171 ,31.8828 ,1.01297 ,2.55052 ,25.02568 
172 ,32.0590 ,1.01477 ,2.52998 ,24.82421 
173 ,32.2670 ,1.01670 ,2.51972 ,24.72347 
174 ,32.4427 ,1.01853 ,2.50945 ,24.62274 
175 ,32.6191 ,1.02035 ,2.50261 ,24.55558 
176 ,32.8110 ,1.02223 ,2.46839 ,24.21980 
177 ,32.9873 ,1.02395 ,2.47181 ,24.25338 
178 ,33.1794 ,1.02586 ,2.43416 ,23.88402 
179 ,33.3714 ,1.02777 ,2.43074 ,23.85044 
180 ,33.5636 ,1.02973 ,2.42048 ,23.74970 
181 ,33.7555 ,1.03170 ,2.40336 ,23.58181 
182 ,33.9317 ,1.03342 ,2.37599 ,23.31318 
183 ,34.1236 ,1.03530 ,2.36914 ,23.24603 
184 ,34.2998 ,1.03709 ,2.35888 ,23.14529 
185 ,34.4918 ,1.03898 ,2.34519 ,23.01098 
186 ,34.6678 ,1.04078 ,2.32808 ,22.84309 
187 ,34.8757 ,1.04281 ,2.30754 ,22.64162 
188 ,35.0681 ,1.04470 ,2.29043 ,22.47373 
189 ,35.2602 ,1.04671 ,2.27674 ,22.33941 
190 ,35.4523 ,1.04859 ,2.27332 ,22.30584 
191 ,35.6283 ,1.05033 ,2.25279 ,22.10437 
192 ,35.8045 ,1.05217 ,2.24594 ,22.03721 
193 ,35.9960 ,1.05399 ,2.21857 ,21.76858 
194 ,36.1725 ,1.05582 ,2.20146 ,21.60069 
195 ,36.3321 ,1.05753 ,2.20146 ,21.60069 
196 ,36.5241 ,1.05926 ,2.18777 ,21.46638 
197 ,36.7003 ,1.06109 ,2.16723 ,21.26491 
198 ,36.8930 ,1.06291 ,2.14670 ,21.06344 
199 ,37.0849 ,1.06502 ,2.13644 ,20.96270 
200 ,37.2772 ,1.06680 ,2.12959 ,20.89555 
201 ,37.4851 ,1.06887 ,2.11248 ,20.72766 
202 ,37.6613 ,1.07072 ,2.09537 ,20.55976 
203 ,37.8373 ,1.07244 ,2.07826 ,20.39187 
204 ,38.0129 ,1.07436 ,2.06115 ,20.22398 
205 ,38.1889 ,1.07600 ,2.04061 ,20.02251 
206 ,38.3814 ,1.07780 ,2.04404 ,20.05609 
207 ,38.5734 ,1.07980 ,2.01666 ,19.78746 
208 ,38.7497 ,1.08164 ,1.99270 ,19.55241 
209 ,38.9576 ,1.08366 ,2.00297 ,19.65315 
210 ,39.1338 ,1.08546 ,1.95506 ,19.18305 
211 ,39.3258 ,1.08734 ,1.95506 ,19.18305 
212 ,39.5179 ,1.08928 ,1.95164 ,19.14948 
213 ,39.7100 ,1.09110 ,1.92084 ,18.84727 
214 ,39.9180 ,1.09320 ,1.91399 ,18.78011 
215 ,40.1103 ,1.09512 ,1.89346 ,18.57864 
216 ,40.2859 ,1.09699 ,1.88662 ,18.51149 
217 ,40.4624 ,1.09871 ,1.89346 ,18.57864 
218 ,40.6384 ,1.10044 ,1.86608 ,18.31002 
219 ,40.8306 ,1.10239 ,1.84213 ,18.07497 
220 ,41.0386 ,1.10439 ,1.84555 ,18.10855 
221 ,41.2308 ,1.10636 ,1.81475 ,17.80634 
222 ,41.4228 ,1.10833 ,1.80106 ,17.67203 
223 ,41.6145 ,1.11016 ,1.77369 ,17.40340 
224 ,41.7910 ,1.11201 ,1.77026 ,17.36983 
225 ,41.9827 ,1.11392 ,1.76342 ,17.30267 
226 ,42.1592 ,1.11570 ,1.74973 ,17.16836 
227 ,42.3512 ,1.11752 ,1.72578 ,16.93331 
228 ,42.5592 ,1.11952 ,1.73262 ,17.00046 
229 ,42.7353 ,1.12144 ,1.69498 ,16.63110 
230 ,42.9273 ,1.12327 ,1.68813 ,16.56395 
231 ,43.1035 ,1.12509 ,1.67786 ,16.46321 
232 ,43.2796 ,1.12688 ,1.67444 ,16.42963 
233 ,43.4555 ,1.12861 ,1.67102 ,16.39605 
234 ,43.6637 ,1.13055 ,1.63680 ,16.06027 
235 ,43.8559 ,1.13264 ,1.61627 ,15.85880 
236 ,44.0317 ,1.13439 ,1.59573 ,15.65733 
237 ,44.2238 ,1.13630 ,1.60258 ,15.72449 
238 ,44.4001 ,1.13800 ,1.59916 ,15.69091 
239 ,44.6078 ,1.14010 ,1.56836 ,15.38871 
240 ,44.7842 ,1.14189 ,1.56836 ,15.38871 
241 ,44.9604 ,1.14369 ,1.54782 ,15.18724 
242 ,45.1524 ,1.14557 ,1.52045 ,14.91861 
243 ,45.3285 ,1.14733 ,1.51018 ,14.81787 
244 ,45.5207 ,1.14927 ,1.51018 ,14.81787 
245 ,45.6964 ,1.15100 ,1.48965 ,14.61640 
246 ,45.8887 ,1.15299 ,1.46227 ,14.34778 
247 ,46.0648 ,1.15470 ,1.45542 ,14.28062 
248 ,46.2569 ,1.15661 ,1.45885 ,14.31420 
249 ,46.4490 ,1.15855 ,1.42805 ,14.01199 
250 ,46.6250 ,1.16040 ,1.42462 ,13.97842 
251 ,46.8010 ,1.16208 ,1.41778 ,13.91126 
252 ,47.0092 ,1.16412 ,1.38698 ,13.60906 
253 ,47.1853 ,1.16597 ,1.38356 ,13.57548 
254 ,47.3772 ,1.16779 ,1.36987 ,13.44116 
255 ,47.5535 ,1.16963 ,1.34591 ,13.20612 
256 ,47.7292 ,1.17135 ,1.32538 ,13.00465 
257 ,47.9219 ,1.17326 ,1.35276 ,13.27327 
258 ,48.1138 ,1.17511 ,1.31512 ,12.90391 
259 ,48.3058 ,1.17714 ,1.31512 ,12.90391 
260 ,48.4818 ,1.17889 ,1.28774 ,12.63528 
261 ,48.6577 ,1.18059 ,1.28774 ,12.63528 
262 ,48.8336 ,1.18237 ,1.26378 ,12.40024 
263 ,49.0099 ,1.18418 ,1.24667 ,12.23235 
264 ,49.1859 ,1.18591 ,1.23641 ,12.13161 
265 ,49.3780 ,1.18779 ,1.23983 ,12.16519 
266 ,49.5543 ,1.18958 ,1.22272 ,11.99730 
267 ,49.7304 ,1.19139 ,1.19876 ,11.76225 
268 ,49.9380 ,1.19337 ,1.20218 ,11.79583 
269 ,50.1305 ,1.19525 ,1.18165 ,11.59436 
270 ,50.3226 ,1.19731 ,1.16454 ,11.42647 
271 ,50.4985 ,1.19903 ,1.16112 ,11.39289 
272 ,50.6747 ,1.20082 ,1.13374 ,11.12426 
273 ,50.8667 ,1.20270 ,1.11663 ,10.95637 
274 ,51.0424 ,1.20442 ,1.11663 ,10.95637 
275 ,51.2187 ,1.20620 ,1.09952 ,10.78848 
276 ,51.3950 ,1.20801 ,1.09952 ,10.78848 
277 ,51.5711 ,1.20977 ,1.07899 ,10.58701 
278 ,51.7790 ,1.21175 ,1.07556 ,10.55343 
279 ,51.9552 ,1.21368 ,1.04476 ,10.25123 
280 ,52.1468 ,1.21540 ,1.03792 ,10.18407 
281 ,52.3233 ,1.21729 ,1.01739 ,9.98260 
282 ,52.5154 ,1.21927 ,1.01054 ,9.91544 
283 ,52.6914 ,1.22095 ,1.00370 ,9.84829 
284 ,52.8836 ,1.22273 ,0.98317 ,9.64682 
285 ,53.0754 ,1.22477 ,0.98317 ,9.64682 
286 ,53.2678 ,1.22669 ,0.96605 ,9.47892 
287 ,53.4595 ,1.22868 ,0.94210 ,9.24388 
288 ,53.6359 ,1.23048 ,0.93525 ,9.17672 
289 ,53.8279 ,1.23225 ,0.91814 ,9.00883 
290 ,54.0361 ,1.23433 ,0.92157 ,9.04241 
291 ,54.2278 ,1.23627 ,0.88734 ,8.70662 
292 ,54.4041 ,1.23815 ,0.89761 ,8.80736 
293 ,54.5961 ,1.23997 ,0.89077 ,8.74020 
294 ,54.7881 ,1.24184 ,0.85312 ,8.37084 
295 ,54.9643 ,1.24367 ,0.84970 ,8.33726 
296 ,55.1565 ,1.24560 ,0.85654 ,8.40442 
297 ,55.3482 ,1.24742 ,0.82575 ,8.10221 
298 ,55.5402 ,1.24936 ,0.81890 ,8.03506 
299 ,55.7326 ,1.25130 ,0.79837 ,7.83359 
300 ,55.9088 ,1.25312 ,0.79837 ,7.83359 
301 ,56.1009 ,1.25503 ,0.76072 ,7.46423 
302 ,56.2930 ,1.25685 ,0.78810 ,7.73285 
303 ,56.4844 ,1.25879 ,0.75046 ,7.36349 
304 ,56.6610 ,1.26065 ,0.74361 ,7.29633 
305 ,56.8532 ,1.26252 ,0.74361 ,7.29633 
306 ,57.0452 ,1.26443 ,0.70939 ,6.96055 
307 ,57.2374 ,1.26631 ,0.69913 ,6.85982 
308 ,57.4294 ,1.26828 ,0.69228 ,6.79266 
309 ,57.6210 ,1.27013 ,0.66833 ,6.55761 
310 ,57.8134 ,1.27211 ,0.68201 ,6.69193 
311 ,57.9893 ,1.27393 ,0.67175 ,6.59119 
312 ,58.1815 ,1.27584 ,0.63753 ,6.25541 
313 ,58.3734 ,1.27766 ,0.65806 ,6.45688 
314 ,58.5497 ,1.27947 ,0.64095 ,6.28899 
315 ,58.7258 ,1.28124 ,0.61015 ,5.98678 
316 ,58.9179 ,1.28320 ,0.59646 ,5.85247 
317 ,59.1101 ,1.28508 ,0.59646 ,5.85247 
318 ,59.3022 ,1.28695 ,0.57593 ,5.65100 
319 ,59.4780 ,1.28879 ,0.55882 ,5.48311 
320 ,59.6540 ,1.29056 ,0.56224 ,5.51668 
321 ,59.8463 ,1.29237 ,0.53486 ,5.24806 
322 ,60.0546 ,1.29453 ,0.53828 ,5.28164 
323 ,60.2625 ,1.29655 ,0.51091 ,5.01301 
324 ,60.4707 ,1.29857 ,0.51775 ,5.08017 
325 ,60.6626 ,1.30065 ,0.48353 ,4.74438 
326 ,60.8228 ,1.30234 ,0.47326 ,4.64365 
327 ,60.9988 ,1.30399 ,0.46984 ,4.61007 
328 ,61.1907 ,1.30591 ,0.47326 ,4.64365 
329 ,61.3988 ,1.30791 ,0.46300 ,4.54291 
330 ,61.5911 ,1.30982 ,0.45273 ,4.44218 
331 ,61.7992 ,1.31196 ,0.42535 ,4.17355 
332 ,61.9913 ,1.31390 ,0.42877 ,4.20713 
333 ,62.1993 ,1.31591 ,0.40482 ,3.97208 
334 ,62.3753 ,1.31772 ,0.39455 ,3.87135 
335 ,62.5671 ,1.31957 ,0.37744 ,3.70346 
336 ,62.7435 ,1.32142 ,0.37060 ,3.63630 
337 ,62.9193 ,1.32315 ,0.35691 ,3.50199 
338 ,63.0956 ,1.32495 ,0.34322 ,3.36767 
339 ,63.2876 ,1.32687 ,0.34322 ,3.36767 
340 ,63.4798 ,1.32869 ,0.33295 ,3.26694 
341 ,63.6719 ,1.33073 ,0.33980 ,3.33410 
342 ,63.8478 ,1.33247 ,0.32269 ,3.16620 
343 ,64.0398 ,1.33436 ,0.29531 ,2.89758 
344 ,64.2163 ,1.33614 ,0.27820 ,2.72969 
345 ,64.4241 ,1.33820 ,0.27820 ,2.72969 
346 ,64.6162 ,1.34012 ,0.26109 ,2.56179 
347 ,64.7921 ,1.34190 ,0.26451 ,2.59537 
348 ,64.9684 ,1.34371 ,0.25424 ,2.49464 
349 ,65.1603 ,1.34551 ,0.22344 ,2.19243 
350 ,65.3527 ,1.34748 ,0.22002 ,2.15885 
351 ,65.5605 ,1.34945 ,0.21660 ,2.12528 
352 ,65.7687 ,1.35165 ,0.20291 ,1.99096 
353 ,65.9609 ,1.35365 ,0.19607 ,1.92381 
354 ,66.1525 ,1.35553 ,0.19264 ,1.89023 
355 ,66.3449 ,1.35738 ,0.16869 ,1.65518 
356 ,66.5368 ,1.35935 ,0.15842 ,1.55445 
357 ,66.7133 ,1.36111 ,0.15842 ,1.55445 
358 ,66.9051 ,1.36292 ,0.13789 ,1.35298 
359 ,67.0814 ,1.36478 ,0.13447 ,1.31940 
360 ,67.2729 ,1.36668 ,0.13105 ,1.28582 
361 ,67.4495 ,1.36851 ,0.11051 ,1.08435 
362 ,67.6252 ,1.37034 ,0.10025 ,0.98361 
363 ,67.8177 ,1.37213 ,0.07971 ,0.78214 
364 ,67.9937 ,1.37394 ,0.07971 ,0.78214 
365 ,68.1858 ,1.37577 ,0.07287 ,0.71499 
366 ,68.3613 ,1.37771 ,0.05576 ,0.54710 
367 ,68.5379 ,1.37934 ,0.04891 ,0.47994 
368 ,68.7456 ,1.38152 ,0.03865 ,0.37920 
369 ,68.9223 ,1.38312 ,0.02838 ,0.27847 
370 ,69.1142 ,1.38503 ,0.02496 ,0.24489 
371 ,69.2900 ,1.38691 ,0.02496 ,0.24489 
372 ,69.4663 ,1.38870 ,-0.00584 ,-0.05731 
373 ,69.6423 ,1.39038 ,-0.01269 ,-0.12447 
374 ,69.8345 ,1.39221 ,-0.00584 ,-0.05731 
375 ,70.0266 ,1.39415 ,-0.02980 ,-0.29236 
376 ,70.2186 ,1.39613 ,-0.03664 ,-0.35952 
377 ,70.4265 ,1.39813 ,-0.04691 ,-0.46025 
378 ,70.6028 ,1.40003 ,-0.05033 ,-0.49383 
379 ,70.7949 ,1.40194 ,-0.08455 ,-0.82961 
380 ,70.9867 ,1.40376 ,-0.07428 ,-0.72888 
381 ,71.1790 ,1.40575 ,-0.09824 ,-0.96393 
382 ,71.3550 ,1.40759 ,-0.08797 ,-0.86319 
383 ,71.5308 ,1.40928 ,-0.09482 ,-0.93035 
384 ,71.7234 ,1.41115 ,-0.11193 ,-1.09824 
385 ,71.9314 ,1.41322 ,-0.10508 ,-1.03108 
386 ,72.1395 ,1.41527 ,-0.14273 ,-1.40045 
387 ,72.3316 ,1.41724 ,-0.13246 ,-1.29971 
388 ,72.5238 ,1.41916 ,-0.15299 ,-1.50118 
389 ,72.7157 ,1.42110 ,-0.17695 ,-1.73623 
390 ,72.8918 ,1.42290 ,-0.18037 ,-1.76981 
391 ,73.0839 ,1.42473 ,-0.19064 ,-1.87054 
392 ,73.2758 ,1.42664 ,-0.18379 ,-1.80338 
393 ,73.4676 ,1.42861 ,-0.20090 ,-1.97128 
394 ,73.6441 ,1.43039 ,-0.20775 ,-2.03843 
395 ,73.8362 ,1.43230 ,-0.22828 ,-2.23990 
396 ,74.0122 ,1.43406 ,-0.22828 ,-2.23990 
397 ,74.1883 ,1.43581 ,-0.23513 ,-2.30706 
398 ,74.3965 ,1.43785 ,-0.25224 ,-2.47495 
399 ,74.6039 ,1.43990 ,-0.24881 ,-2.44137 
400 ,74.7960 ,1.44187 ,-0.28304 ,-2.77716 
401 ,74.9886 ,1.44375 ,-0.28988 ,-2.84431 
402 ,75.1965 ,1.44585 ,-0.29673 ,-2.91147 
403 ,75.3888 ,1.44785 ,-0.29330 ,-2.87789 
404 ,75.5965 ,1.44983 ,-0.31726 ,-3.11294 
405 ,75.7730 ,1.45167 ,-0.33095 ,-3.24725 
406 ,75.9808 ,1.45368 ,-0.33095 ,-3.24725 
407 ,76.1731 ,1.45566 ,-0.34464 ,-3.38156 
408 ,76.3653 ,1.45756 ,-0.33779 ,-3.31441 
409 ,76.5734 ,1.45963 ,-0.35832 ,-3.51588 
410 ,76.7814 ,1.46159 ,-0.35832 ,-3.51588 
411 ,76.9570 ,1.46356 ,-0.37201 ,-3.65019 
412 ,77.1336 ,1.46530 ,-0.38912 ,-3.81808 
413 ,77.3416 ,1.46725 ,-0.40623 ,-3.98597 
414 ,77.5337 ,1.46923 ,-0.38912 ,-3.81808 
415 ,77.7258 ,1.47113 ,-0.41308 ,-4.05313 
416 ,77.9177 ,1.47304 ,-0.43703 ,-4.28818 
417 ,78.0940 ,1.47487 ,-0.44730 ,-4.38891 
418 ,78.2859 ,1.47680 ,-0.45072 ,-4.42249 
419 ,78.4621 ,1.47854 ,-0.44730 ,-4.38891 
420 ,78.6699 ,1.48053 ,-0.44730 ,-4.38891 
421 ,78.8781 ,1.48263 ,-0.47810 ,-4.69112 
422 ,79.0540 ,1.48446 ,-0.48152 ,-4.72470 
423 ,79.2304 ,1.48627 ,-0.48837 ,-4.79185 
424 ,79.4225 ,1.48814 ,-0.49863 ,-4.89259 
425 ,79.5985 ,1.48990 ,-0.51232 ,-5.02690 
426 ,79.7906 ,1.49185 ,-0.50890 ,-4.99332 
427 ,79.9667 ,1.49366 ,-0.52259 ,-5.12764 
428 ,80.1424 ,1.49538 ,-0.52259 ,-5.12764 
429 ,80.3349 ,1.49726 ,-0.54997 ,-5.39626 
430 ,80.5427 ,1.49924 ,-0.55339 ,-5.42984 
431 ,80.7191 ,1.50109 ,-0.55339 ,-5.42984 
432 ,80.9269 ,1.50310 ,-0.55681 ,-5.46342 
433 ,81.1191 ,1.50501 ,-0.59103 ,-5.79920 
434 ,81.2952 ,1.50688 ,-0.59445 ,-5.83278 
435 ,81.4713 ,1.50866 ,-0.58761 ,-5.76562 
436 ,81.6794 ,1.51058 ,-0.60814 ,-5.96709 
437 ,81.9034 ,1.51281 ,-0.60472 ,-5.93352 
438 ,82.0795 ,1.51471 ,-0.62525 ,-6.13499 
439 ,82.2716 ,1.51666 ,-0.64579 ,-6.33646 
440 ,82.4637 ,1.51857 ,-0.63552 ,-6.23572 
441 ,82.6557 ,1.52048 ,-0.65605 ,-6.43719 
442 ,82.8319 ,1.52221 ,-0.66290 ,-6.50435 
443 ,83.0238 ,1.52418 ,-0.66290 ,-6.50435 
444 ,83.1999 ,1.52593 ,-0.69370 ,-6.80655 
445 ,83.4077 ,1.52790 ,-0.66974 ,-6.57150 
446 ,83.5998 ,1.52981 ,-0.69712 ,-6.84013 
447 ,83.7761 ,1.53175 ,-0.70739 ,-6.94086 
448 ,83.9682 ,1.53348 ,-0.72107 ,-7.07518 
449 ,84.1764 ,1.53558 ,-0.72450 ,-7.10876 
450 ,84.3523 ,1.53746 ,-0.73476 ,-7.20949 
451 ,84.5445 ,1.53928 ,-0.73818 ,-7.24307 
452 ,84.7205 ,1.54112 ,-0.75187 ,-7.37738 
453 ,84.9127 ,1.54304 ,-0.75872 ,-7.44454 
454 ,85.1046 ,1.54485 ,-0.74845 ,-7.34380 
455 ,85.3130 ,1.54699 ,-0.77241 ,-7.57885 
456 ,85.5045 ,1.54890 ,-0.77583 ,-7.61243 
457 ,85.6970 ,1.55081 ,-0.79636 ,-7.81390 
458 ,85.9052 ,1.55289 ,-0.79636 ,-7.81390 
459 ,86.0970 ,1.55483 ,-0.82374 ,-8.08253 
460 ,86.2893 ,1.55684 ,-0.81689 ,-8.01537 
461 ,86.4809 ,1.55862 ,-0.82716 ,-8.11611 
462 ,86.6729 ,1.56061 ,-0.84769 ,-8.31758 
463 ,86.8328 ,1.56233 ,-0.83743 ,-8.21684 
