Data stamp = , 24-04-2022 06:54:05 001

Calibration Values: 
Slope = , 26.54 , g/V 
Offset Voltage at no contact = , -0.501760 , V 

No , Time , Stage Position ,   Mass , Force 
   ,  (s) ,      (mm)      ,   (g)  , (mN)  

1 ,0.0000 ,0.69945 ,5.27798 ,51.78758 
2 ,0.2291 ,0.69954 ,5.28825 ,51.88832 
3 ,0.6289 ,0.70071 ,5.30194 ,52.02263 
4 ,0.8218 ,0.70245 ,5.28483 ,51.85474 
5 ,1.0295 ,0.70442 ,5.29167 ,51.92190 
6 ,1.2371 ,0.70649 ,5.29510 ,51.95548 
7 ,1.4134 ,0.70828 ,5.29167 ,51.92190 
8 ,1.5736 ,0.70998 ,5.29510 ,51.95548 
9 ,1.7657 ,0.71171 ,5.27114 ,51.72043 
10 ,1.9419 ,0.71359 ,5.28141 ,51.82116 
11 ,2.1338 ,0.71551 ,5.24034 ,51.41822 
12 ,2.3096 ,0.71734 ,5.25403 ,51.55254 
13 ,2.5178 ,0.71925 ,5.23350 ,51.35107 
14 ,2.6941 ,0.72117 ,5.18559 ,50.88097 
15 ,2.8862 ,0.72308 ,5.17532 ,50.78023 
16 ,3.0623 ,0.72478 ,5.17874 ,50.81381 
17 ,3.2544 ,0.72664 ,5.15136 ,50.54519 
18 ,3.4460 ,0.72857 ,5.14110 ,50.44445 
19 ,3.6224 ,0.73035 ,5.11714 ,50.20940 
20 ,3.7986 ,0.73214 ,5.10003 ,50.04151 
21 ,3.9747 ,0.73395 ,5.05897 ,49.63857 
22 ,4.1664 ,0.73588 ,5.05554 ,49.60499 
23 ,4.3429 ,0.73758 ,5.04870 ,49.53784 
24 ,4.5185 ,0.73935 ,5.02474 ,49.30279 
25 ,4.6949 ,0.74114 ,4.99394 ,49.00058 
26 ,4.8709 ,0.74289 ,4.95630 ,48.63122 
27 ,5.0630 ,0.74481 ,4.96315 ,48.69838 
28 ,5.2549 ,0.74671 ,4.93577 ,48.42975 
29 ,5.4628 ,0.74872 ,4.92892 ,48.36260 
30 ,5.6713 ,0.75080 ,4.89470 ,48.02681 
31 ,5.8635 ,0.75286 ,4.88444 ,47.92608 
32 ,6.0876 ,0.75490 ,4.85364 ,47.62387 
33 ,6.2797 ,0.75691 ,4.84679 ,47.55672 
34 ,6.4713 ,0.75885 ,4.80573 ,47.15378 
35 ,6.6473 ,0.76063 ,4.77835 ,46.88515 
36 ,6.8238 ,0.76243 ,4.77493 ,46.85157 
37 ,6.9999 ,0.76415 ,4.78177 ,46.91873 
38 ,7.1758 ,0.76595 ,4.75439 ,46.65010 
39 ,7.3517 ,0.76765 ,4.72017 ,46.31432 
40 ,7.5282 ,0.76946 ,4.71333 ,46.24716 
41 ,7.7199 ,0.77128 ,4.70306 ,46.14643 
42 ,7.8963 ,0.77315 ,4.69279 ,46.04569 
43 ,8.0885 ,0.77501 ,4.65515 ,45.67633 
44 ,8.2806 ,0.77691 ,4.65173 ,45.64275 
45 ,8.4722 ,0.77882 ,4.62093 ,45.34055 
46 ,8.6802 ,0.78096 ,4.62435 ,45.37413 
47 ,8.8567 ,0.78285 ,4.58671 ,45.00477 
48 ,9.0325 ,0.78450 ,4.55933 ,44.73614 
49 ,9.2089 ,0.78626 ,4.55591 ,44.70256 
50 ,9.3850 ,0.78800 ,4.54564 ,44.60183 
51 ,9.5769 ,0.78984 ,4.52169 ,44.36678 
52 ,9.7851 ,0.79183 ,4.49089 ,44.06457 
53 ,9.9772 ,0.79387 ,4.48746 ,44.03100 
54 ,10.1852 ,0.79588 ,4.47035 ,43.86310 
55 ,10.3612 ,0.79776 ,4.44640 ,43.62806 
56 ,10.5374 ,0.79953 ,4.44298 ,43.59448 
57 ,10.7294 ,0.80141 ,4.41218 ,43.29227 
58 ,10.9053 ,0.80323 ,4.39849 ,43.15796 
59 ,11.0971 ,0.80511 ,4.38138 ,42.99007 
60 ,11.2737 ,0.80689 ,4.37795 ,42.95649 
61 ,11.4498 ,0.80864 ,4.34716 ,42.65429 
62 ,11.6258 ,0.81043 ,4.33689 ,42.55355 
63 ,11.8182 ,0.81233 ,4.33347 ,42.51997 
64 ,12.0098 ,0.81423 ,4.29582 ,42.15061 
65 ,12.2018 ,0.81611 ,4.29582 ,42.15061 
66 ,12.4102 ,0.81821 ,4.24791 ,41.68051 
67 ,12.5862 ,0.81996 ,4.23765 ,41.57978 
68 ,12.7620 ,0.82176 ,4.23765 ,41.57978 
69 ,12.9544 ,0.82369 ,4.21369 ,41.34473 
70 ,13.1301 ,0.82546 ,4.18289 ,41.04253 
71 ,13.3225 ,0.82731 ,4.17605 ,40.97537 
72 ,13.5308 ,0.82941 ,4.14183 ,40.63959 
73 ,13.7544 ,0.83151 ,4.13156 ,40.53885 
74 ,13.9304 ,0.83340 ,4.11787 ,40.40454 
75 ,14.1225 ,0.83527 ,4.10760 ,40.30380 
76 ,14.2985 ,0.83718 ,4.08023 ,40.03518 
77 ,14.4749 ,0.83891 ,4.06996 ,39.93444 
78 ,14.7152 ,0.84120 ,4.04600 ,39.69940 
79 ,14.9070 ,0.84318 ,4.02205 ,39.46435 
80 ,15.0994 ,0.84503 ,4.01178 ,39.36361 
81 ,15.2754 ,0.84691 ,4.00152 ,39.26288 
82 ,15.4674 ,0.84875 ,3.96729 ,38.92709 
83 ,15.6436 ,0.85056 ,3.96045 ,38.85994 
84 ,15.8357 ,0.85250 ,3.92623 ,38.52415 
85 ,16.0277 ,0.85442 ,3.91596 ,38.42342 
86 ,16.2198 ,0.85633 ,3.92623 ,38.52415 
87 ,16.3955 ,0.85809 ,3.90227 ,38.28911 
88 ,16.5877 ,0.85993 ,3.85436 ,37.81901 
89 ,16.7801 ,0.86188 ,3.86121 ,37.88617 
90 ,16.9721 ,0.86386 ,3.84410 ,37.71828 
91 ,17.1642 ,0.86570 ,3.82014 ,37.48323 
92 ,17.3721 ,0.86780 ,3.79619 ,37.24818 
93 ,17.5642 ,0.86980 ,3.77908 ,37.08029 
94 ,17.7404 ,0.87152 ,3.77908 ,37.08029 
95 ,17.9486 ,0.87350 ,3.73801 ,36.67735 
96 ,18.1407 ,0.87547 ,3.73459 ,36.64377 
97 ,18.3486 ,0.87757 ,3.69694 ,36.27441 
98 ,18.5248 ,0.87934 ,3.67983 ,36.10652 
99 ,18.7169 ,0.88135 ,3.67983 ,36.10652 
100 ,18.8926 ,0.88303 ,3.66957 ,36.00578 
101 ,19.0691 ,0.88482 ,3.63877 ,35.70358 
102 ,19.2609 ,0.88666 ,3.64561 ,35.77073 
103 ,19.4532 ,0.88872 ,3.63192 ,35.63642 
104 ,19.6609 ,0.89057 ,3.59770 ,35.30064 
105 ,19.8533 ,0.89259 ,3.58401 ,35.16632 
106 ,20.0613 ,0.89463 ,3.55321 ,34.86412 
107 ,20.2376 ,0.89650 ,3.54637 ,34.79696 
108 ,20.4455 ,0.89855 ,3.51557 ,34.49476 
109 ,20.6212 ,0.90027 ,3.49846 ,34.32687 
110 ,20.7973 ,0.90207 ,3.50188 ,34.36045 
111 ,21.0058 ,0.90399 ,3.45055 ,33.85677 
112 ,21.1979 ,0.90605 ,3.46424 ,33.99108 
113 ,21.4060 ,0.90798 ,3.42659 ,33.62172 
114 ,21.5981 ,0.91008 ,3.43686 ,33.72246 
115 ,21.7900 ,0.91199 ,3.40948 ,33.45383 
116 ,21.9660 ,0.91380 ,3.36842 ,33.05089 
117 ,22.1581 ,0.91567 ,3.37184 ,33.08447 
118 ,22.3664 ,0.91760 ,3.33419 ,32.71511 
119 ,22.5740 ,0.91978 ,3.33419 ,32.71511 
120 ,22.7505 ,0.92161 ,3.31366 ,32.51364 
121 ,22.9262 ,0.92336 ,3.29655 ,32.34575 
122 ,23.1187 ,0.92524 ,3.29313 ,32.31217 
123 ,23.3267 ,0.92728 ,3.26233 ,32.00996 
124 ,23.5057 ,0.92915 ,3.23153 ,31.70776 
125 ,23.7109 ,0.93113 ,3.23837 ,31.77492 
126 ,23.8869 ,0.93300 ,3.20757 ,31.47271 
127 ,24.0626 ,0.93473 ,3.19046 ,31.30482 
128 ,24.2392 ,0.93652 ,3.18362 ,31.23766 
129 ,24.4472 ,0.93849 ,3.15966 ,31.00262 
130 ,24.6392 ,0.94040 ,3.15282 ,30.93546 
131 ,24.8154 ,0.94225 ,3.15282 ,30.93546 
132 ,25.0233 ,0.94429 ,3.11860 ,30.59968 
133 ,25.2154 ,0.94623 ,3.11518 ,30.56610 
134 ,25.4235 ,0.94821 ,3.08780 ,30.29747 
135 ,25.5993 ,0.95009 ,3.07069 ,30.12958 
136 ,25.7757 ,0.95187 ,3.05015 ,29.92811 
137 ,25.9676 ,0.95375 ,3.03647 ,29.79380 
138 ,26.1435 ,0.95553 ,3.01593 ,29.59233 
139 ,26.3360 ,0.95735 ,3.00224 ,29.45801 
140 ,26.5440 ,0.95945 ,2.99540 ,29.39086 
141 ,26.7200 ,0.96129 ,2.97144 ,29.15581 
142 ,26.8959 ,0.96307 ,2.95776 ,29.02150 
143 ,27.0721 ,0.96479 ,2.95433 ,28.98792 
144 ,27.2479 ,0.96656 ,2.93722 ,28.82003 
145 ,27.4241 ,0.96836 ,2.90985 ,28.55140 
146 ,27.6164 ,0.97025 ,2.90642 ,28.51782 
147 ,27.7924 ,0.97196 ,2.89958 ,28.45066 
148 ,27.9686 ,0.97376 ,2.86878 ,28.14846 
149 ,28.1609 ,0.97562 ,2.85509 ,28.01415 
150 ,28.3683 ,0.97768 ,2.82087 ,27.67836 
151 ,28.5607 ,0.97962 ,2.80718 ,27.54405 
152 ,28.7529 ,0.98162 ,2.81745 ,27.64479 
153 ,28.9609 ,0.98365 ,2.78665 ,27.34258 
154 ,29.1368 ,0.98547 ,2.77296 ,27.20827 
155 ,29.3292 ,0.98739 ,2.75927 ,27.07395 
156 ,29.5049 ,0.98914 ,2.72847 ,26.77175 
157 ,29.6974 ,0.99109 ,2.70794 ,26.57028 
158 ,29.9214 ,0.99316 ,2.70452 ,26.53670 
159 ,30.0975 ,0.99506 ,2.70109 ,26.50312 
160 ,30.2735 ,0.99676 ,2.69083 ,26.40239 
161 ,30.4497 ,0.99854 ,2.67029 ,26.20092 
162 ,30.6257 ,1.00034 ,2.64634 ,25.96587 
163 ,30.8180 ,1.00219 ,2.62923 ,25.79798 
164 ,31.0098 ,1.00420 ,2.61554 ,25.66367 
165 ,31.1861 ,1.00593 ,2.59158 ,25.42862 
166 ,31.3781 ,1.00783 ,2.57447 ,25.26073 
167 ,31.5698 ,1.00974 ,2.55394 ,25.05926 
168 ,31.7783 ,1.01173 ,2.55394 ,25.05926 
169 ,31.9864 ,1.01385 ,2.53341 ,24.85779 
170 ,32.1945 ,1.01583 ,2.52656 ,24.79063 
171 ,32.4024 ,1.01804 ,2.50261 ,24.55558 
172 ,32.5781 ,1.01984 ,2.48892 ,24.42127 
173 ,32.7541 ,1.02163 ,2.47523 ,24.28696 
174 ,32.9308 ,1.02339 ,2.47523 ,24.28696 
175 ,33.1226 ,1.02524 ,2.42732 ,23.81686 
176 ,33.2989 ,1.02707 ,2.42048 ,23.74970 
177 ,33.4909 ,1.02892 ,2.42390 ,23.78328 
178 ,33.6669 ,1.03073 ,2.40679 ,23.61539 
179 ,33.8266 ,1.03243 ,2.38625 ,23.41392 
180 ,34.0031 ,1.03406 ,2.36914 ,23.24603 
181 ,34.2273 ,1.03616 ,2.35545 ,23.11171 
182 ,34.4354 ,1.03833 ,2.34861 ,23.04456 
183 ,34.6432 ,1.04040 ,2.31781 ,22.74235 
184 ,34.8351 ,1.04240 ,2.31781 ,22.74235 
185 ,35.0277 ,1.04427 ,2.27332 ,22.30584 
186 ,35.2036 ,1.04612 ,2.27674 ,22.33941 
187 ,35.3797 ,1.04782 ,2.25963 ,22.17152 
188 ,35.5878 ,1.04973 ,2.25621 ,22.13794 
189 ,35.7636 ,1.05170 ,2.22883 ,21.86932 
190 ,35.9555 ,1.05361 ,2.21857 ,21.76858 
191 ,36.1319 ,1.05539 ,2.21857 ,21.76858 
192 ,36.3401 ,1.05738 ,2.19803 ,21.56711 
193 ,36.5484 ,1.05944 ,2.15697 ,21.16417 
194 ,36.7403 ,1.06138 ,2.16381 ,21.23133 
195 ,36.9322 ,1.06329 ,2.13986 ,20.99628 
196 ,37.1084 ,1.06512 ,2.14328 ,21.02986 
197 ,37.2843 ,1.06687 ,2.10564 ,20.66050 
198 ,37.4766 ,1.06872 ,2.11248 ,20.72766 
199 ,37.6844 ,1.07082 ,2.08510 ,20.45903 
200 ,37.8767 ,1.07280 ,2.07826 ,20.39187 
201 ,38.0526 ,1.07455 ,2.08510 ,20.45903 
202 ,38.2450 ,1.07649 ,2.05088 ,20.12325 
203 ,38.4368 ,1.07836 ,2.02350 ,19.85462 
204 ,38.6286 ,1.08038 ,2.00297 ,19.65315 
205 ,38.8210 ,1.08218 ,1.99270 ,19.55241 
206 ,39.0293 ,1.08426 ,1.97559 ,19.38452 
207 ,39.2048 ,1.08610 ,1.96533 ,19.28379 
208 ,39.3815 ,1.08788 ,1.94822 ,19.11590 
209 ,39.5734 ,1.08981 ,1.94137 ,19.04874 
210 ,39.7496 ,1.09153 ,1.93795 ,19.01516 
211 ,39.9576 ,1.09359 ,1.90031 ,18.64580 
212 ,40.1496 ,1.09550 ,1.90373 ,18.67938 
213 ,40.3257 ,1.09729 ,1.87977 ,18.44433 
214 ,40.5018 ,1.09903 ,1.85582 ,18.20928 
215 ,40.6938 ,1.10088 ,1.87977 ,18.44433 
216 ,40.8860 ,1.10280 ,1.83186 ,17.97423 
217 ,41.0940 ,1.10491 ,1.83871 ,18.04139 
218 ,41.2701 ,1.10680 ,1.81133 ,17.77276 
219 ,41.4463 ,1.10850 ,1.79764 ,17.63845 
220 ,41.6379 ,1.11042 ,1.77711 ,17.43698 
221 ,41.8144 ,1.11220 ,1.78737 ,17.53772 
222 ,42.0065 ,1.11398 ,1.76342 ,17.30267 
223 ,42.1824 ,1.11586 ,1.73946 ,17.06762 
224 ,42.3745 ,1.11770 ,1.74289 ,17.10120 
225 ,42.5826 ,1.11980 ,1.70524 ,16.73184 
226 ,42.7907 ,1.12190 ,1.70182 ,16.69826 
227 ,42.9828 ,1.12376 ,1.68813 ,16.56395 
228 ,43.1749 ,1.12579 ,1.68471 ,16.53037 
229 ,43.3829 ,1.12778 ,1.65733 ,16.26174 
230 ,43.5590 ,1.12955 ,1.63680 ,16.06027 
231 ,43.7512 ,1.13154 ,1.64364 ,16.12743 
232 ,43.9432 ,1.13338 ,1.61627 ,15.85880 
233 ,44.1353 ,1.13535 ,1.60258 ,15.72449 
234 ,44.3272 ,1.13721 ,1.58204 ,15.52302 
235 ,44.5197 ,1.13918 ,1.59573 ,15.65733 
236 ,44.7432 ,1.14143 ,1.55467 ,15.25439 
237 ,44.9356 ,1.14335 ,1.55467 ,15.25439 
238 ,45.1276 ,1.14529 ,1.53413 ,15.05292 
239 ,45.3038 ,1.14710 ,1.51360 ,14.85145 
240 ,45.4957 ,1.14892 ,1.51018 ,14.81787 
241 ,45.6714 ,1.15068 ,1.49307 ,14.64998 
242 ,45.8478 ,1.15252 ,1.48622 ,14.58283 
243 ,46.0240 ,1.15428 ,1.45885 ,14.31420 
244 ,46.2160 ,1.15619 ,1.46569 ,14.38136 
245 ,46.3921 ,1.15791 ,1.45542 ,14.28062 
246 ,46.5842 ,1.15988 ,1.42805 ,14.01199 
247 ,46.7599 ,1.16161 ,1.41778 ,13.91126 
248 ,46.9520 ,1.16344 ,1.41436 ,13.87768 
249 ,47.1285 ,1.16529 ,1.38014 ,13.54190 
250 ,47.3364 ,1.16725 ,1.38356 ,13.57548 
251 ,47.5287 ,1.16930 ,1.35618 ,13.30685 
252 ,47.7204 ,1.17126 ,1.35618 ,13.30685 
253 ,47.8968 ,1.17297 ,1.34591 ,13.20612 
254 ,48.0728 ,1.17475 ,1.34249 ,13.17254 
255 ,48.2649 ,1.17657 ,1.29800 ,12.73602 
256 ,48.4569 ,1.17858 ,1.30143 ,12.76960 
257 ,48.6330 ,1.18031 ,1.28774 ,12.63528 
258 ,48.8249 ,1.18228 ,1.26378 ,12.40024 
259 ,49.0009 ,1.18409 ,1.26378 ,12.40024 
260 ,49.1773 ,1.18581 ,1.25694 ,12.33308 
261 ,49.3692 ,1.18766 ,1.23298 ,12.09803 
262 ,49.5455 ,1.18947 ,1.20903 ,11.86298 
263 ,49.7374 ,1.19136 ,1.22614 ,12.03088 
264 ,49.9132 ,1.19324 ,1.19192 ,11.69509 
265 ,50.1054 ,1.19501 ,1.17138 ,11.49362 
266 ,50.3458 ,1.19729 ,1.14743 ,11.25857 
267 ,50.5536 ,1.19947 ,1.15085 ,11.29215 
268 ,50.7617 ,1.20154 ,1.13032 ,11.09068 
269 ,50.9541 ,1.20350 ,1.12347 ,11.02353 
270 ,51.1296 ,1.20534 ,1.10636 ,10.85563 
271 ,51.3221 ,1.20710 ,1.09267 ,10.72132 
272 ,51.4983 ,1.20897 ,1.09267 ,10.72132 
273 ,51.6903 ,1.21086 ,1.05845 ,10.38554 
274 ,51.8664 ,1.21267 ,1.04476 ,10.25123 
275 ,52.0424 ,1.21441 ,1.04134 ,10.21765 
276 ,52.2346 ,1.21637 ,1.05503 ,10.35196 
277 ,52.4267 ,1.21824 ,1.01396 ,9.94902 
278 ,52.6189 ,1.22019 ,1.01054 ,9.91544 
279 ,52.8266 ,1.22206 ,0.98659 ,9.68039 
280 ,53.0349 ,1.22424 ,0.98317 ,9.64682 
281 ,53.2266 ,1.22620 ,0.96948 ,9.51250 
282 ,53.4194 ,1.22812 ,0.96605 ,9.47892 
283 ,53.6271 ,1.23024 ,0.93868 ,9.21030 
284 ,53.8032 ,1.23197 ,0.93525 ,9.17672 
285 ,53.9954 ,1.23394 ,0.94210 ,9.24388 
286 ,54.1712 ,1.23567 ,0.90788 ,8.90809 
287 ,54.3469 ,1.23757 ,0.90103 ,8.84094 
288 ,54.5235 ,1.23924 ,0.87366 ,8.57231 
289 ,54.7156 ,1.24115 ,0.87366 ,8.57231 
290 ,54.8913 ,1.24289 ,0.86339 ,8.47158 
291 ,55.0674 ,1.24461 ,0.84286 ,8.27011 
292 ,55.2274 ,1.24637 ,0.83601 ,8.20295 
293 ,55.4035 ,1.24803 ,0.82232 ,8.06864 
294 ,55.5960 ,1.24990 ,0.82575 ,8.10221 
295 ,55.8040 ,1.25197 ,0.80521 ,7.90074 
296 ,56.0120 ,1.25407 ,0.79152 ,7.76643 
297 ,56.1882 ,1.25583 ,0.76415 ,7.49780 
298 ,56.3641 ,1.25762 ,0.75730 ,7.43065 
299 ,56.5404 ,1.25946 ,0.76415 ,7.49780 
300 ,56.7325 ,1.26130 ,0.72992 ,7.16202 
301 ,56.9245 ,1.26323 ,0.72650 ,7.12844 
302 ,57.1168 ,1.26514 ,0.73335 ,7.19560 
303 ,57.3087 ,1.26702 ,0.70597 ,6.92697 
304 ,57.5168 ,1.26905 ,0.70939 ,6.96055 
305 ,57.6929 ,1.27092 ,0.69570 ,6.82624 
306 ,57.9010 ,1.27290 ,0.66490 ,6.52403 
307 ,58.0930 ,1.27482 ,0.65121 ,6.38972 
308 ,58.3009 ,1.27691 ,0.65464 ,6.42330 
309 ,58.4931 ,1.27883 ,0.62726 ,6.15467 
310 ,58.6689 ,1.28064 ,0.61699 ,6.05394 
311 ,58.8613 ,1.28255 ,0.62384 ,6.12109 
312 ,59.0693 ,1.28459 ,0.59646 ,5.85247 
313 ,59.2455 ,1.28638 ,0.56224 ,5.51668 
314 ,59.4375 ,1.28835 ,0.58962 ,5.78531 
315 ,59.5976 ,1.29008 ,0.57935 ,5.68458 
316 ,59.7572 ,1.29166 ,0.55882 ,5.48311 
317 ,59.9337 ,1.29330 ,0.54855 ,5.38237 
318 ,60.1259 ,1.29513 ,0.53486 ,5.24806 
319 ,60.3019 ,1.29702 ,0.52802 ,5.18090 
320 ,60.5101 ,1.29897 ,0.51433 ,5.04659 
321 ,60.6858 ,1.30085 ,0.50406 ,4.94585 
322 ,60.8781 ,1.30272 ,0.48695 ,4.77796 
323 ,61.0542 ,1.30445 ,0.49380 ,4.84512 
324 ,61.2301 ,1.30626 ,0.46300 ,4.54291 
325 ,61.4227 ,1.30817 ,0.46642 ,4.57649 
326 ,61.6140 ,1.31002 ,0.44931 ,4.40860 
327 ,61.7905 ,1.31180 ,0.42535 ,4.17355 
328 ,61.9664 ,1.31359 ,0.42193 ,4.13997 
329 ,62.1588 ,1.31550 ,0.42193 ,4.13997 
330 ,62.3505 ,1.31738 ,0.40140 ,3.93850 
331 ,62.5429 ,1.31934 ,0.40482 ,3.97208 
332 ,62.7348 ,1.32125 ,0.38429 ,3.77061 
333 ,62.9109 ,1.32304 ,0.38086 ,3.73703 
334 ,63.0871 ,1.32480 ,0.36375 ,3.56914 
335 ,63.2792 ,1.32673 ,0.37060 ,3.63630 
336 ,63.4713 ,1.32861 ,0.34322 ,3.36767 
337 ,63.6634 ,1.33053 ,0.33638 ,3.30052 
338 ,63.8395 ,1.33237 ,0.33295 ,3.26694 
339 ,64.0313 ,1.33425 ,0.30558 ,2.99831 
340 ,64.2237 ,1.33611 ,0.29873 ,2.93116 
341 ,64.4316 ,1.33824 ,0.29189 ,2.86400 
342 ,64.6239 ,1.34009 ,0.28847 ,2.83042 
343 ,64.8318 ,1.34219 ,0.25767 ,2.52822 
344 ,65.0079 ,1.34403 ,0.25082 ,2.46106 
345 ,65.1999 ,1.34589 ,0.24055 ,2.36032 
346 ,65.3761 ,1.34770 ,0.24740 ,2.42748 
347 ,65.5837 ,1.34968 ,0.22344 ,2.19243 
348 ,65.7598 ,1.35152 ,0.21660 ,2.12528 
349 ,65.9363 ,1.35330 ,0.20976 ,2.05812 
350 ,66.1284 ,1.35522 ,0.17211 ,1.68876 
351 ,66.3207 ,1.35707 ,0.19607 ,1.92381 
352 ,66.5286 ,1.35921 ,0.16869 ,1.65518 
353 ,66.7206 ,1.36112 ,0.17211 ,1.68876 
354 ,66.8967 ,1.36289 ,0.17896 ,1.75592 
355 ,67.0726 ,1.36462 ,0.14131 ,1.38655 
356 ,67.2486 ,1.36647 ,0.12762 ,1.25224 
357 ,67.4409 ,1.36828 ,0.12078 ,1.18508 
358 ,67.6490 ,1.37038 ,0.08998 ,0.88288 
359 ,67.8251 ,1.37217 ,0.10367 ,1.01719 
360 ,68.0008 ,1.37392 ,0.10709 ,1.05077 
361 ,68.1769 ,1.37570 ,0.07629 ,0.74857 
362 ,68.3688 ,1.37752 ,0.05918 ,0.58067 
363 ,68.5454 ,1.37943 ,0.05918 ,0.58067 
364 ,68.7855 ,1.38162 ,0.04549 ,0.44636 
365 ,68.9777 ,1.38363 ,0.05234 ,0.51352 
366 ,69.1696 ,1.38555 ,0.03180 ,0.31205 
367 ,69.3457 ,1.38737 ,0.01469 ,0.14416 
368 ,69.5378 ,1.38925 ,0.01127 ,0.11058 
369 ,69.7298 ,1.39116 ,-0.00926 ,-0.09089 
370 ,69.9222 ,1.39309 ,-0.00242 ,-0.02373 
371 ,70.1139 ,1.39506 ,-0.02637 ,-0.25878 
372 ,70.3061 ,1.39688 ,-0.01269 ,-0.12447 
373 ,70.4820 ,1.39871 ,-0.04691 ,-0.46025 
374 ,70.6744 ,1.40058 ,-0.05717 ,-0.56099 
375 ,70.8661 ,1.40250 ,-0.05717 ,-0.56099 
376 ,71.0583 ,1.40447 ,-0.07428 ,-0.72888 
377 ,71.2343 ,1.40625 ,-0.09482 ,-0.93035 
378 ,71.4265 ,1.40816 ,-0.09824 ,-0.96393 
379 ,71.6022 ,1.40994 ,-0.09482 ,-0.93035 
380 ,71.7948 ,1.41177 ,-0.12562 ,-1.23255 
381 ,71.9868 ,1.41377 ,-0.12904 ,-1.26613 
382 ,72.1789 ,1.41559 ,-0.13246 ,-1.29971 
383 ,72.3708 ,1.41756 ,-0.14615 ,-1.43402 
384 ,72.5628 ,1.41951 ,-0.14273 ,-1.40045 
385 ,72.7391 ,1.42128 ,-0.15642 ,-1.53476 
386 ,72.9153 ,1.42307 ,-0.15984 ,-1.56834 
387 ,73.0911 ,1.42479 ,-0.18722 ,-1.83696 
388 ,73.2673 ,1.42655 ,-0.18722 ,-1.83696 
389 ,73.4434 ,1.42832 ,-0.18379 ,-1.80338 
390 ,73.6510 ,1.43031 ,-0.21117 ,-2.07201 
391 ,73.8276 ,1.43215 ,-0.21459 ,-2.10559 
392 ,74.0199 ,1.43407 ,-0.21117 ,-2.07201 
393 ,74.2118 ,1.43603 ,-0.24539 ,-2.40779 
394 ,74.4034 ,1.43785 ,-0.23170 ,-2.27348 
395 ,74.6114 ,1.43988 ,-0.25224 ,-2.47495 
396 ,74.7875 ,1.44183 ,-0.25566 ,-2.50853 
397 ,74.9799 ,1.44369 ,-0.26593 ,-2.60926 
398 ,75.2041 ,1.44581 ,-0.28646 ,-2.81073 
399 ,75.3803 ,1.44772 ,-0.28988 ,-2.84431 
400 ,75.5723 ,1.44960 ,-0.31041 ,-3.04578 
401 ,75.7643 ,1.45152 ,-0.29330 ,-2.87789 
402 ,75.9400 ,1.45326 ,-0.31384 ,-3.07936 
403 ,76.1166 ,1.45506 ,-0.32068 ,-3.14652 
404 ,76.3087 ,1.45694 ,-0.33779 ,-3.31441 
405 ,76.5008 ,1.45885 ,-0.33095 ,-3.24725 
406 ,76.6927 ,1.46073 ,-0.36517 ,-3.58303 
407 ,76.8689 ,1.46258 ,-0.36859 ,-3.61661 
408 ,77.0606 ,1.46452 ,-0.36859 ,-3.61661 
409 ,77.2530 ,1.46635 ,-0.40281 ,-3.95240 
410 ,77.4450 ,1.46830 ,-0.37886 ,-3.71735 
411 ,77.6372 ,1.47028 ,-0.39255 ,-3.85166 
412 ,77.8131 ,1.47203 ,-0.41650 ,-4.08671 
413 ,77.9894 ,1.47378 ,-0.44046 ,-4.32176 
414 ,78.1651 ,1.47563 ,-0.41992 ,-4.12029 
415 ,78.3575 ,1.47741 ,-0.43361 ,-4.25460 
416 ,78.5495 ,1.47933 ,-0.45414 ,-4.45607 
417 ,78.7255 ,1.48114 ,-0.45757 ,-4.48965 
418 ,78.9013 ,1.48289 ,-0.44388 ,-4.35534 
419 ,79.0776 ,1.48468 ,-0.46441 ,-4.55681 
420 ,79.2698 ,1.48656 ,-0.48494 ,-4.75828 
421 ,79.4619 ,1.48847 ,-0.48494 ,-4.75828 
422 ,79.6379 ,1.49025 ,-0.50548 ,-4.95975 
423 ,79.8142 ,1.49204 ,-0.50890 ,-4.99332 
424 ,79.9902 ,1.49376 ,-0.53285 ,-5.22837 
425 ,80.1818 ,1.49564 ,-0.52943 ,-5.19479 
426 ,80.3583 ,1.49746 ,-0.52601 ,-5.16121 
427 ,80.5504 ,1.49942 ,-0.56023 ,-5.49700 
428 ,80.7265 ,1.50117 ,-0.55681 ,-5.46342 
429 ,80.9185 ,1.50302 ,-0.56708 ,-5.56415 
430 ,81.1108 ,1.50500 ,-0.57392 ,-5.63131 
431 ,81.3183 ,1.50701 ,-0.57050 ,-5.59773 
432 ,81.5106 ,1.50893 ,-0.60130 ,-5.89994 
433 ,81.6866 ,1.51073 ,-0.60814 ,-5.96709 
434 ,81.8789 ,1.51259 ,-0.60472 ,-5.93352 
435 ,82.0706 ,1.51456 ,-0.62525 ,-6.13499 
436 ,82.2469 ,1.51631 ,-0.62183 ,-6.10141 
437 ,82.4390 ,1.51825 ,-0.63210 ,-6.20214 
438 ,82.6154 ,1.52004 ,-0.63894 ,-6.26930 
439 ,82.7911 ,1.52178 ,-0.65947 ,-6.47077 
440 ,82.9674 ,1.52355 ,-0.66632 ,-6.53793 
441 ,83.1591 ,1.52554 ,-0.67659 ,-6.63866 
442 ,83.3356 ,1.52717 ,-0.69370 ,-6.80655 
443 ,83.5276 ,1.52911 ,-0.68685 ,-6.73940 
444 ,83.6875 ,1.53084 ,-0.69712 ,-6.84013 
445 ,83.8958 ,1.53269 ,-0.69370 ,-6.80655 
446 ,84.0717 ,1.53463 ,-0.71765 ,-7.04160 
447 ,84.2478 ,1.53632 ,-0.72450 ,-7.10876 
448 ,84.4239 ,1.53807 ,-0.71423 ,-7.00802 
449 ,84.6000 ,1.53984 ,-0.71765 ,-7.04160 
450 ,84.7758 ,1.54163 ,-0.73818 ,-7.24307 
451 ,84.9681 ,1.54345 ,-0.75872 ,-7.44454 
452 ,85.1598 ,1.54545 ,-0.73818 ,-7.24307 
453 ,85.3363 ,1.54724 ,-0.76898 ,-7.54527 
454 ,85.5123 ,1.54902 ,-0.78267 ,-7.67959 
455 ,85.7207 ,1.55099 ,-0.77241 ,-7.57885 
456 ,85.9285 ,1.55313 ,-0.79978 ,-7.84748 
457 ,86.1209 ,1.55507 ,-0.79636 ,-7.81390 
458 ,86.3125 ,1.55696 ,-0.83401 ,-8.18326 
459 ,86.5048 ,1.55894 ,-0.81689 ,-8.01537 
460 ,86.6964 ,1.56079 ,-0.82032 ,-8.04895 
461 ,86.8889 ,1.56270 ,-0.83743 ,-8.21684 
462 ,87.0808 ,1.56469 ,-0.83401 ,-8.18326 
463 ,87.2569 ,1.56642 ,-0.84427 ,-8.28400 
