Data stamp = , 24-04-2022 02:40:19 368

Calibration Values: 
Slope = , 26.54 , g/V 
Offset Voltage at no contact = , -0.501760 , V 

No , Time , Stage Position ,   Mass , Force 
   ,  (s) ,      (mm)      ,   (g)  , (mN)  

1 ,0.0000 ,0.69934 ,5.29167 ,51.92190 
2 ,0.2302 ,0.69945 ,5.27798 ,51.78758 
3 ,0.6144 ,0.70053 ,5.28825 ,51.88832 
4 ,0.8225 ,0.70243 ,5.28825 ,51.88832 
5 ,1.0142 ,0.70416 ,5.26772 ,51.68685 
6 ,1.1907 ,0.70598 ,5.27456 ,51.75401 
7 ,1.3667 ,0.70769 ,5.28825 ,51.88832 
8 ,1.5589 ,0.70955 ,5.27456 ,51.75401 
9 ,1.7509 ,0.71156 ,5.27114 ,51.72043 
10 ,1.9431 ,0.71346 ,5.27114 ,51.72043 
11 ,2.1510 ,0.71551 ,5.26430 ,51.65327 
12 ,2.3272 ,0.71738 ,5.24034 ,51.41822 
13 ,2.5192 ,0.71920 ,5.19927 ,51.01528 
14 ,2.6955 ,0.72101 ,5.19927 ,51.01528 
15 ,2.9032 ,0.72304 ,5.19927 ,51.01528 
16 ,3.0789 ,0.72492 ,5.16505 ,50.67950 
17 ,3.2556 ,0.72662 ,5.14794 ,50.51161 
18 ,3.4476 ,0.72854 ,5.15136 ,50.54519 
19 ,3.6236 ,0.73025 ,5.13425 ,50.37729 
20 ,3.7999 ,0.73206 ,5.10345 ,50.07509 
21 ,3.9922 ,0.73391 ,5.10688 ,50.10867 
22 ,4.1997 ,0.73601 ,5.06581 ,49.70573 
23 ,4.3918 ,0.73795 ,5.05212 ,49.57142 
24 ,4.6000 ,0.74003 ,5.02474 ,49.30279 
25 ,4.7922 ,0.74193 ,5.01448 ,49.20205 
26 ,5.0002 ,0.74405 ,5.00079 ,49.06774 
27 ,5.1921 ,0.74599 ,4.96999 ,48.76554 
28 ,5.3682 ,0.74773 ,4.94946 ,48.56407 
29 ,5.5443 ,0.74946 ,4.94946 ,48.56407 
30 ,5.7205 ,0.75128 ,4.91181 ,48.19471 
31 ,5.8964 ,0.75302 ,4.90155 ,48.09397 
32 ,6.0885 ,0.75500 ,4.89128 ,47.99324 
33 ,6.2807 ,0.75682 ,4.84337 ,47.52314 
34 ,6.4567 ,0.75861 ,4.85021 ,47.59030 
35 ,6.6330 ,0.76036 ,4.81941 ,47.28809 
36 ,6.8248 ,0.76232 ,4.82284 ,47.32167 
37 ,7.0011 ,0.76405 ,4.79546 ,47.05304 
38 ,7.2090 ,0.76609 ,4.79888 ,47.08662 
39 ,7.3851 ,0.76790 ,4.76124 ,46.71726 
40 ,7.5610 ,0.76963 ,4.75097 ,46.61653 
41 ,7.7374 ,0.77146 ,4.70990 ,46.21359 
42 ,7.9453 ,0.77344 ,4.69622 ,46.07927 
43 ,8.1376 ,0.77543 ,4.67568 ,45.87780 
44 ,8.3293 ,0.77734 ,4.67226 ,45.84422 
45 ,8.5213 ,0.77924 ,4.64146 ,45.54202 
46 ,8.7135 ,0.78113 ,4.62777 ,45.40771 
47 ,8.9374 ,0.78336 ,4.61066 ,45.23981 
48 ,9.1137 ,0.78519 ,4.58671 ,45.00477 
49 ,9.3217 ,0.78721 ,4.57644 ,44.90403 
50 ,9.4981 ,0.78898 ,4.54564 ,44.60183 
51 ,9.6740 ,0.79081 ,4.53537 ,44.50109 
52 ,9.8499 ,0.79253 ,4.52511 ,44.40036 
53 ,10.0263 ,0.79431 ,4.51484 ,44.29962 
54 ,10.2183 ,0.79616 ,4.48062 ,43.96384 
55 ,10.3943 ,0.79798 ,4.45324 ,43.69521 
56 ,10.5706 ,0.79975 ,4.45324 ,43.69521 
57 ,10.7786 ,0.80183 ,4.42929 ,43.46016 
58 ,10.9867 ,0.80386 ,4.42586 ,43.42659 
59 ,11.1625 ,0.80565 ,4.40875 ,43.25870 
60 ,11.3543 ,0.80753 ,4.38480 ,43.02365 
61 ,11.5309 ,0.80932 ,4.36769 ,42.85576 
62 ,11.7227 ,0.81126 ,4.34373 ,42.62071 
63 ,11.9147 ,0.81310 ,4.32320 ,42.41924 
64 ,12.1230 ,0.81531 ,4.33004 ,42.48639 
65 ,12.2991 ,0.81706 ,4.28898 ,42.08345 
66 ,12.4751 ,0.81878 ,4.25818 ,41.78125 
67 ,12.6513 ,0.82053 ,4.26160 ,41.81483 
68 ,12.8429 ,0.82237 ,4.25133 ,41.71409 
69 ,13.0195 ,0.82423 ,4.22396 ,41.44547 
70 ,13.2116 ,0.82613 ,4.20342 ,41.24400 
71 ,13.4357 ,0.82827 ,4.16236 ,40.84106 
72 ,13.6436 ,0.83037 ,4.16920 ,40.90821 
73 ,13.8198 ,0.83222 ,4.13498 ,40.57243 
74 ,13.9960 ,0.83396 ,4.12471 ,40.47170 
75 ,14.2038 ,0.83597 ,4.12129 ,40.43812 
76 ,14.3799 ,0.83786 ,4.09049 ,40.13591 
77 ,14.5561 ,0.83963 ,4.06996 ,39.93444 
78 ,14.7321 ,0.84135 ,4.05969 ,39.83371 
79 ,14.9401 ,0.84339 ,4.03574 ,39.59866 
80 ,15.1162 ,0.84519 ,4.01178 ,39.36361 
81 ,15.2921 ,0.84693 ,4.00836 ,39.33003 
82 ,15.4845 ,0.84878 ,3.98098 ,39.06141 
83 ,15.6923 ,0.85086 ,3.97072 ,38.96067 
84 ,15.8845 ,0.85289 ,3.96387 ,38.89352 
85 ,16.0761 ,0.85480 ,3.94334 ,38.69205 
86 ,16.2526 ,0.85655 ,3.91254 ,38.38984 
87 ,16.4607 ,0.85856 ,3.90570 ,38.32268 
88 ,16.6689 ,0.86066 ,3.89201 ,38.18837 
89 ,16.8608 ,0.86258 ,3.86805 ,37.95332 
90 ,17.0370 ,0.86437 ,3.83725 ,37.65112 
91 ,17.2129 ,0.86612 ,3.83725 ,37.65112 
92 ,17.3892 ,0.86799 ,3.83041 ,37.58396 
93 ,17.5652 ,0.86968 ,3.80645 ,37.34891 
94 ,17.7413 ,0.87141 ,3.76881 ,36.97955 
95 ,17.9183 ,0.87319 ,3.77223 ,37.01313 
96 ,18.1091 ,0.87512 ,3.74828 ,36.77808 
97 ,18.2856 ,0.87689 ,3.74485 ,36.74450 
98 ,18.4777 ,0.87883 ,3.71405 ,36.44230 
99 ,18.6697 ,0.88070 ,3.70037 ,36.30799 
100 ,18.8618 ,0.88259 ,3.68668 ,36.17367 
101 ,19.0538 ,0.88444 ,3.65930 ,35.90505 
102 ,19.2297 ,0.88631 ,3.65246 ,35.83789 
103 ,19.4220 ,0.88819 ,3.63192 ,35.63642 
104 ,19.6301 ,0.89029 ,3.61481 ,35.46853 
105 ,19.8220 ,0.89214 ,3.58401 ,35.16632 
106 ,19.9984 ,0.89396 ,3.56690 ,34.99843 
107 ,20.1902 ,0.89595 ,3.55663 ,34.89770 
108 ,20.3985 ,0.89790 ,3.52926 ,34.62907 
109 ,20.5744 ,0.89969 ,3.51557 ,34.49476 
110 ,20.7506 ,0.90153 ,3.50530 ,34.39402 
111 ,20.9422 ,0.90335 ,3.48819 ,34.22613 
112 ,21.1188 ,0.90519 ,3.46766 ,34.02466 
113 ,21.3267 ,0.90723 ,3.46766 ,34.02466 
114 ,21.5190 ,0.90919 ,3.43686 ,33.72246 
115 ,21.7109 ,0.91118 ,3.43001 ,33.65530 
116 ,21.8873 ,0.91287 ,3.40948 ,33.45383 
117 ,22.0630 ,0.91465 ,3.39921 ,33.35310 
118 ,22.2389 ,0.91641 ,3.36499 ,33.01731 
119 ,22.4470 ,0.91839 ,3.35815 ,32.95016 
120 ,22.6392 ,0.92039 ,3.34104 ,32.78227 
121 ,22.8474 ,0.92237 ,3.34104 ,32.78227 
122 ,23.0394 ,0.92429 ,3.29997 ,32.37933 
123 ,23.2156 ,0.92617 ,3.26917 ,32.07712 
124 ,23.4073 ,0.92803 ,3.27602 ,32.14428 
125 ,23.5832 ,0.92983 ,3.25891 ,31.97639 
126 ,23.7592 ,0.93157 ,3.22811 ,31.67418 
127 ,23.9194 ,0.93327 ,3.21442 ,31.53987 
128 ,24.0795 ,0.93489 ,3.19731 ,31.37198 
129 ,24.2395 ,0.93649 ,3.18704 ,31.27124 
130 ,24.3998 ,0.93808 ,3.16651 ,31.06977 
131 ,24.5916 ,0.93983 ,3.15282 ,30.93546 
132 ,24.7838 ,0.94176 ,3.16651 ,31.06977 
133 ,24.9758 ,0.94367 ,3.11518 ,30.56610 
134 ,25.1519 ,0.94549 ,3.10491 ,30.46536 
135 ,25.3280 ,0.94731 ,3.10149 ,30.43178 
136 ,25.5040 ,0.94903 ,3.09806 ,30.39821 
137 ,25.7124 ,0.95097 ,3.07411 ,30.16316 
138 ,25.9203 ,0.95311 ,3.05015 ,29.92811 
139 ,26.0964 ,0.95499 ,3.03304 ,29.76022 
140 ,26.2724 ,0.95670 ,3.01593 ,29.59233 
141 ,26.4486 ,0.95852 ,3.00567 ,29.49159 
142 ,26.6248 ,0.96024 ,2.99882 ,29.42444 
143 ,26.8168 ,0.96221 ,2.97144 ,29.15581 
144 ,26.9929 ,0.96388 ,2.95433 ,28.98792 
145 ,27.1853 ,0.96576 ,2.94407 ,28.88718 
146 ,27.3774 ,0.96777 ,2.92696 ,28.71929 
147 ,27.5695 ,0.96965 ,2.90642 ,28.51782 
148 ,27.7615 ,0.97152 ,2.88931 ,28.34993 
149 ,27.9371 ,0.97333 ,2.87562 ,28.21562 
150 ,28.1132 ,0.97513 ,2.84140 ,27.87983 
151 ,28.2897 ,0.97688 ,2.83798 ,27.84625 
152 ,28.4657 ,0.97865 ,2.83798 ,27.84625 
153 ,28.6417 ,0.98035 ,2.82087 ,27.67836 
154 ,28.8180 ,0.98214 ,2.80034 ,27.47689 
155 ,29.0095 ,0.98397 ,2.77638 ,27.24185 
156 ,29.1857 ,0.98589 ,2.77296 ,27.20827 
157 ,29.4100 ,0.98790 ,2.74900 ,26.97322 
158 ,29.5861 ,0.98986 ,2.73874 ,26.87248 
159 ,29.7784 ,0.99168 ,2.71478 ,26.63744 
160 ,29.9701 ,0.99360 ,2.71478 ,26.63744 
161 ,30.1461 ,0.99539 ,2.70794 ,26.57028 
162 ,30.3223 ,0.99716 ,2.68740 ,26.36881 
163 ,30.5146 ,0.99901 ,2.64976 ,25.99945 
164 ,30.7385 ,1.00106 ,2.64976 ,25.99945 
165 ,30.9309 ,1.00328 ,2.62238 ,25.73082 
166 ,31.1225 ,1.00516 ,2.60869 ,25.59651 
167 ,31.2989 ,1.00691 ,2.60185 ,25.52935 
168 ,31.4749 ,1.00876 ,2.56763 ,25.19357 
169 ,31.6830 ,1.01074 ,2.57447 ,25.26073 
170 ,31.8750 ,1.01262 ,2.54710 ,24.99210 
171 ,32.0831 ,1.01477 ,2.53341 ,24.85779 
172 ,32.2749 ,1.01670 ,2.50261 ,24.55558 
173 ,32.4512 ,1.01850 ,2.49918 ,24.52200 
174 ,32.6591 ,1.02046 ,2.47181 ,24.25338 
175 ,32.8354 ,1.02230 ,2.47523 ,24.28696 
176 ,33.0274 ,1.02417 ,2.46154 ,24.15264 
177 ,33.2196 ,1.02610 ,2.45127 ,24.05191 
178 ,33.3957 ,1.02801 ,2.41705 ,23.71612 
179 ,33.5714 ,1.02965 ,2.39310 ,23.48108 
180 ,33.7637 ,1.03153 ,2.41021 ,23.64897 
181 ,33.9559 ,1.03345 ,2.37256 ,23.27961 
182 ,34.1479 ,1.03540 ,2.37256 ,23.27961 
183 ,34.3239 ,1.03714 ,2.36914 ,23.24603 
184 ,34.4839 ,1.03890 ,2.34519 ,23.01098 
185 ,34.6601 ,1.04055 ,2.33492 ,22.91024 
186 ,34.8522 ,1.04244 ,2.30412 ,22.60804 
187 ,35.0443 ,1.04431 ,2.29385 ,22.50731 
188 ,35.2363 ,1.04620 ,2.26990 ,22.27226 
189 ,35.4122 ,1.04807 ,2.25963 ,22.17152 
190 ,35.5886 ,1.04985 ,2.25279 ,22.10437 
191 ,35.7807 ,1.05174 ,2.23910 ,21.97005 
192 ,35.9887 ,1.05377 ,2.20146 ,21.60069 
193 ,36.1647 ,1.05555 ,2.19803 ,21.56711 
194 ,36.3567 ,1.05747 ,2.19461 ,21.53353 
195 ,36.5485 ,1.05944 ,2.15355 ,21.13059 
196 ,36.7251 ,1.06120 ,2.16723 ,21.26491 
197 ,36.9329 ,1.06321 ,2.15012 ,21.09702 
198 ,37.1093 ,1.06505 ,2.13301 ,20.92912 
199 ,37.3012 ,1.06687 ,2.13301 ,20.92912 
200 ,37.4933 ,1.06883 ,2.10906 ,20.69408 
201 ,37.6690 ,1.07062 ,2.08168 ,20.42545 
202 ,37.8776 ,1.07253 ,2.08852 ,20.49261 
203 ,38.0693 ,1.07464 ,2.05773 ,20.19040 
204 ,38.2777 ,1.07667 ,2.04404 ,20.05609 
205 ,38.4695 ,1.07856 ,2.02693 ,19.88820 
206 ,38.6458 ,1.08040 ,2.02008 ,19.82104 
207 ,38.8538 ,1.08244 ,1.99613 ,19.58599 
208 ,39.0618 ,1.08445 ,1.99955 ,19.61957 
209 ,39.2700 ,1.08658 ,1.97217 ,19.35094 
210 ,39.4619 ,1.08852 ,1.97559 ,19.38452 
211 ,39.6542 ,1.09047 ,1.95164 ,19.14948 
212 ,39.8460 ,1.09237 ,1.92426 ,18.88085 
213 ,40.0225 ,1.09411 ,1.91742 ,18.81369 
214 ,40.1984 ,1.09601 ,1.89688 ,18.61222 
215 ,40.3742 ,1.09767 ,1.90031 ,18.64580 
216 ,40.5501 ,1.09939 ,1.87293 ,18.37717 
217 ,40.7262 ,1.10117 ,1.84555 ,18.10855 
218 ,40.8863 ,1.10289 ,1.86266 ,18.27644 
219 ,41.0787 ,1.10467 ,1.84213 ,18.07497 
220 ,41.2868 ,1.10677 ,1.82844 ,17.94066 
221 ,41.4949 ,1.10869 ,1.81475 ,17.80634 
222 ,41.6870 ,1.11075 ,1.78737 ,17.53772 
223 ,41.8790 ,1.11270 ,1.79422 ,17.60487 
224 ,42.0710 ,1.11461 ,1.75657 ,17.23551 
225 ,42.2631 ,1.11659 ,1.74973 ,17.16836 
226 ,42.4552 ,1.11841 ,1.75315 ,17.20193 
227 ,42.6472 ,1.12026 ,1.71209 ,16.79899 
228 ,42.8395 ,1.12227 ,1.72578 ,16.93331 
229 ,43.0311 ,1.12424 ,1.68471 ,16.53037 
230 ,43.2076 ,1.12606 ,1.67102 ,16.39605 
231 ,43.3836 ,1.12774 ,1.65049 ,16.19458 
232 ,43.5758 ,1.12958 ,1.66075 ,16.29532 
233 ,43.7678 ,1.13159 ,1.64022 ,16.09385 
234 ,43.9438 ,1.13332 ,1.61627 ,15.85880 
235 ,44.1195 ,1.13510 ,1.60600 ,15.75807 
236 ,44.2961 ,1.13689 ,1.61627 ,15.85880 
237 ,44.5041 ,1.13888 ,1.58547 ,15.55660 
238 ,44.6962 ,1.14084 ,1.58547 ,15.55660 
239 ,44.8883 ,1.14274 ,1.56151 ,15.32155 
240 ,45.0801 ,1.14468 ,1.55467 ,15.25439 
241 ,45.2562 ,1.14643 ,1.54098 ,15.12008 
242 ,45.4323 ,1.14819 ,1.51702 ,14.88503 
243 ,45.6245 ,1.15007 ,1.49649 ,14.68356 
244 ,45.8166 ,1.15199 ,1.50333 ,14.75072 
245 ,46.0084 ,1.15402 ,1.46569 ,14.38136 
246 ,46.1843 ,1.15574 ,1.45885 ,14.31420 
247 ,46.3608 ,1.15746 ,1.44858 ,14.21346 
248 ,46.5526 ,1.15937 ,1.43489 ,14.07915 
249 ,46.7449 ,1.16125 ,1.41436 ,13.87768 
250 ,46.9208 ,1.16310 ,1.40751 ,13.81053 
251 ,47.0972 ,1.16484 ,1.40751 ,13.81053 
252 ,47.2892 ,1.16673 ,1.38356 ,13.57548 
253 ,47.4811 ,1.16870 ,1.36645 ,13.40759 
254 ,47.6894 ,1.17077 ,1.35618 ,13.30685 
255 ,47.8812 ,1.17268 ,1.32538 ,13.00465 
256 ,48.0573 ,1.17453 ,1.32538 ,13.00465 
257 ,48.2335 ,1.17626 ,1.34249 ,13.17254 
258 ,48.4253 ,1.17816 ,1.29116 ,12.66886 
259 ,48.6178 ,1.17994 ,1.29458 ,12.70244 
260 ,48.8415 ,1.18219 ,1.27405 ,12.50097 
261 ,49.0179 ,1.18410 ,1.28774 ,12.63528 
262 ,49.2095 ,1.18595 ,1.25694 ,12.33308 
263 ,49.3862 ,1.18779 ,1.23298 ,12.09803 
264 ,49.5780 ,1.18957 ,1.23298 ,12.09803 
265 ,49.7541 ,1.19139 ,1.22956 ,12.06445 
266 ,49.9303 ,1.19316 ,1.20903 ,11.86298 
267 ,50.1383 ,1.19523 ,1.21245 ,11.89656 
268 ,50.3145 ,1.19699 ,1.19534 ,11.72867 
269 ,50.5065 ,1.19894 ,1.16112 ,11.39289 
270 ,50.6823 ,1.20075 ,1.16454 ,11.42647 
271 ,50.8742 ,1.20253 ,1.14401 ,11.22500 
272 ,51.0507 ,1.20436 ,1.12690 ,11.05710 
273 ,51.2587 ,1.20642 ,1.12690 ,11.05710 
274 ,51.4669 ,1.20852 ,1.09267 ,10.72132 
275 ,51.6584 ,1.21051 ,1.09610 ,10.75490 
276 ,51.8349 ,1.21228 ,1.08241 ,10.62059 
277 ,52.0110 ,1.21397 ,1.07214 ,10.51985 
278 ,52.1871 ,1.21578 ,1.04819 ,10.28480 
279 ,52.3793 ,1.21761 ,1.05161 ,10.31838 
280 ,52.5714 ,1.21955 ,1.03108 ,10.11691 
281 ,52.7632 ,1.22143 ,1.01739 ,9.98260 
282 ,52.9394 ,1.22325 ,1.00712 ,9.88186 
283 ,53.1316 ,1.22518 ,1.00370 ,9.84829 
284 ,53.3395 ,1.22720 ,0.97974 ,9.61324 
285 ,53.5158 ,1.22904 ,0.96605 ,9.47892 
286 ,53.7078 ,1.23092 ,0.93183 ,9.14314 
287 ,53.8834 ,1.23270 ,0.93525 ,9.17672 
288 ,54.0599 ,1.23452 ,0.93868 ,9.21030 
289 ,54.2358 ,1.23623 ,0.92157 ,9.04241 
290 ,54.4120 ,1.23800 ,0.91472 ,8.97525 
291 ,54.6041 ,1.23984 ,0.88392 ,8.67305 
292 ,54.7961 ,1.24175 ,0.88392 ,8.67305 
293 ,54.9722 ,1.24359 ,0.88050 ,8.63947 
294 ,55.1643 ,1.24551 ,0.85312 ,8.37084 
295 ,55.3404 ,1.24727 ,0.84970 ,8.33726 
296 ,55.5322 ,1.24918 ,0.83943 ,8.23653 
297 ,55.7406 ,1.25114 ,0.80863 ,7.93432 
298 ,55.9323 ,1.25315 ,0.81206 ,7.96790 
299 ,56.1086 ,1.25497 ,0.79837 ,7.83359 
300 ,56.2847 ,1.25665 ,0.78468 ,7.69927 
301 ,56.4608 ,1.25850 ,0.76757 ,7.53138 
302 ,56.6529 ,1.26035 ,0.77099 ,7.56496 
303 ,56.8285 ,1.26220 ,0.75046 ,7.36349 
304 ,57.0206 ,1.26402 ,0.73677 ,7.22918 
305 ,57.2129 ,1.26593 ,0.72650 ,7.12844 
306 ,57.4372 ,1.26819 ,0.71281 ,6.99413 
307 ,57.6294 ,1.27014 ,0.70255 ,6.89340 
308 ,57.8215 ,1.27208 ,0.68201 ,6.69193 
309 ,58.0134 ,1.27390 ,0.70255 ,6.89340 
310 ,58.1896 ,1.27577 ,0.67517 ,6.62477 
311 ,58.3977 ,1.27765 ,0.64437 ,6.32256 
312 ,58.5898 ,1.27976 ,0.65121 ,6.38972 
313 ,58.7819 ,1.28163 ,0.61699 ,6.05394 
314 ,58.9739 ,1.28363 ,0.61357 ,6.02036 
315 ,59.1656 ,1.28542 ,0.60330 ,5.91962 
316 ,59.3581 ,1.28742 ,0.59646 ,5.85247 
317 ,59.5502 ,1.28937 ,0.58619 ,5.75173 
318 ,59.7419 ,1.29121 ,0.56908 ,5.58384 
319 ,59.9503 ,1.29327 ,0.56224 ,5.51668 
320 ,60.1424 ,1.29518 ,0.54171 ,5.31522 
321 ,60.3345 ,1.29721 ,0.54171 ,5.31522 
322 ,60.5265 ,1.29908 ,0.52802 ,5.18090 
323 ,60.7026 ,1.30085 ,0.51091 ,5.01301 
324 ,60.9106 ,1.30285 ,0.50406 ,4.94585 
325 ,61.1027 ,1.30475 ,0.49722 ,4.87870 
326 ,61.2788 ,1.30676 ,0.47668 ,4.67723 
327 ,61.4550 ,1.30836 ,0.46642 ,4.57649 
328 ,61.6470 ,1.31037 ,0.45957 ,4.50934 
329 ,61.8391 ,1.31212 ,0.45273 ,4.44218 
330 ,62.0313 ,1.31410 ,0.45273 ,4.44218 
331 ,62.2232 ,1.31606 ,0.42193 ,4.13997 
332 ,62.4150 ,1.31791 ,0.41509 ,4.07282 
333 ,62.6075 ,1.31986 ,0.41509 ,4.07282 
334 ,62.7991 ,1.32186 ,0.38429 ,3.77061 
335 ,62.9755 ,1.32361 ,0.37744 ,3.70346 
336 ,63.1513 ,1.32534 ,0.38086 ,3.73703 
337 ,63.3598 ,1.32737 ,0.34322 ,3.36767 
338 ,63.5518 ,1.32925 ,0.35349 ,3.46841 
339 ,63.7279 ,1.33113 ,0.34664 ,3.40125 
340 ,63.9197 ,1.33305 ,0.31584 ,3.09905 
341 ,64.1119 ,1.33487 ,0.32269 ,3.16620 
342 ,64.3040 ,1.33678 ,0.29189 ,2.86400 
343 ,64.4962 ,1.33879 ,0.29189 ,2.86400 
344 ,64.6561 ,1.34050 ,0.27820 ,2.72969 
345 ,64.8320 ,1.34213 ,0.28162 ,2.76326 
346 ,65.0084 ,1.34391 ,0.27135 ,2.66253 
347 ,65.2006 ,1.34576 ,0.24055 ,2.36032 
348 ,65.4086 ,1.34779 ,0.25082 ,2.46106 
349 ,65.6006 ,1.34984 ,0.23371 ,2.29317 
350 ,65.7767 ,1.35159 ,0.22002 ,2.15885 
351 ,65.9688 ,1.35349 ,0.21318 ,2.09170 
352 ,66.1448 ,1.35522 ,0.20976 ,2.05812 
353 ,66.3528 ,1.35725 ,0.18580 ,1.82307 
354 ,66.5290 ,1.35914 ,0.18580 ,1.82307 
355 ,66.7207 ,1.36109 ,0.16185 ,1.58802 
356 ,66.9132 ,1.36287 ,0.15500 ,1.52087 
357 ,67.1053 ,1.36475 ,0.15158 ,1.48729 
358 ,67.2808 ,1.36668 ,0.12762 ,1.25224 
359 ,67.4574 ,1.36838 ,0.11736 ,1.15151 
360 ,67.6332 ,1.37015 ,0.11736 ,1.15151 
361 ,67.8251 ,1.37204 ,0.11736 ,1.15151 
362 ,68.0016 ,1.37383 ,0.09682 ,0.95004 
363 ,68.2098 ,1.37586 ,0.09340 ,0.91646 
364 ,68.4022 ,1.37778 ,0.07971 ,0.78214 
365 ,68.5780 ,1.37961 ,0.06945 ,0.68141 
366 ,68.7859 ,1.38157 ,0.06260 ,0.61425 
367 ,68.9621 ,1.38344 ,0.05576 ,0.54710 
368 ,69.1378 ,1.38517 ,0.03865 ,0.37920 
369 ,69.3140 ,1.38697 ,0.01469 ,0.14416 
370 ,69.5064 ,1.38888 ,0.02496 ,0.24489 
371 ,69.6982 ,1.39074 ,0.00443 ,0.04342 
372 ,69.8741 ,1.39255 ,-0.00584 ,-0.05731 
373 ,70.0503 ,1.39437 ,0.01127 ,0.11058 
374 ,70.2421 ,1.39622 ,-0.00584 ,-0.05731 
375 ,70.4346 ,1.39815 ,-0.04006 ,-0.39310 
376 ,70.6107 ,1.40003 ,-0.02637 ,-0.25878 
377 ,70.7869 ,1.40170 ,-0.05033 ,-0.49383 
378 ,70.9788 ,1.40360 ,-0.04348 ,-0.42667 
379 ,71.1548 ,1.40532 ,-0.06060 ,-0.59457 
380 ,71.3470 ,1.40718 ,-0.06744 ,-0.66172 
381 ,71.5391 ,1.40918 ,-0.07428 ,-0.72888 
382 ,71.7152 ,1.41091 ,-0.10166 ,-0.99751 
383 ,71.9232 ,1.41295 ,-0.10166 ,-0.99751 
384 ,72.0991 ,1.41475 ,-0.11193 ,-1.09824 
385 ,72.2751 ,1.41666 ,-0.13246 ,-1.29971 
386 ,72.4675 ,1.41846 ,-0.13931 ,-1.36687 
387 ,72.6436 ,1.42026 ,-0.13246 ,-1.29971 
388 ,72.8353 ,1.42215 ,-0.16668 ,-1.63549 
389 ,73.0118 ,1.42392 ,-0.17353 ,-1.70265 
390 ,73.2034 ,1.42577 ,-0.15642 ,-1.53476 
391 ,73.3799 ,1.42765 ,-0.20090 ,-1.97128 
392 ,73.5717 ,1.42950 ,-0.20433 ,-2.00485 
393 ,73.7800 ,1.43144 ,-0.21802 ,-2.13917 
394 ,73.9719 ,1.43343 ,-0.21802 ,-2.13917 
395 ,74.1641 ,1.43544 ,-0.22144 ,-2.17275 
396 ,74.3398 ,1.43715 ,-0.21117 ,-2.07201 
397 ,74.5321 ,1.43909 ,-0.24539 ,-2.40779 
398 ,74.7405 ,1.44113 ,-0.24539 ,-2.40779 
399 ,74.9485 ,1.44316 ,-0.26593 ,-2.60926 
400 ,75.1566 ,1.44525 ,-0.27619 ,-2.71000 
401 ,75.3483 ,1.44727 ,-0.30357 ,-2.97863 
402 ,75.5246 ,1.44907 ,-0.28646 ,-2.81073 
403 ,75.7326 ,1.45103 ,-0.31041 ,-3.04578 
404 ,75.9249 ,1.45294 ,-0.31726 ,-3.11294 
405 ,76.1169 ,1.45487 ,-0.32068 ,-3.14652 
406 ,76.2931 ,1.45673 ,-0.32752 ,-3.21367 
407 ,76.4847 ,1.45865 ,-0.34464 ,-3.38156 
408 ,76.6772 ,1.46051 ,-0.35148 ,-3.44872 
409 ,76.8853 ,1.46256 ,-0.35148 ,-3.44872 
410 ,77.0771 ,1.46445 ,-0.37544 ,-3.68377 
411 ,77.2852 ,1.46646 ,-0.36859 ,-3.61661 
412 ,77.4774 ,1.46855 ,-0.37201 ,-3.65019 
413 ,77.6537 ,1.47034 ,-0.39939 ,-3.91882 
414 ,77.8295 ,1.47220 ,-0.40281 ,-3.95240 
415 ,78.0212 ,1.47395 ,-0.40281 ,-3.95240 
416 ,78.2299 ,1.47601 ,-0.41650 ,-4.08671 
417 ,78.4219 ,1.47799 ,-0.42335 ,-4.15387 
418 ,78.6135 ,1.47984 ,-0.45414 ,-4.45607 
419 ,78.7901 ,1.48166 ,-0.45757 ,-4.48965 
420 ,78.9982 ,1.48370 ,-0.46783 ,-4.59038 
421 ,79.1742 ,1.48551 ,-0.46099 ,-4.52323 
422 ,79.3500 ,1.48728 ,-0.48152 ,-4.72470 
423 ,79.5583 ,1.48929 ,-0.48152 ,-4.72470 
424 ,79.7179 ,1.49107 ,-0.49179 ,-4.82543 
425 ,79.8945 ,1.49273 ,-0.51574 ,-5.06048 
426 ,80.1026 ,1.49477 ,-0.49863 ,-4.89259 
427 ,80.3107 ,1.49681 ,-0.53628 ,-5.26195 
428 ,80.5026 ,1.49885 ,-0.52943 ,-5.19479 
429 ,80.6786 ,1.50058 ,-0.53285 ,-5.22837 
430 ,80.9028 ,1.50261 ,-0.54654 ,-5.36268 
431 ,81.0788 ,1.50464 ,-0.57050 ,-5.59773 
432 ,81.2550 ,1.50634 ,-0.56365 ,-5.53058 
433 ,81.4311 ,1.50806 ,-0.59788 ,-5.86636 
434 ,81.6072 ,1.50988 ,-0.58419 ,-5.73205 
435 ,81.7832 ,1.51156 ,-0.58761 ,-5.76562 
436 ,81.9593 ,1.51334 ,-0.59788 ,-5.86636 
437 ,82.1352 ,1.51510 ,-0.61499 ,-6.03425 
438 ,82.3276 ,1.51707 ,-0.63210 ,-6.20214 
439 ,82.5357 ,1.51898 ,-0.62525 ,-6.13499 
440 ,82.7278 ,1.52093 ,-0.62868 ,-6.16856 
441 ,82.9195 ,1.52291 ,-0.63552 ,-6.23572 
442 ,83.0959 ,1.52472 ,-0.64921 ,-6.37003 
443 ,83.3039 ,1.52670 ,-0.65947 ,-6.47077 
444 ,83.4797 ,1.52870 ,-0.66974 ,-6.57150 
445 ,83.6561 ,1.53033 ,-0.65947 ,-6.47077 
446 ,83.8481 ,1.53215 ,-0.69712 ,-6.84013 
447 ,84.0238 ,1.53405 ,-0.69027 ,-6.77297 
448 ,84.2483 ,1.53613 ,-0.71423 ,-7.00802 
449 ,84.4404 ,1.53820 ,-0.72450 ,-7.10876 
450 ,84.6164 ,1.53994 ,-0.72792 ,-7.14233 
451 ,84.8085 ,1.54180 ,-0.74161 ,-7.27665 
452 ,84.9846 ,1.54362 ,-0.75530 ,-7.41096 
453 ,85.1766 ,1.54553 ,-0.73476 ,-7.20949 
454 ,85.3688 ,1.54731 ,-0.76214 ,-7.47812 
455 ,85.5608 ,1.54935 ,-0.77583 ,-7.61243 
456 ,85.7365 ,1.55112 ,-0.76556 ,-7.51170 
457 ,85.9129 ,1.55287 ,-0.77925 ,-7.64601 
458 ,86.1051 ,1.55480 ,-0.79978 ,-7.84748 
459 ,86.3129 ,1.55682 ,-0.80663 ,-7.91464 
460 ,86.4891 ,1.55865 ,-0.81005 ,-7.94821 
461 ,86.6652 ,1.56040 ,-0.83401 ,-8.18326 
462 ,86.8573 ,1.56230 ,-0.81005 ,-7.94821 
463 ,87.0332 ,1.56407 ,-0.82716 ,-8.11611 
