Data stamp = , 24-04-2022 00:49:42 246

Calibration Values: 
Slope = , 26.54 , g/V 
Offset Voltage at no contact = , -0.501760 , V 

No , Time , Stage Position ,   Mass , Force 
   ,  (s) ,      (mm)      ,   (g)  , (mN)  

1 ,0.0000 ,0.69951 ,5.30194 ,52.02263 
2 ,0.2178 ,0.69957 ,5.31563 ,52.15694 
3 ,0.6823 ,0.70123 ,5.30878 ,52.08979 
4 ,0.8903 ,0.70313 ,5.30878 ,52.08979 
5 ,1.0827 ,0.70508 ,5.32589 ,52.25768 
6 ,1.2746 ,0.70694 ,5.30878 ,52.08979 
7 ,1.4668 ,0.70877 ,5.32932 ,52.29126 
8 ,1.6748 ,0.71088 ,5.30878 ,52.08979 
9 ,1.8509 ,0.71273 ,5.29167 ,51.92190 
10 ,2.0270 ,0.71452 ,5.27798 ,51.78758 
11 ,2.2191 ,0.71637 ,5.24376 ,51.45180 
12 ,2.4112 ,0.71836 ,5.21639 ,51.18317 
13 ,2.6032 ,0.72025 ,5.21296 ,51.14960 
14 ,2.7951 ,0.72223 ,5.19585 ,50.98170 
15 ,2.9874 ,0.72413 ,5.18216 ,50.84739 
16 ,3.1796 ,0.72594 ,5.17874 ,50.81381 
17 ,3.3716 ,0.72795 ,5.12399 ,50.27656 
18 ,3.5477 ,0.72975 ,5.12056 ,50.24298 
19 ,3.7396 ,0.73162 ,5.09319 ,49.97436 
20 ,3.9319 ,0.73353 ,5.07950 ,49.84004 
21 ,4.1400 ,0.73548 ,5.06581 ,49.70573 
22 ,4.3481 ,0.73773 ,5.05212 ,49.57142 
23 ,4.5401 ,0.73965 ,5.02474 ,49.30279 
24 ,4.7161 ,0.74139 ,5.00421 ,49.10132 
25 ,4.8921 ,0.74316 ,4.97683 ,48.83269 
26 ,5.0681 ,0.74491 ,4.96999 ,48.76554 
27 ,5.2604 ,0.74681 ,4.95630 ,48.63122 
28 ,5.4362 ,0.74857 ,4.93235 ,48.39618 
29 ,5.6126 ,0.75034 ,4.89812 ,48.06039 
30 ,5.8205 ,0.75236 ,4.88444 ,47.92608 
31 ,5.9805 ,0.75418 ,4.87075 ,47.79177 
32 ,6.1566 ,0.75586 ,4.85706 ,47.65745 
33 ,6.3328 ,0.75758 ,4.83310 ,47.42240 
34 ,6.5248 ,0.75942 ,4.82284 ,47.32167 
35 ,6.7170 ,0.76135 ,4.79888 ,47.08662 
36 ,6.9089 ,0.76325 ,4.78177 ,46.91873 
37 ,7.0850 ,0.76509 ,4.77493 ,46.85157 
38 ,7.2612 ,0.76683 ,4.76124 ,46.71726 
39 ,7.4532 ,0.76870 ,4.73728 ,46.48221 
40 ,7.6452 ,0.77058 ,4.71675 ,46.28074 
41 ,7.8213 ,0.77242 ,4.69964 ,46.11285 
42 ,7.9975 ,0.77424 ,4.67226 ,45.84422 
43 ,8.1896 ,0.77609 ,4.65857 ,45.70991 
44 ,8.3975 ,0.77817 ,4.63804 ,45.50844 
45 ,8.5733 ,0.77991 ,4.62093 ,45.34055 
46 ,8.7498 ,0.78173 ,4.59697 ,45.10550 
47 ,8.9418 ,0.78364 ,4.60040 ,45.13908 
48 ,9.1335 ,0.78551 ,4.57986 ,44.93761 
49 ,9.3100 ,0.78733 ,4.54222 ,44.56825 
50 ,9.5022 ,0.78909 ,4.52511 ,44.40036 
51 ,9.6937 ,0.79107 ,4.50457 ,44.19889 
52 ,9.8701 ,0.79293 ,4.48404 ,43.99742 
53 ,10.0460 ,0.79462 ,4.48404 ,43.99742 
54 ,10.2058 ,0.79642 ,4.47035 ,43.86310 
55 ,10.3824 ,0.79804 ,4.45666 ,43.72879 
56 ,10.5906 ,0.79999 ,4.43271 ,43.49374 
57 ,10.7985 ,0.80212 ,4.41560 ,43.32585 
58 ,11.0066 ,0.80422 ,4.40191 ,43.19154 
59 ,11.1826 ,0.80603 ,4.37795 ,42.95649 
60 ,11.3748 ,0.80795 ,4.35400 ,42.72144 
61 ,11.5828 ,0.81002 ,4.35742 ,42.75502 
62 ,11.7911 ,0.81193 ,4.32320 ,42.41924 
63 ,11.9826 ,0.81413 ,4.30267 ,42.21777 
64 ,12.1592 ,0.81582 ,4.29924 ,42.18419 
65 ,12.3349 ,0.81765 ,4.26502 ,41.84841 
66 ,12.5114 ,0.81932 ,4.25476 ,41.74767 
67 ,12.7194 ,0.82138 ,4.25476 ,41.74767 
68 ,12.8956 ,0.82314 ,4.23080 ,41.51262 
69 ,13.0715 ,0.82493 ,4.19658 ,41.17684 
70 ,13.2477 ,0.82671 ,4.16920 ,40.90821 
71 ,13.4394 ,0.82856 ,4.16920 ,40.90821 
72 ,13.6156 ,0.83036 ,4.16236 ,40.84106 
73 ,13.8399 ,0.83241 ,4.12129 ,40.43812 
74 ,14.0320 ,0.83449 ,4.10418 ,40.27023 
75 ,14.2081 ,0.83636 ,4.08707 ,40.10233 
76 ,14.4004 ,0.83811 ,4.09049 ,40.13591 
77 ,14.5761 ,0.83993 ,4.07680 ,40.00160 
78 ,14.7522 ,0.84171 ,4.03232 ,39.56508 
79 ,14.9604 ,0.84365 ,4.02889 ,39.53150 
80 ,15.1524 ,0.84569 ,4.01178 ,39.36361 
81 ,15.3444 ,0.84755 ,3.98783 ,39.12856 
82 ,15.5366 ,0.84955 ,3.98783 ,39.12856 
83 ,15.7287 ,0.85148 ,3.94676 ,38.72562 
84 ,15.9207 ,0.85338 ,3.93992 ,38.65847 
85 ,16.0967 ,0.85518 ,3.91596 ,38.42342 
86 ,16.2886 ,0.85704 ,3.89543 ,38.22195 
87 ,16.4648 ,0.85882 ,3.87147 ,37.98690 
88 ,16.6406 ,0.86061 ,3.86463 ,37.91975 
89 ,16.8172 ,0.86235 ,3.86463 ,37.91975 
90 ,17.0252 ,0.86436 ,3.83383 ,37.61754 
91 ,17.2173 ,0.86633 ,3.82356 ,37.51681 
92 ,17.4254 ,0.86835 ,3.80303 ,37.31534 
93 ,17.6171 ,0.87035 ,3.79276 ,37.21460 
94 ,17.7932 ,0.87210 ,3.75512 ,36.84524 
95 ,17.9692 ,0.87385 ,3.73801 ,36.67735 
96 ,18.1454 ,0.87570 ,3.72774 ,36.57661 
97 ,18.3378 ,0.87752 ,3.71748 ,36.47588 
98 ,18.5296 ,0.87942 ,3.68325 ,36.14010 
99 ,18.7059 ,0.88122 ,3.67641 ,36.07294 
100 ,18.8980 ,0.88309 ,3.66957 ,36.00578 
101 ,19.0900 ,0.88513 ,3.62850 ,35.60284 
102 ,19.2821 ,0.88694 ,3.62508 ,35.56926 
103 ,19.4742 ,0.88892 ,3.61481 ,35.46853 
104 ,19.6663 ,0.89079 ,3.58743 ,35.19990 
105 ,19.8580 ,0.89280 ,3.58059 ,35.13275 
106 ,20.0345 ,0.89453 ,3.55663 ,34.89770 
107 ,20.2426 ,0.89654 ,3.54637 ,34.79696 
108 ,20.4346 ,0.89850 ,3.53268 ,34.66265 
109 ,20.6267 ,0.90038 ,3.49504 ,34.29329 
110 ,20.8027 ,0.90223 ,3.50530 ,34.39402 
111 ,20.9945 ,0.90406 ,3.47108 ,34.05824 
112 ,21.1869 ,0.90599 ,3.45055 ,33.85677 
113 ,21.3630 ,0.90777 ,3.42317 ,33.58814 
114 ,21.5391 ,0.90957 ,3.43001 ,33.65530 
115 ,21.7312 ,0.91145 ,3.40264 ,33.38667 
116 ,21.9234 ,0.91333 ,3.37526 ,33.11805 
117 ,22.1154 ,0.91526 ,3.38210 ,33.18520 
118 ,22.3070 ,0.91724 ,3.34446 ,32.81584 
119 ,22.4832 ,0.91899 ,3.33419 ,32.71511 
120 ,22.6755 ,0.92087 ,3.32735 ,32.64795 
121 ,22.8676 ,0.92285 ,3.30339 ,32.41290 
122 ,23.0435 ,0.92454 ,3.27944 ,32.17786 
123 ,23.2518 ,0.92666 ,3.26233 ,32.00996 
124 ,23.4600 ,0.92873 ,3.26233 ,32.00996 
125 ,23.6519 ,0.93063 ,3.23837 ,31.77492 
126 ,23.8282 ,0.93244 ,3.22811 ,31.67418 
127 ,24.0202 ,0.93434 ,3.20415 ,31.43913 
128 ,24.2118 ,0.93625 ,3.16993 ,31.10335 
129 ,24.3884 ,0.93808 ,3.16993 ,31.10335 
130 ,24.5644 ,0.93982 ,3.15282 ,30.93546 
131 ,24.7559 ,0.94167 ,3.14255 ,30.83472 
132 ,24.9326 ,0.94346 ,3.12202 ,30.63325 
133 ,25.1246 ,0.94543 ,3.09806 ,30.39821 
134 ,25.3001 ,0.94718 ,3.08780 ,30.29747 
135 ,25.4766 ,0.94890 ,3.07753 ,30.19674 
136 ,25.6527 ,0.95068 ,3.08095 ,30.23031 
137 ,25.8446 ,0.95259 ,3.05015 ,29.92811 
138 ,26.0209 ,0.95436 ,3.03647 ,29.79380 
139 ,26.2130 ,0.95629 ,3.02962 ,29.72664 
140 ,26.3887 ,0.95810 ,2.99198 ,29.35728 
141 ,26.5651 ,0.95983 ,2.98855 ,29.32370 
142 ,26.7571 ,0.96168 ,2.97144 ,29.15581 
143 ,26.9333 ,0.96355 ,2.95091 ,28.95434 
144 ,27.1094 ,0.96525 ,2.93722 ,28.82003 
145 ,27.2854 ,0.96700 ,2.90985 ,28.55140 
146 ,27.4612 ,0.96884 ,2.90985 ,28.55140 
147 ,27.6375 ,0.97047 ,2.88931 ,28.34993 
148 ,27.7976 ,0.97225 ,2.87905 ,28.24919 
149 ,27.9737 ,0.97387 ,2.87220 ,28.18204 
150 ,28.1817 ,0.97591 ,2.84482 ,27.91341 
151 ,28.3739 ,0.97787 ,2.83456 ,27.81268 
152 ,28.5499 ,0.97962 ,2.80718 ,27.54405 
153 ,28.7262 ,0.98137 ,2.77980 ,27.27542 
154 ,28.9182 ,0.98333 ,2.77638 ,27.24185 
155 ,29.1104 ,0.98519 ,2.76954 ,27.17469 
156 ,29.3026 ,0.98713 ,2.75243 ,27.00680 
157 ,29.4784 ,0.98894 ,2.74558 ,26.93964 
158 ,29.6544 ,0.99066 ,2.72505 ,26.73817 
159 ,29.8465 ,0.99255 ,2.70109 ,26.50312 
160 ,30.0385 ,0.99445 ,2.69767 ,26.46954 
161 ,30.2307 ,0.99637 ,2.67029 ,26.20092 
162 ,30.4068 ,0.99816 ,2.65318 ,26.03303 
163 ,30.5828 ,0.99997 ,2.63265 ,25.83156 
164 ,30.7750 ,1.00182 ,2.62923 ,25.79798 
165 ,30.9831 ,1.00386 ,2.60527 ,25.56293 
166 ,31.2072 ,1.00615 ,2.58474 ,25.36146 
167 ,31.3993 ,1.00803 ,2.57447 ,25.26073 
168 ,31.5913 ,1.01001 ,2.56421 ,25.15999 
169 ,31.7833 ,1.01191 ,2.54367 ,24.95852 
170 ,31.9754 ,1.01383 ,2.53683 ,24.89136 
171 ,32.1674 ,1.01574 ,2.50261 ,24.55558 
172 ,32.3433 ,1.01755 ,2.49576 ,24.48842 
173 ,32.5196 ,1.01934 ,2.49234 ,24.45485 
174 ,32.7116 ,1.02124 ,2.48207 ,24.35411 
175 ,32.8878 ,1.02304 ,2.46839 ,24.21980 
176 ,33.0799 ,1.02492 ,2.43074 ,23.85044 
177 ,33.2880 ,1.02688 ,2.41363 ,23.68255 
178 ,33.4801 ,1.02890 ,2.39310 ,23.48108 
179 ,33.6721 ,1.03078 ,2.40679 ,23.61539 
180 ,33.8477 ,1.03263 ,2.37599 ,23.31318 
181 ,34.0240 ,1.03437 ,2.35888 ,23.14529 
182 ,34.2323 ,1.03644 ,2.35545 ,23.11171 
183 ,34.4244 ,1.03833 ,2.32808 ,22.84309 
184 ,34.6164 ,1.04030 ,2.31097 ,22.67520 
185 ,34.8085 ,1.04223 ,2.31097 ,22.67520 
186 ,34.9846 ,1.04393 ,2.27332 ,22.30584 
187 ,35.1765 ,1.04588 ,2.26990 ,22.27226 
188 ,35.3688 ,1.04776 ,2.24937 ,22.07079 
189 ,35.5769 ,1.04979 ,2.25279 ,22.10437 
190 ,35.7690 ,1.05174 ,2.21857 ,21.76858 
191 ,35.9606 ,1.05370 ,2.20146 ,21.60069 
192 ,36.1370 ,1.05552 ,2.20146 ,21.60069 
193 ,36.3291 ,1.05735 ,2.18777 ,21.46638 
194 ,36.5052 ,1.05916 ,2.17408 ,21.33206 
195 ,36.7134 ,1.06114 ,2.16039 ,21.19775 
196 ,36.9051 ,1.06308 ,2.12275 ,20.82839 
197 ,37.3695 ,1.06649 ,2.12617 ,20.86197 
198 ,37.5615 ,1.06980 ,2.09537 ,20.55976 
199 ,37.7377 ,1.07151 ,2.07484 ,20.35829 
200 ,37.9298 ,1.07334 ,2.06457 ,20.25756 
201 ,38.1376 ,1.07538 ,2.05430 ,20.15682 
202 ,38.3137 ,1.07722 ,2.02693 ,19.88820 
203 ,38.5220 ,1.07931 ,2.01324 ,19.75388 
204 ,38.6980 ,1.08110 ,1.98586 ,19.48526 
205 ,38.8739 ,1.08285 ,1.99613 ,19.58599 
206 ,39.0662 ,1.08477 ,1.97902 ,19.41810 
207 ,39.2418 ,1.08651 ,1.95506 ,19.18305 
208 ,39.4343 ,1.08839 ,1.93453 ,18.98158 
209 ,39.6265 ,1.09040 ,1.94137 ,19.04874 
210 ,39.8021 ,1.09219 ,1.92426 ,18.88085 
211 ,39.9781 ,1.09387 ,1.90373 ,18.67938 
212 ,40.1704 ,1.09578 ,1.90715 ,18.71296 
213 ,40.3788 ,1.09780 ,1.87635 ,18.41075 
214 ,40.5546 ,1.09964 ,1.85582 ,18.20928 
215 ,40.7467 ,1.10146 ,1.85240 ,18.17570 
216 ,40.9389 ,1.10350 ,1.82844 ,17.94066 
217 ,41.1470 ,1.10544 ,1.83186 ,17.97423 
218 ,41.3230 ,1.10733 ,1.80449 ,17.70561 
219 ,41.5313 ,1.10933 ,1.80791 ,17.73919 
220 ,41.7394 ,1.11133 ,1.78737 ,17.53772 
221 ,41.9313 ,1.11334 ,1.77369 ,17.40340 
222 ,42.1076 ,1.11518 ,1.75315 ,17.20193 
223 ,42.2836 ,1.11694 ,1.74289 ,17.10120 
224 ,42.4752 ,1.11883 ,1.70866 ,16.76542 
225 ,42.6677 ,1.12064 ,1.72578 ,16.93331 
226 ,42.8437 ,1.12246 ,1.70182 ,16.69826 
227 ,43.0355 ,1.12434 ,1.68813 ,16.56395 
228 ,43.2277 ,1.12627 ,1.66760 ,16.36248 
229 ,43.4040 ,1.12816 ,1.65049 ,16.19458 
230 ,43.5796 ,1.12993 ,1.64022 ,16.09385 
231 ,43.7561 ,1.13166 ,1.63680 ,16.06027 
232 ,43.9638 ,1.13366 ,1.61284 ,15.82522 
233 ,44.1403 ,1.13552 ,1.60942 ,15.79164 
234 ,44.3483 ,1.13749 ,1.60600 ,15.75807 
235 ,44.5245 ,1.13931 ,1.57178 ,15.42228 
236 ,44.7326 ,1.14138 ,1.57862 ,15.48944 
237 ,44.9086 ,1.14316 ,1.56493 ,15.35513 
238 ,45.1007 ,1.14506 ,1.53413 ,15.05292 
239 ,45.2768 ,1.14689 ,1.53413 ,15.05292 
240 ,45.4528 ,1.14869 ,1.52045 ,14.91861 
241 ,45.6290 ,1.15038 ,1.52045 ,14.91861 
242 ,45.8048 ,1.15214 ,1.49307 ,14.64998 
243 ,45.9971 ,1.15399 ,1.47938 ,14.51567 
244 ,46.1891 ,1.15591 ,1.46569 ,14.38136 
245 ,46.3812 ,1.15782 ,1.44174 ,14.14631 
246 ,46.6052 ,1.15994 ,1.42462 ,13.97842 
247 ,46.7810 ,1.16188 ,1.41094 ,13.84410 
248 ,46.9575 ,1.16367 ,1.40751 ,13.81053 
249 ,47.1654 ,1.16564 ,1.39040 ,13.64263 
250 ,47.3575 ,1.16756 ,1.38698 ,13.60906 
251 ,47.5336 ,1.16940 ,1.38014 ,13.54190 
252 ,47.7097 ,1.17115 ,1.36987 ,13.44116 
253 ,47.8854 ,1.17291 ,1.35276 ,13.27327 
254 ,48.0620 ,1.17467 ,1.32538 ,13.00465 
255 ,48.2378 ,1.17648 ,1.30485 ,12.80318 
256 ,48.4301 ,1.17823 ,1.32196 ,12.97107 
257 ,48.6219 ,1.18027 ,1.29116 ,12.66886 
258 ,48.8141 ,1.18219 ,1.28089 ,12.56813 
259 ,49.0062 ,1.18406 ,1.27063 ,12.46739 
260 ,49.2144 ,1.18612 ,1.25009 ,12.26592 
261 ,49.4062 ,1.18816 ,1.22272 ,11.99730 
262 ,49.5826 ,1.18988 ,1.22956 ,12.06445 
263 ,49.7746 ,1.19173 ,1.23298 ,12.09803 
264 ,49.9663 ,1.19372 ,1.20903 ,11.86298 
265 ,50.1427 ,1.19549 ,1.19192 ,11.69509 
266 ,50.3509 ,1.19751 ,1.18850 ,11.66151 
267 ,50.5429 ,1.19942 ,1.15427 ,11.32573 
268 ,50.7349 ,1.20142 ,1.15085 ,11.29215 
269 ,50.9110 ,1.20317 ,1.13374 ,11.12426 
270 ,51.0867 ,1.20493 ,1.13716 ,11.15784 
271 ,51.2793 ,1.20680 ,1.10979 ,10.88921 
272 ,51.4714 ,1.20872 ,1.10979 ,10.88921 
273 ,51.6474 ,1.21057 ,1.10636 ,10.85563 
274 ,51.8396 ,1.21238 ,1.06872 ,10.48627 
275 ,52.0310 ,1.21436 ,1.08241 ,10.62059 
276 ,52.2076 ,1.21621 ,1.05503 ,10.35196 
277 ,52.3834 ,1.21788 ,1.05503 ,10.35196 
278 ,52.5918 ,1.21992 ,1.03108 ,10.11691 
279 ,52.7839 ,1.22185 ,1.00370 ,9.84829 
280 ,52.9759 ,1.22376 ,1.00370 ,9.84829 
281 ,53.1519 ,1.22554 ,0.99685 ,9.78113 
282 ,53.3278 ,1.22731 ,0.99001 ,9.71397 
283 ,53.5202 ,1.22927 ,0.94894 ,9.31103 
284 ,53.7122 ,1.23111 ,0.96948 ,9.51250 
285 ,53.9044 ,1.23298 ,0.95579 ,9.37819 
286 ,54.0964 ,1.23496 ,0.93183 ,9.14314 
287 ,54.2721 ,1.23677 ,0.92499 ,9.07598 
288 ,54.4807 ,1.23870 ,0.90103 ,8.84094 
289 ,54.6886 ,1.24090 ,0.90788 ,8.90809 
290 ,54.8808 ,1.24283 ,0.87366 ,8.57231 
291 ,55.0728 ,1.24468 ,0.88392 ,8.67305 
292 ,55.2490 ,1.24653 ,0.87023 ,8.53873 
293 ,55.4408 ,1.24840 ,0.84286 ,8.27011 
294 ,55.6171 ,1.25019 ,0.82232 ,8.06864 
295 ,55.8248 ,1.25222 ,0.82232 ,8.06864 
296 ,56.0014 ,1.25405 ,0.80863 ,7.93432 
297 ,56.2094 ,1.25603 ,0.79152 ,7.76643 
298 ,56.4174 ,1.25805 ,0.77784 ,7.63212 
299 ,56.6095 ,1.26007 ,0.78468 ,7.69927 
300 ,56.8176 ,1.26213 ,0.76072 ,7.46423 
301 ,57.0097 ,1.26407 ,0.75046 ,7.36349 
302 ,57.2015 ,1.26605 ,0.74019 ,7.26276 
303 ,57.3778 ,1.26780 ,0.71966 ,7.06129 
304 ,57.5533 ,1.26962 ,0.71281 ,6.99413 
305 ,57.7458 ,1.27137 ,0.70255 ,6.89340 
306 ,57.9381 ,1.27335 ,0.68201 ,6.69193 
307 ,58.1456 ,1.27548 ,0.67859 ,6.65835 
308 ,58.3382 ,1.27736 ,0.65464 ,6.42330 
309 ,58.5303 ,1.27928 ,0.66148 ,6.49046 
310 ,58.7383 ,1.28131 ,0.63068 ,6.18825 
311 ,58.9305 ,1.28336 ,0.63068 ,6.18825 
312 ,59.1225 ,1.28523 ,0.60330 ,5.91962 
313 ,59.2825 ,1.28696 ,0.59988 ,5.88605 
314 ,59.4585 ,1.28861 ,0.59304 ,5.81889 
315 ,59.6506 ,1.29048 ,0.59304 ,5.81889 
316 ,59.8265 ,1.29233 ,0.59646 ,5.85247 
317 ,60.0189 ,1.29419 ,0.55539 ,5.44953 
318 ,60.2106 ,1.29613 ,0.54855 ,5.38237 
319 ,60.3867 ,1.29795 ,0.55197 ,5.41595 
320 ,60.5791 ,1.29978 ,0.52459 ,5.14732 
321 ,60.7708 ,1.30171 ,0.51775 ,5.08017 
322 ,60.9471 ,1.30346 ,0.52459 ,5.14732 
323 ,61.1233 ,1.30526 ,0.50406 ,4.94585 
324 ,61.2994 ,1.30699 ,0.48695 ,4.77796 
325 ,61.4754 ,1.30875 ,0.45957 ,4.50934 
326 ,61.6675 ,1.31062 ,0.48695 ,4.77796 
327 ,61.8591 ,1.31260 ,0.45273 ,4.44218 
328 ,62.0517 ,1.31445 ,0.44588 ,4.37502 
329 ,62.2280 ,1.31630 ,0.44246 ,4.34144 
330 ,62.4036 ,1.31810 ,0.41166 ,4.03924 
331 ,62.5799 ,1.31980 ,0.40140 ,3.93850 
332 ,62.7559 ,1.32155 ,0.39455 ,3.87135 
333 ,62.9316 ,1.32343 ,0.40482 ,3.97208 
334 ,63.1236 ,1.32518 ,0.38429 ,3.77061 
335 ,63.2999 ,1.32709 ,0.36033 ,3.53557 
336 ,63.4599 ,1.32871 ,0.36033 ,3.53557 
337 ,63.6360 ,1.33037 ,0.33980 ,3.33410 
338 ,63.8121 ,1.33209 ,0.33638 ,3.30052 
339 ,64.0201 ,1.33414 ,0.32611 ,3.19978 
340 ,64.2127 ,1.33607 ,0.33295 ,3.26694 
341 ,64.4047 ,1.33802 ,0.32611 ,3.19978 
342 ,64.5807 ,1.33983 ,0.30215 ,2.96473 
343 ,64.7727 ,1.34172 ,0.28162 ,2.76326 
344 ,64.9648 ,1.34358 ,0.26451 ,2.59537 
345 ,65.1404 ,1.34547 ,0.25082 ,2.46106 
346 ,65.3168 ,1.34720 ,0.25424 ,2.49464 
347 ,65.5087 ,1.34904 ,0.24055 ,2.36032 
348 ,65.7013 ,1.35096 ,0.24055 ,2.36032 
349 ,65.8933 ,1.35298 ,0.23029 ,2.25959 
350 ,66.0694 ,1.35467 ,0.21660 ,2.12528 
351 ,66.2451 ,1.35640 ,0.20633 ,2.02454 
352 ,66.4375 ,1.35838 ,0.18238 ,1.78949 
353 ,66.6296 ,1.36029 ,0.18580 ,1.82307 
354 ,66.8216 ,1.36219 ,0.18238 ,1.78949 
355 ,67.0136 ,1.36407 ,0.15158 ,1.48729 
356 ,67.1897 ,1.36589 ,0.15158 ,1.48729 
357 ,67.3497 ,1.36762 ,0.15158 ,1.48729 
358 ,67.5258 ,1.36923 ,0.13789 ,1.35298 
359 ,67.7019 ,1.37099 ,0.13447 ,1.31940 
360 ,67.8941 ,1.37294 ,0.10025 ,0.98361 
361 ,68.1023 ,1.37496 ,0.09682 ,0.95004 
362 ,68.2782 ,1.37678 ,0.09682 ,0.95004 
363 ,68.4541 ,1.37853 ,0.07971 ,0.78214 
364 ,68.6463 ,1.38035 ,0.08314 ,0.81572 
365 ,68.8224 ,1.38224 ,0.06260 ,0.61425 
366 ,69.0306 ,1.38427 ,0.05918 ,0.58067 
367 ,69.2227 ,1.38616 ,0.04207 ,0.41278 
368 ,69.3984 ,1.38802 ,0.03180 ,0.31205 
369 ,69.5748 ,1.38977 ,0.01469 ,0.14416 
370 ,69.7827 ,1.39166 ,0.01469 ,0.14416 
371 ,69.9749 ,1.39373 ,-0.00926 ,-0.09089 
372 ,70.1670 ,1.39557 ,0.01127 ,0.11058 
373 ,70.3590 ,1.39748 ,-0.02295 ,-0.22520 
374 ,70.5509 ,1.39953 ,-0.01953 ,-0.19163 
375 ,70.7433 ,1.40138 ,-0.02295 ,-0.22520 
376 ,70.9351 ,1.40325 ,-0.06744 ,-0.66172 
377 ,71.1114 ,1.40507 ,-0.07428 ,-0.72888 
378 ,71.3035 ,1.40698 ,-0.05033 ,-0.49383 
379 ,71.4795 ,1.40879 ,-0.06060 ,-0.59457 
380 ,71.6395 ,1.41048 ,-0.08455 ,-0.82961 
381 ,71.8155 ,1.41212 ,-0.10508 ,-1.03108 
382 ,72.0077 ,1.41396 ,-0.11877 ,-1.16540 
383 ,72.1997 ,1.41593 ,-0.12219 ,-1.19898 
384 ,72.3920 ,1.41788 ,-0.12562 ,-1.23255 
385 ,72.5996 ,1.41985 ,-0.13246 ,-1.29971 
386 ,72.7920 ,1.42185 ,-0.15642 ,-1.53476 
387 ,72.9841 ,1.42381 ,-0.15642 ,-1.53476 
388 ,73.1602 ,1.42556 ,-0.16668 ,-1.63549 
389 ,73.3522 ,1.42747 ,-0.18722 ,-1.83696 
390 ,73.5443 ,1.42935 ,-0.18379 ,-1.80338 
391 ,73.7200 ,1.43128 ,-0.19406 ,-1.90412 
392 ,73.8966 ,1.43294 ,-0.20090 ,-1.97128 
393 ,74.0726 ,1.43469 ,-0.22486 ,-2.20632 
394 ,74.2808 ,1.43673 ,-0.22486 ,-2.20632 
395 ,74.4727 ,1.43867 ,-0.24539 ,-2.40779 
396 ,74.6489 ,1.44046 ,-0.24539 ,-2.40779 
397 ,74.8089 ,1.44218 ,-0.24539 ,-2.40779 
398 ,75.0010 ,1.44385 ,-0.25908 ,-2.54211 
399 ,75.2092 ,1.44597 ,-0.27277 ,-2.67642 
400 ,75.4013 ,1.44797 ,-0.27277 ,-2.67642 
401 ,75.6093 ,1.44996 ,-0.30357 ,-2.97863 
402 ,75.8010 ,1.45202 ,-0.30699 ,-3.01220 
403 ,75.9775 ,1.45377 ,-0.30699 ,-3.01220 
404 ,76.1695 ,1.45570 ,-0.31384 ,-3.07936 
405 ,76.3616 ,1.45751 ,-0.30699 ,-3.01220 
406 ,76.5378 ,1.45935 ,-0.33437 ,-3.28083 
407 ,76.7138 ,1.46111 ,-0.34464 ,-3.38156 
408 ,76.9054 ,1.46301 ,-0.36175 ,-3.54946 
409 ,77.0817 ,1.46477 ,-0.34806 ,-3.41514 
410 ,77.2737 ,1.46665 ,-0.38228 ,-3.75093 
411 ,77.4501 ,1.46846 ,-0.39597 ,-3.88524 
412 ,77.6418 ,1.47034 ,-0.37886 ,-3.71735 
413 ,77.8018 ,1.47209 ,-0.39939 ,-3.91882 
414 ,77.9617 ,1.47368 ,-0.41308 ,-4.05313 
415 ,78.1379 ,1.47532 ,-0.41650 ,-4.08671 
416 ,78.3144 ,1.47706 ,-0.42335 ,-4.15387 
417 ,78.4904 ,1.47884 ,-0.44046 ,-4.32176 
418 ,78.6666 ,1.48064 ,-0.45072 ,-4.42249 
419 ,78.8743 ,1.48261 ,-0.46099 ,-4.52323 
420 ,79.0503 ,1.48449 ,-0.47810 ,-4.69112 
421 ,79.2588 ,1.48652 ,-0.46099 ,-4.52323 
422 ,79.4669 ,1.48866 ,-0.48494 ,-4.75828 
423 ,79.6430 ,1.49032 ,-0.48494 ,-4.75828 
424 ,79.8350 ,1.49232 ,-0.50206 ,-4.92617 
425 ,80.0271 ,1.49416 ,-0.50206 ,-4.92617 
426 ,80.2033 ,1.49598 ,-0.50548 ,-4.95975 
427 ,80.4114 ,1.49800 ,-0.53970 ,-5.29553 
428 ,80.6194 ,1.50010 ,-0.53970 ,-5.29553 
429 ,80.7952 ,1.50195 ,-0.56023 ,-5.49700 
430 ,80.9714 ,1.50373 ,-0.55681 ,-5.46342 
431 ,81.1476 ,1.50545 ,-0.57050 ,-5.59773 
432 ,81.3235 ,1.50723 ,-0.57734 ,-5.66489 
433 ,81.5156 ,1.50901 ,-0.59445 ,-5.83278 
434 ,81.6919 ,1.51084 ,-0.59445 ,-5.83278 
435 ,81.8999 ,1.51287 ,-0.59445 ,-5.83278 
436 ,82.0758 ,1.51472 ,-0.59103 ,-5.79920 
437 ,82.2836 ,1.51672 ,-0.59788 ,-5.86636 
438 ,82.4599 ,1.51855 ,-0.61499 ,-6.03425 
439 ,82.6363 ,1.52026 ,-0.62183 ,-6.10141 
440 ,82.8441 ,1.52233 ,-0.62525 ,-6.13499 
441 ,83.0203 ,1.52412 ,-0.64236 ,-6.30288 
442 ,83.1963 ,1.52594 ,-0.64921 ,-6.37003 
443 ,83.3722 ,1.52769 ,-0.66632 ,-6.53793 
444 ,83.5486 ,1.52943 ,-0.68343 ,-6.70582 
445 ,83.7406 ,1.53131 ,-0.67316 ,-6.60508 
446 ,83.9326 ,1.53320 ,-0.70054 ,-6.87371 
447 ,84.1087 ,1.53503 ,-0.70739 ,-6.94086 
448 ,84.3008 ,1.53692 ,-0.70054 ,-6.87371 
449 ,84.4609 ,1.53864 ,-0.72450 ,-7.10876 
450 ,84.6370 ,1.54030 ,-0.71765 ,-7.04160 
451 ,84.8291 ,1.54224 ,-0.73818 ,-7.24307 
452 ,85.0212 ,1.54411 ,-0.72107 ,-7.07518 
453 ,85.2132 ,1.54603 ,-0.76214 ,-7.47812 
454 ,85.4055 ,1.54797 ,-0.77241 ,-7.57885 
455 ,85.5813 ,1.54978 ,-0.75872 ,-7.44454 
456 ,85.7733 ,1.55160 ,-0.78610 ,-7.71317 
457 ,85.9493 ,1.55342 ,-0.79636 ,-7.81390 
458 ,86.1415 ,1.55530 ,-0.77925 ,-7.64601 
459 ,86.3177 ,1.55709 ,-0.79978 ,-7.84748 
460 ,86.4939 ,1.55889 ,-0.79636 ,-7.81390 
461 ,86.7019 ,1.56087 ,-0.81347 ,-7.98179 
462 ,86.9100 ,1.56297 ,-0.83743 ,-8.21684 
463 ,87.1022 ,1.56486 ,-0.83058 ,-8.14968 
