Data stamp = , 25-04-2022 10:39:56 122

Calibration Values: 
Slope = , 26.54 , g/V 
Offset Voltage at no contact = , -0.501760 , V 

No , Time , Stage Position ,   Mass , Force 
   ,  (s) ,      (mm)      ,   (g)  , (mN)  

1 ,0.0000 ,0.69936 ,5.24718 ,51.48538 
2 ,0.2136 ,0.69945 ,5.25745 ,51.58611 
3 ,0.5662 ,0.70041 ,5.23007 ,51.31749 
4 ,0.7741 ,0.70210 ,5.25061 ,51.51896 
5 ,0.9981 ,0.70397 ,5.24034 ,51.41822 
6 ,1.1904 ,0.70605 ,5.25403 ,51.55254 
7 ,1.3665 ,0.70779 ,5.24034 ,51.41822 
8 ,1.5585 ,0.70964 ,5.26430 ,51.65327 
9 ,1.7506 ,0.71168 ,5.23350 ,51.35107 
10 ,1.9427 ,0.71353 ,5.20954 ,51.11602 
11 ,2.1346 ,0.71547 ,5.20612 ,51.08244 
12 ,2.3427 ,0.71753 ,5.17874 ,50.81381 
13 ,2.5186 ,0.71935 ,5.16848 ,50.71308 
14 ,2.7112 ,0.72124 ,5.15136 ,50.54519 
15 ,2.9190 ,0.72330 ,5.14452 ,50.47803 
16 ,3.1113 ,0.72518 ,5.10003 ,50.04151 
17 ,3.2873 ,0.72699 ,5.08292 ,49.87362 
18 ,3.4791 ,0.72889 ,5.08292 ,49.87362 
19 ,3.6550 ,0.73064 ,5.06581 ,49.70573 
20 ,3.8312 ,0.73241 ,5.04870 ,49.53784 
21 ,4.0392 ,0.73449 ,5.01790 ,49.23563 
22 ,4.1993 ,0.73627 ,5.01106 ,49.16848 
23 ,4.3757 ,0.73793 ,4.99052 ,48.96701 
24 ,4.5677 ,0.73983 ,4.97683 ,48.83269 
25 ,4.7439 ,0.74156 ,4.94603 ,48.53049 
26 ,4.9359 ,0.74353 ,4.91866 ,48.26186 
27 ,5.1121 ,0.74522 ,4.92550 ,48.32902 
28 ,5.3201 ,0.74726 ,4.89470 ,48.02681 
29 ,5.4961 ,0.74908 ,4.87417 ,47.82534 
30 ,5.6723 ,0.75085 ,4.86048 ,47.69103 
31 ,5.8641 ,0.75270 ,4.82284 ,47.32167 
32 ,6.0564 ,0.75459 ,4.80915 ,47.18736 
33 ,6.2485 ,0.75653 ,4.79204 ,47.01946 
34 ,6.4406 ,0.75850 ,4.77835 ,46.88515 
35 ,6.6167 ,0.76032 ,4.76124 ,46.71726 
36 ,6.8084 ,0.76220 ,4.73728 ,46.48221 
37 ,7.0009 ,0.76408 ,4.70990 ,46.21359 
38 ,7.1930 ,0.76608 ,4.70306 ,46.14643 
39 ,7.3691 ,0.76787 ,4.69622 ,46.07927 
40 ,7.5608 ,0.76985 ,4.67226 ,45.84422 
41 ,7.7372 ,0.77153 ,4.64831 ,45.60918 
42 ,7.9289 ,0.77338 ,4.62435 ,45.37413 
43 ,8.1214 ,0.77529 ,4.60040 ,45.13908 
44 ,8.3131 ,0.77730 ,4.60040 ,45.13908 
45 ,8.4895 ,0.77902 ,4.57644 ,44.90403 
46 ,8.6816 ,0.78093 ,4.53880 ,44.53467 
47 ,8.8895 ,0.78296 ,4.53880 ,44.53467 
48 ,9.0496 ,0.78475 ,4.51826 ,44.33320 
49 ,9.2257 ,0.78637 ,4.50800 ,44.23247 
50 ,9.4178 ,0.78826 ,4.48404 ,43.99742 
51 ,9.6099 ,0.79011 ,4.46693 ,43.82953 
52 ,9.8021 ,0.79208 ,4.43955 ,43.56090 
53 ,9.9939 ,0.79396 ,4.43955 ,43.56090 
54 ,10.2020 ,0.79610 ,4.40875 ,43.25870 
55 ,10.4101 ,0.79816 ,4.39507 ,43.12438 
56 ,10.5861 ,0.80002 ,4.38138 ,42.99007 
57 ,10.7784 ,0.80190 ,4.35058 ,42.68786 
58 ,10.9704 ,0.80386 ,4.34373 ,42.62071 
59 ,11.1301 ,0.80553 ,4.33004 ,42.48639 
60 ,11.3226 ,0.80724 ,4.29924 ,42.18419 
61 ,11.5304 ,0.80935 ,4.29240 ,42.11703 
62 ,11.7069 ,0.81120 ,4.27187 ,41.91556 
63 ,11.8828 ,0.81300 ,4.24791 ,41.68051 
64 ,12.0590 ,0.81470 ,4.22738 ,41.47905 
65 ,12.2345 ,0.81649 ,4.22053 ,41.41189 
66 ,12.4271 ,0.81832 ,4.19658 ,41.17684 
67 ,12.6191 ,0.82028 ,4.17947 ,41.00895 
68 ,12.8273 ,0.82232 ,4.16920 ,40.90821 
69 ,13.0193 ,0.82422 ,4.13840 ,40.60601 
70 ,13.2274 ,0.82633 ,4.12814 ,40.50527 
71 ,13.4195 ,0.82821 ,4.10760 ,40.30380 
72 ,13.6115 ,0.83027 ,4.09049 ,40.13591 
73 ,13.8033 ,0.83206 ,4.05627 ,39.80013 
74 ,13.9793 ,0.83390 ,4.03574 ,39.59866 
75 ,14.1717 ,0.83575 ,4.04943 ,39.73297 
76 ,14.3476 ,0.83756 ,4.03916 ,39.63224 
77 ,14.5398 ,0.83951 ,3.99809 ,39.22930 
78 ,14.7318 ,0.84146 ,3.98441 ,39.09499 
79 ,14.9241 ,0.84328 ,3.95361 ,38.79278 
80 ,15.1321 ,0.84538 ,3.95703 ,38.82636 
81 ,15.3241 ,0.84726 ,3.92965 ,38.55773 
82 ,15.4999 ,0.84908 ,3.90227 ,38.28911 
83 ,15.6923 ,0.85096 ,3.90227 ,38.28911 
84 ,15.8685 ,0.85282 ,3.89543 ,38.22195 
85 ,16.0764 ,0.85487 ,3.84752 ,37.75185 
86 ,16.2846 ,0.85690 ,3.83725 ,37.65112 
87 ,16.4768 ,0.85878 ,3.82356 ,37.51681 
88 ,16.6687 ,0.86072 ,3.80303 ,37.31534 
89 ,16.8609 ,0.86260 ,3.80645 ,37.34891 
90 ,17.0370 ,0.86448 ,3.76539 ,36.94597 
91 ,17.2448 ,0.86646 ,3.75854 ,36.87882 
92 ,17.4371 ,0.86838 ,3.72432 ,36.54303 
93 ,17.6131 ,0.87026 ,3.72774 ,36.57661 
94 ,17.8051 ,0.87203 ,3.70037 ,36.30799 
95 ,17.9808 ,0.87389 ,3.67641 ,36.07294 
96 ,18.1573 ,0.87563 ,3.65930 ,35.90505 
97 ,18.3493 ,0.87748 ,3.66614 ,35.97220 
98 ,18.5254 ,0.87930 ,3.64219 ,35.73716 
99 ,18.7332 ,0.88134 ,3.61139 ,35.43495 
100 ,18.9254 ,0.88331 ,3.59770 ,35.30064 
101 ,19.1018 ,0.88510 ,3.58059 ,35.13275 
102 ,19.2938 ,0.88698 ,3.57032 ,35.03201 
103 ,19.4858 ,0.88891 ,3.56006 ,34.93128 
104 ,19.6620 ,0.89073 ,3.52241 ,34.56192 
105 ,19.8376 ,0.89245 ,3.51557 ,34.49476 
106 ,20.0139 ,0.89418 ,3.48819 ,34.22613 
107 ,20.2062 ,0.89613 ,3.48819 ,34.22613 
108 ,20.3820 ,0.89790 ,3.47450 ,34.09182 
109 ,20.5742 ,0.89972 ,3.44028 ,33.75604 
110 ,20.7664 ,0.90176 ,3.43001 ,33.65530 
111 ,20.9742 ,0.90371 ,3.40606 ,33.42025 
112 ,21.1506 ,0.90558 ,3.39579 ,33.31952 
113 ,21.3426 ,0.90745 ,3.37526 ,33.11805 
114 ,21.5344 ,0.90933 ,3.35815 ,32.95016 
115 ,21.7427 ,0.91135 ,3.35473 ,32.91658 
116 ,21.9828 ,0.91376 ,3.31024 ,32.48006 
117 ,22.1590 ,0.91562 ,3.30682 ,32.44648 
118 ,22.3510 ,0.91755 ,3.29313 ,32.31217 
119 ,22.5272 ,0.91932 ,3.28286 ,32.21143 
120 ,22.7352 ,0.92135 ,3.25206 ,31.90923 
121 ,22.9272 ,0.92329 ,3.25548 ,31.94281 
122 ,23.1034 ,0.92507 ,3.23495 ,31.74134 
123 ,23.2955 ,0.92699 ,3.19388 ,31.33840 
124 ,23.4876 ,0.92894 ,3.20415 ,31.43913 
125 ,23.6796 ,0.93087 ,3.18362 ,31.23766 
126 ,23.8555 ,0.93260 ,3.14940 ,30.90188 
127 ,24.0474 ,0.93442 ,3.15282 ,30.93546 
128 ,24.2399 ,0.93642 ,3.11518 ,30.56610 
129 ,24.4319 ,0.93833 ,3.11860 ,30.59968 
130 ,24.6080 ,0.94014 ,3.11175 ,30.53252 
131 ,24.8001 ,0.94199 ,3.07069 ,30.12958 
132 ,24.9921 ,0.94403 ,3.05358 ,29.96169 
133 ,25.1678 ,0.94574 ,3.05700 ,29.99527 
134 ,25.3440 ,0.94750 ,3.04673 ,29.89453 
135 ,25.5524 ,0.94955 ,3.01935 ,29.62590 
136 ,25.7605 ,0.95161 ,2.98855 ,29.32370 
137 ,25.9526 ,0.95365 ,2.97144 ,29.15581 
138 ,26.1445 ,0.95546 ,2.98171 ,29.25654 
139 ,26.3207 ,0.95724 ,2.96460 ,29.08865 
140 ,26.5129 ,0.95912 ,2.93722 ,28.82003 
141 ,26.7048 ,0.96108 ,2.93038 ,28.75287 
142 ,26.8971 ,0.96295 ,2.90642 ,28.51782 
143 ,27.1048 ,0.96502 ,2.88589 ,28.31635 
144 ,27.2809 ,0.96686 ,2.88589 ,28.31635 
145 ,27.4733 ,0.96881 ,2.84825 ,27.94699 
146 ,27.6648 ,0.97075 ,2.84140 ,27.87983 
147 ,27.8573 ,0.97254 ,2.81745 ,27.64479 
148 ,28.0495 ,0.97445 ,2.81060 ,27.57763 
149 ,28.2576 ,0.97655 ,2.78665 ,27.34258 
150 ,28.4332 ,0.97840 ,2.77980 ,27.27542 
151 ,28.6094 ,0.98015 ,2.76269 ,27.10753 
152 ,28.8179 ,0.98207 ,2.75927 ,27.07395 
153 ,29.0258 ,0.98420 ,2.73874 ,26.87248 
154 ,29.2022 ,0.98608 ,2.72505 ,26.73817 
155 ,29.3941 ,0.98798 ,2.70109 ,26.50312 
156 ,29.6023 ,0.99003 ,2.68740 ,26.36881 
157 ,29.8103 ,0.99203 ,2.66345 ,26.13376 
158 ,30.0183 ,0.99414 ,2.65660 ,26.06661 
159 ,30.1944 ,0.99595 ,2.63265 ,25.83156 
160 ,30.4024 ,0.99802 ,2.63607 ,25.86514 
161 ,30.5782 ,0.99981 ,2.59501 ,25.46220 
162 ,30.7546 ,1.00160 ,2.58132 ,25.32788 
163 ,30.9465 ,1.00347 ,2.58132 ,25.32788 
164 ,31.1228 ,1.00522 ,2.57105 ,25.22715 
165 ,31.3308 ,1.00729 ,2.53683 ,24.89136 
166 ,31.5230 ,1.00927 ,2.54025 ,24.92494 
167 ,31.6989 ,1.01108 ,2.50603 ,24.58916 
168 ,31.8747 ,1.01281 ,2.49576 ,24.48842 
169 ,32.0509 ,1.01455 ,2.47865 ,24.32053 
170 ,32.2272 ,1.01628 ,2.46839 ,24.21980 
171 ,32.4352 ,1.01831 ,2.44785 ,24.01833 
172 ,32.6273 ,1.02026 ,2.44785 ,24.01833 
173 ,32.8035 ,1.02207 ,2.42048 ,23.74970 
174 ,32.9955 ,1.02390 ,2.41021 ,23.64897 
175 ,33.1876 ,1.02584 ,2.40679 ,23.61539 
176 ,33.3957 ,1.02797 ,2.37941 ,23.34676 
177 ,33.5718 ,1.02978 ,2.36572 ,23.21245 
178 ,33.7634 ,1.03163 ,2.35545 ,23.11171 
179 ,33.9557 ,1.03348 ,2.33492 ,22.91024 
180 ,34.1320 ,1.03533 ,2.32123 ,22.77593 
181 ,34.3241 ,1.03728 ,2.31781 ,22.74235 
182 ,34.5160 ,1.03912 ,2.30070 ,22.57446 
183 ,34.7082 ,1.04099 ,2.28359 ,22.40657 
184 ,34.8839 ,1.04288 ,2.26306 ,22.20510 
185 ,35.0603 ,1.04463 ,2.25963 ,22.17152 
186 ,35.2364 ,1.04632 ,2.24252 ,22.00363 
187 ,35.4124 ,1.04817 ,2.21857 ,21.76858 
188 ,35.6205 ,1.05017 ,2.22199 ,21.80216 
189 ,35.7967 ,1.05199 ,2.19119 ,21.49996 
190 ,35.9885 ,1.05390 ,2.17750 ,21.36564 
191 ,36.1647 ,1.05565 ,2.16381 ,21.23133 
192 ,36.3729 ,1.05770 ,2.14328 ,21.02986 
193 ,36.5491 ,1.05948 ,2.12959 ,20.89555 
194 ,36.7411 ,1.06139 ,2.13986 ,20.99628 
195 ,36.9327 ,1.06342 ,2.10564 ,20.66050 
196 ,37.1251 ,1.06521 ,2.08168 ,20.42545 
197 ,37.3014 ,1.06702 ,2.07826 ,20.39187 
198 ,37.4934 ,1.06891 ,2.06457 ,20.25756 
199 ,37.6851 ,1.07081 ,2.04404 ,20.05609 
200 ,37.8775 ,1.07269 ,2.04746 ,20.08967 
201 ,38.0533 ,1.07455 ,2.03719 ,19.98893 
202 ,38.2777 ,1.07661 ,2.02008 ,19.82104 
203 ,38.4698 ,1.07866 ,1.98586 ,19.48526 
204 ,38.6617 ,1.08068 ,1.99270 ,19.55241 
205 ,38.8377 ,1.08238 ,1.96533 ,19.28379 
206 ,39.0459 ,1.08441 ,1.94479 ,19.08232 
207 ,39.2219 ,1.08632 ,1.93453 ,18.98158 
208 ,39.3983 ,1.08802 ,1.93453 ,18.98158 
209 ,39.6064 ,1.09000 ,1.90031 ,18.64580 
210 ,39.8143 ,1.09199 ,1.89346 ,18.57864 
211 ,40.0225 ,1.09419 ,1.88319 ,18.47791 
212 ,40.2142 ,1.09607 ,1.87293 ,18.37717 
213 ,40.4068 ,1.09805 ,1.83528 ,18.00781 
214 ,40.6145 ,1.10008 ,1.82160 ,17.87350 
215 ,40.8068 ,1.10194 ,1.80449 ,17.70561 
216 ,40.9988 ,1.10395 ,1.80449 ,17.70561 
217 ,41.1909 ,1.10586 ,1.77711 ,17.43698 
218 ,41.3989 ,1.10790 ,1.75657 ,17.23551 
219 ,41.5749 ,1.10970 ,1.77369 ,17.40340 
220 ,41.7511 ,1.11152 ,1.76000 ,17.26909 
221 ,41.9428 ,1.11341 ,1.71209 ,16.79899 
222 ,42.1193 ,1.11521 ,1.71893 ,16.86615 
223 ,42.3114 ,1.11704 ,1.71893 ,16.86615 
224 ,42.5195 ,1.11914 ,1.69155 ,16.59752 
225 ,42.7114 ,1.12115 ,1.64707 ,16.16101 
226 ,42.9035 ,1.12293 ,1.65733 ,16.26174 
227 ,43.0956 ,1.12487 ,1.66075 ,16.29532 
228 ,43.3034 ,1.12695 ,1.62311 ,15.92596 
229 ,43.4794 ,1.12873 ,1.60600 ,15.75807 
230 ,43.6719 ,1.13068 ,1.60258 ,15.72449 
231 ,43.8640 ,1.13256 ,1.58889 ,15.59018 
232 ,44.0720 ,1.13463 ,1.59231 ,15.62375 
233 ,44.2637 ,1.13659 ,1.54440 ,15.15366 
234 ,44.4401 ,1.13838 ,1.55467 ,15.25439 
235 ,44.6323 ,1.14026 ,1.54098 ,15.12008 
236 ,44.8403 ,1.14239 ,1.52045 ,14.91861 
237 ,45.0325 ,1.14424 ,1.51360 ,14.85145 
238 ,45.2403 ,1.14634 ,1.48622 ,14.58283 
239 ,45.4165 ,1.14816 ,1.47938 ,14.51567 
240 ,45.5922 ,1.14994 ,1.46911 ,14.41493 
241 ,45.7845 ,1.15175 ,1.43489 ,14.07915 
242 ,45.9928 ,1.15386 ,1.44516 ,14.17989 
243 ,46.1689 ,1.15568 ,1.43147 ,14.04557 
244 ,46.3609 ,1.15750 ,1.42120 ,13.94484 
245 ,46.5366 ,1.15937 ,1.41094 ,13.84410 
246 ,46.7127 ,1.16106 ,1.40409 ,13.77695 
247 ,46.9051 ,1.16294 ,1.37329 ,13.47474 
248 ,47.0812 ,1.16479 ,1.34591 ,13.20612 
249 ,47.2732 ,1.16666 ,1.34934 ,13.23969 
250 ,47.4494 ,1.16851 ,1.35276 ,13.27327 
251 ,47.6413 ,1.17034 ,1.31854 ,12.93749 
252 ,47.8169 ,1.17212 ,1.31169 ,12.87033 
253 ,47.9932 ,1.17393 ,1.31512 ,12.90391 
254 ,48.1695 ,1.17571 ,1.29458 ,12.70244 
255 ,48.3451 ,1.17749 ,1.25009 ,12.26592 
256 ,48.5213 ,1.17925 ,1.27747 ,12.53455 
257 ,48.7134 ,1.18100 ,1.25009 ,12.26592 
258 ,48.9055 ,1.18301 ,1.22272 ,11.99730 
259 ,49.0980 ,1.18488 ,1.22956 ,12.06445 
260 ,49.3061 ,1.18695 ,1.20903 ,11.86298 
261 ,49.5142 ,1.18906 ,1.22614 ,12.03088 
262 ,49.7058 ,1.19095 ,1.17823 ,11.56078 
263 ,49.8984 ,1.19285 ,1.15085 ,11.29215 
264 ,50.0904 ,1.19479 ,1.16112 ,11.39289 
265 ,50.2980 ,1.19690 ,1.15770 ,11.35931 
266 ,50.4742 ,1.19871 ,1.12347 ,11.02353 
267 ,50.6502 ,1.20043 ,1.11663 ,10.95637 
268 ,50.8103 ,1.20219 ,1.13374 ,11.12426 
269 ,50.9864 ,1.20387 ,1.09610 ,10.75490 
270 ,51.1785 ,1.20570 ,1.06872 ,10.48627 
271 ,51.3870 ,1.20772 ,1.07214 ,10.51985 
272 ,51.5791 ,1.20977 ,1.05845 ,10.38554 
273 ,51.7711 ,1.21172 ,1.03108 ,10.11691 
274 ,51.9628 ,1.21353 ,1.01739 ,9.98260 
275 ,52.1708 ,1.21562 ,1.01739 ,9.98260 
276 ,52.3472 ,1.21745 ,1.01739 ,9.98260 
277 ,52.5393 ,1.21933 ,0.99685 ,9.78113 
278 ,52.6990 ,1.22107 ,0.97974 ,9.61324 
279 ,52.8911 ,1.22277 ,0.99001 ,9.71397 
280 ,53.0832 ,1.22470 ,0.94894 ,9.31103 
281 ,53.2755 ,1.22659 ,0.95579 ,9.37819 
282 ,53.4517 ,1.22844 ,0.94894 ,9.31103 
283 ,53.6279 ,1.23022 ,0.91814 ,9.00883 
284 ,53.8041 ,1.23196 ,0.90788 ,8.90809 
285 ,53.9961 ,1.23388 ,0.90446 ,8.87451 
286 ,54.2039 ,1.23589 ,0.89419 ,8.77378 
287 ,54.3802 ,1.23773 ,0.86339 ,8.47158 
288 ,54.5561 ,1.23951 ,0.87023 ,8.53873 
289 ,54.7318 ,1.24133 ,0.85312 ,8.37084 
290 ,54.9083 ,1.24302 ,0.84970 ,8.33726 
291 ,55.1005 ,1.24485 ,0.82232 ,8.06864 
292 ,55.3085 ,1.24698 ,0.82232 ,8.06864 
293 ,55.4847 ,1.24879 ,0.80863 ,7.93432 
294 ,55.6928 ,1.25080 ,0.80863 ,7.93432 
295 ,55.8847 ,1.25275 ,0.78126 ,7.66570 
296 ,56.0769 ,1.25474 ,0.75046 ,7.36349 
297 ,56.2689 ,1.25665 ,0.77099 ,7.56496 
298 ,56.4447 ,1.25837 ,0.76415 ,7.49780 
299 ,56.6374 ,1.26030 ,0.72992 ,7.16202 
300 ,56.8450 ,1.26230 ,0.71281 ,6.99413 
301 ,57.0215 ,1.26414 ,0.70255 ,6.89340 
302 ,57.2294 ,1.26621 ,0.70939 ,6.96055 
303 ,57.4213 ,1.26813 ,0.67517 ,6.62477 
304 ,57.5971 ,1.26990 ,0.66148 ,6.49046 
305 ,57.7735 ,1.27170 ,0.66490 ,6.52403 
306 ,57.9817 ,1.27367 ,0.67517 ,6.62477 
307 ,58.1577 ,1.27548 ,0.62042 ,6.08752 
308 ,58.3337 ,1.27727 ,0.61357 ,6.02036 
309 ,58.5258 ,1.27911 ,0.61357 ,6.02036 
310 ,58.7341 ,1.28121 ,0.60673 ,5.95320 
311 ,58.9263 ,1.28317 ,0.59988 ,5.88605 
312 ,59.1342 ,1.28523 ,0.57935 ,5.68458 
313 ,59.3262 ,1.28715 ,0.57251 ,5.61742 
314 ,59.5343 ,1.28919 ,0.55882 ,5.48311 
315 ,59.7260 ,1.29109 ,0.54171 ,5.31522 
316 ,59.9184 ,1.29304 ,0.52802 ,5.18090 
317 ,60.1105 ,1.29505 ,0.52117 ,5.11375 
318 ,60.3028 ,1.29690 ,0.49722 ,4.87870 
319 ,60.5108 ,1.29897 ,0.51775 ,5.08017 
320 ,60.6869 ,1.30082 ,0.48695 ,4.77796 
321 ,60.8627 ,1.30268 ,0.48011 ,4.71081 
322 ,61.0548 ,1.30441 ,0.46984 ,4.61007 
323 ,61.2470 ,1.30633 ,0.46300 ,4.54291 
324 ,61.4390 ,1.30827 ,0.42877 ,4.20713 
325 ,61.6312 ,1.31021 ,0.43220 ,4.24071 
326 ,61.8073 ,1.31200 ,0.43562 ,4.27429 
327 ,61.9993 ,1.31387 ,0.40824 ,4.00566 
328 ,62.2074 ,1.31594 ,0.39455 ,3.87135 
329 ,62.3996 ,1.31779 ,0.39797 ,3.90493 
330 ,62.6074 ,1.31993 ,0.38429 ,3.77061 
331 ,62.7837 ,1.32170 ,0.36375 ,3.56914 
332 ,62.9594 ,1.32345 ,0.35006 ,3.43483 
333 ,63.1521 ,1.32538 ,0.35349 ,3.46841 
334 ,63.3438 ,1.32732 ,0.33638 ,3.30052 
335 ,63.5357 ,1.32922 ,0.31242 ,3.06547 
336 ,63.7117 ,1.33104 ,0.32269 ,3.16620 
337 ,63.8878 ,1.33293 ,0.31242 ,3.06547 
338 ,64.0639 ,1.33451 ,0.29189 ,2.86400 
339 ,64.2400 ,1.33626 ,0.28162 ,2.76326 
340 ,64.4164 ,1.33807 ,0.26451 ,2.59537 
341 ,64.6086 ,1.34002 ,0.27820 ,2.72969 
342 ,64.8164 ,1.34197 ,0.24740 ,2.42748 
343 ,64.9927 ,1.34384 ,0.22344 ,2.19243 
344 ,65.1688 ,1.34562 ,0.23713 ,2.32675 
345 ,65.3609 ,1.34750 ,0.22344 ,2.19243 
346 ,65.5369 ,1.34933 ,0.21318 ,2.09170 
347 ,65.7288 ,1.35110 ,0.19949 ,1.95738 
348 ,65.9211 ,1.35303 ,0.17896 ,1.75592 
349 ,66.1292 ,1.35509 ,0.17896 ,1.75592 
350 ,66.3213 ,1.35707 ,0.18238 ,1.78949 
351 ,66.5133 ,1.35901 ,0.14131 ,1.38655 
352 ,66.6895 ,1.36082 ,0.14816 ,1.45371 
353 ,66.8976 ,1.36276 ,0.12762 ,1.25224 
354 ,67.0896 ,1.36481 ,0.12762 ,1.25224 
355 ,67.2812 ,1.36665 ,0.08998 ,0.88288 
356 ,67.4899 ,1.36862 ,0.09340 ,0.91646 
357 ,67.6977 ,1.37079 ,0.06602 ,0.64783 
358 ,67.8899 ,1.37274 ,0.08656 ,0.84930 
359 ,68.0822 ,1.37468 ,0.06602 ,0.64783 
360 ,68.2741 ,1.37656 ,0.06602 ,0.64783 
361 ,68.4660 ,1.37856 ,0.04549 ,0.44636 
362 ,68.6742 ,1.38057 ,0.02838 ,0.27847 
363 ,68.8823 ,1.38265 ,0.01469 ,0.14416 
364 ,69.0903 ,1.38472 ,0.01811 ,0.17773 
365 ,69.2663 ,1.38653 ,0.00443 ,0.04342 
366 ,69.4422 ,1.38832 ,0.01127 ,0.11058 
367 ,69.6346 ,1.39017 ,-0.02637 ,-0.25878 
368 ,69.8428 ,1.39227 ,-0.03322 ,-0.32594 
369 ,70.0347 ,1.39421 ,-0.04691 ,-0.46025 
370 ,70.2269 ,1.39608 ,-0.04691 ,-0.46025 
371 ,70.4189 ,1.39806 ,-0.06744 ,-0.66172 
372 ,70.6109 ,1.39997 ,-0.06744 ,-0.66172 
373 ,70.7870 ,1.40173 ,-0.05717 ,-0.56099 
374 ,70.9471 ,1.40345 ,-0.07428 ,-0.72888 
375 ,71.1231 ,1.40510 ,-0.09482 ,-0.93035 
376 ,71.3153 ,1.40701 ,-0.11535 ,-1.13182 
377 ,71.5234 ,1.40903 ,-0.12219 ,-1.19898 
378 ,71.7154 ,1.41094 ,-0.13588 ,-1.33329 
379 ,71.9077 ,1.41297 ,-0.14273 ,-1.40045 
380 ,72.0995 ,1.41491 ,-0.14273 ,-1.40045 
381 ,72.2756 ,1.41661 ,-0.16326 ,-1.60191 
382 ,72.4836 ,1.41864 ,-0.16668 ,-1.63549 
383 ,72.6594 ,1.42049 ,-0.18379 ,-1.80338 
384 ,72.8358 ,1.42225 ,-0.18379 ,-1.80338 
385 ,73.0119 ,1.42406 ,-0.18722 ,-1.83696 
386 ,73.1880 ,1.42577 ,-0.19748 ,-1.93770 
387 ,73.3640 ,1.42750 ,-0.19406 ,-1.90412 
388 ,73.5400 ,1.42929 ,-0.21802 ,-2.13917 
389 ,73.7323 ,1.43117 ,-0.24197 ,-2.37422 
390 ,73.9240 ,1.43311 ,-0.22144 ,-2.17275 
391 ,74.1164 ,1.43502 ,-0.25908 ,-2.54211 
392 ,74.3084 ,1.43690 ,-0.24539 ,-2.40779 
393 ,74.5007 ,1.43883 ,-0.27961 ,-2.74358 
394 ,74.7085 ,1.44093 ,-0.27277 ,-2.67642 
395 ,74.9167 ,1.44292 ,-0.28646 ,-2.81073 
396 ,75.0925 ,1.44479 ,-0.30699 ,-3.01220 
397 ,75.2846 ,1.44661 ,-0.31041 ,-3.04578 
398 ,75.4927 ,1.44872 ,-0.32410 ,-3.18010 
399 ,75.6689 ,1.45057 ,-0.32410 ,-3.18010 
400 ,75.8608 ,1.45243 ,-0.33437 ,-3.28083 
401 ,76.0531 ,1.45431 ,-0.35148 ,-3.44872 
402 ,76.2290 ,1.45616 ,-0.36859 ,-3.61661 
403 ,76.4372 ,1.45812 ,-0.37201 ,-3.65019 
404 ,76.6132 ,1.46000 ,-0.38228 ,-3.75093 
405 ,76.8056 ,1.46194 ,-0.38228 ,-3.75093 
406 ,77.0131 ,1.46391 ,-0.39255 ,-3.85166 
407 ,77.2058 ,1.46582 ,-0.39255 ,-3.85166 
408 ,77.4135 ,1.46796 ,-0.40966 ,-4.01955 
409 ,77.6059 ,1.46997 ,-0.41308 ,-4.05313 
410 ,77.7976 ,1.47177 ,-0.44388 ,-4.35534 
411 ,78.0061 ,1.47388 ,-0.45072 ,-4.42249 
412 ,78.1816 ,1.47570 ,-0.46783 ,-4.59038 
413 ,78.3581 ,1.47745 ,-0.47468 ,-4.65754 
414 ,78.5659 ,1.47945 ,-0.45757 ,-4.48965 
415 ,78.7581 ,1.48133 ,-0.47126 ,-4.62396 
416 ,78.9342 ,1.48325 ,-0.48152 ,-4.72470 
417 ,79.1263 ,1.48505 ,-0.48152 ,-4.72470 
418 ,79.3342 ,1.48710 ,-0.51574 ,-5.06048 
419 ,79.5423 ,1.48923 ,-0.50548 ,-4.95975 
420 ,79.7343 ,1.49124 ,-0.51574 ,-5.06048 
421 ,79.9107 ,1.49297 ,-0.53970 ,-5.29553 
422 ,80.1024 ,1.49484 ,-0.53628 ,-5.26195 
423 ,80.2784 ,1.49662 ,-0.54312 ,-5.32911 
424 ,80.4547 ,1.49844 ,-0.55681 ,-5.46342 
425 ,80.6469 ,1.50019 ,-0.56708 ,-5.56415 
426 ,80.8390 ,1.50219 ,-0.58077 ,-5.69847 
427 ,81.0311 ,1.50418 ,-0.58761 ,-5.76562 
428 ,81.2391 ,1.50618 ,-0.59103 ,-5.79920 
429 ,81.4153 ,1.50796 ,-0.61156 ,-6.00067 
430 ,81.6073 ,1.50993 ,-0.61499 ,-6.03425 
431 ,81.8155 ,1.51192 ,-0.62183 ,-6.10141 
432 ,81.9914 ,1.51383 ,-0.62525 ,-6.13499 
433 ,82.1676 ,1.51555 ,-0.63894 ,-6.26930 
434 ,82.3755 ,1.51749 ,-0.62868 ,-6.16856 
435 ,82.5517 ,1.51937 ,-0.64236 ,-6.30288 
436 ,82.7436 ,1.52122 ,-0.64579 ,-6.33646 
437 ,82.9355 ,1.52309 ,-0.67659 ,-6.63866 
438 ,83.1119 ,1.52494 ,-0.69712 ,-6.84013 
439 ,83.2881 ,1.52675 ,-0.68001 ,-6.67224 
440 ,83.4799 ,1.52864 ,-0.69027 ,-6.77297 
441 ,83.6722 ,1.53052 ,-0.71423 ,-7.00802 
442 ,83.8802 ,1.53263 ,-0.71081 ,-6.97444 
443 ,84.0563 ,1.53443 ,-0.72450 ,-7.10876 
444 ,84.2483 ,1.53622 ,-0.71765 ,-7.04160 
445 ,84.4243 ,1.53810 ,-0.73818 ,-7.24307 
446 ,84.6001 ,1.53989 ,-0.75530 ,-7.41096 
447 ,84.7924 ,1.54169 ,-0.77241 ,-7.57885 
448 ,84.9847 ,1.54368 ,-0.76214 ,-7.47812 
449 ,85.1768 ,1.54550 ,-0.77583 ,-7.61243 
450 ,85.3686 ,1.54744 ,-0.77925 ,-7.64601 
451 ,85.5769 ,1.54950 ,-0.79294 ,-7.78032 
452 ,85.7530 ,1.55139 ,-0.79294 ,-7.78032 
453 ,85.9290 ,1.55311 ,-0.81347 ,-7.98179 
454 ,86.1212 ,1.55489 ,-0.81005 ,-7.94821 
455 ,86.3134 ,1.55689 ,-0.83401 ,-8.18326 
456 ,86.5056 ,1.55889 ,-0.84085 ,-8.25042 
457 ,86.6970 ,1.56075 ,-0.83058 ,-8.14968 
458 ,86.8734 ,1.56253 ,-0.84769 ,-8.31758 
459 ,87.0816 ,1.56461 ,-0.84085 ,-8.25042 
460 ,87.2736 ,1.56651 ,-0.86481 ,-8.48547 
461 ,87.4496 ,1.56833 ,-0.88534 ,-8.68694 
462 ,87.6417 ,1.57015 ,-0.87507 ,-8.58620 
463 ,87.8334 ,1.57202 ,-0.88876 ,-8.72051 
