Data stamp = , 25-04-2022 14:21:12 353

Calibration Values: 
Slope = , 26.54 , g/V 
Offset Voltage at no contact = , -0.501760 , V 

No , Time , Stage Position ,   Mass , Force 
   ,  (s) ,      (mm)      ,   (g)  , (mN)  

1 ,0.0000 ,0.69942 ,5.24718 ,51.48538 
2 ,0.2048 ,0.69950 ,5.26087 ,51.61969 
3 ,0.6532 ,0.70101 ,5.24034 ,51.41822 
4 ,0.8614 ,0.70282 ,5.24718 ,51.48538 
5 ,1.0534 ,0.70476 ,5.25403 ,51.55254 
6 ,1.2452 ,0.70659 ,5.26772 ,51.68685 
7 ,1.4216 ,0.70834 ,5.25745 ,51.58611 
8 ,1.5978 ,0.71016 ,5.24718 ,51.48538 
9 ,1.8055 ,0.71215 ,5.25061 ,51.51896 
10 ,1.9979 ,0.71409 ,5.21981 ,51.21675 
11 ,2.1900 ,0.71607 ,5.20954 ,51.11602 
12 ,2.3981 ,0.71811 ,5.18559 ,50.88097 
13 ,2.6219 ,0.72025 ,5.16848 ,50.71308 
14 ,2.8141 ,0.72228 ,5.14794 ,50.51161 
15 ,2.9902 ,0.72414 ,5.12056 ,50.24298 
16 ,3.1823 ,0.72601 ,5.10345 ,50.07509 
17 ,3.3421 ,0.72770 ,5.08634 ,49.90720 
18 ,3.5180 ,0.72936 ,5.06239 ,49.67215 
19 ,3.6945 ,0.73111 ,5.06239 ,49.67215 
20 ,3.8707 ,0.73290 ,5.05897 ,49.63857 
21 ,4.0788 ,0.73489 ,5.01790 ,49.23563 
22 ,4.2867 ,0.73700 ,4.98368 ,48.89985 
23 ,4.4787 ,0.73886 ,4.97683 ,48.83269 
24 ,4.6550 ,0.74073 ,4.95288 ,48.59764 
25 ,4.8470 ,0.74261 ,4.93577 ,48.42975 
26 ,5.0229 ,0.74439 ,4.92892 ,48.36260 
27 ,5.2152 ,0.74627 ,4.90497 ,48.12755 
28 ,5.3912 ,0.74816 ,4.87759 ,47.85892 
29 ,5.5673 ,0.74987 ,4.87759 ,47.85892 
30 ,5.7431 ,0.75163 ,4.85706 ,47.65745 
31 ,5.9196 ,0.75341 ,4.82284 ,47.32167 
32 ,6.1112 ,0.75526 ,4.82626 ,47.35525 
33 ,6.3198 ,0.75721 ,4.79546 ,47.05304 
34 ,6.5117 ,0.75928 ,4.77835 ,46.88515 
35 ,6.6875 ,0.76106 ,4.77835 ,46.88515 
36 ,6.8636 ,0.76280 ,4.74413 ,46.54937 
37 ,7.0401 ,0.76458 ,4.71333 ,46.24716 
38 ,7.2156 ,0.76630 ,4.69964 ,46.11285 
39 ,7.3922 ,0.76809 ,4.69622 ,46.07927 
40 ,7.5841 ,0.77009 ,4.67226 ,45.84422 
41 ,7.7602 ,0.77175 ,4.64488 ,45.57560 
42 ,7.9360 ,0.77357 ,4.64831 ,45.60918 
43 ,8.1124 ,0.77529 ,4.60724 ,45.20624 
44 ,8.3041 ,0.77714 ,4.59013 ,45.03835 
45 ,8.4965 ,0.77905 ,4.59013 ,45.03835 
46 ,8.7043 ,0.78115 ,4.55591 ,44.70256 
47 ,8.8807 ,0.78297 ,4.53537 ,44.50109 
48 ,9.0566 ,0.78472 ,4.53880 ,44.53467 
49 ,9.2649 ,0.78676 ,4.50800 ,44.23247 
50 ,9.4730 ,0.78881 ,4.50115 ,44.16531 
51 ,9.6491 ,0.79061 ,4.48062 ,43.96384 
52 ,9.8412 ,0.79247 ,4.43955 ,43.56090 
53 ,10.0333 ,0.79441 ,4.44640 ,43.62806 
54 ,10.2251 ,0.79636 ,4.40875 ,43.25870 
55 ,10.4173 ,0.79826 ,4.38138 ,42.99007 
56 ,10.6094 ,0.80023 ,4.38822 ,43.05723 
57 ,10.8173 ,0.80227 ,4.36769 ,42.85576 
58 ,10.9936 ,0.80412 ,4.33689 ,42.55355 
59 ,11.1856 ,0.80597 ,4.31293 ,42.31850 
60 ,11.3617 ,0.80775 ,4.29582 ,42.15061 
61 ,11.5373 ,0.80954 ,4.27529 ,41.94914 
62 ,11.7300 ,0.81135 ,4.26502 ,41.84841 
63 ,11.9220 ,0.81336 ,4.24107 ,41.61336 
64 ,12.0979 ,0.81514 ,4.22738 ,41.47905 
65 ,12.2738 ,0.81690 ,4.21711 ,41.37831 
66 ,12.4503 ,0.81865 ,4.20342 ,41.24400 
67 ,12.6419 ,0.82069 ,4.17262 ,40.94179 
68 ,12.8343 ,0.82243 ,4.16920 ,40.90821 
69 ,13.0263 ,0.82445 ,4.14867 ,40.70674 
70 ,13.2024 ,0.82617 ,4.11445 ,40.37096 
71 ,13.3781 ,0.82794 ,4.11103 ,40.33738 
72 ,13.5546 ,0.82970 ,4.10076 ,40.23665 
73 ,13.7462 ,0.83164 ,4.06996 ,39.93444 
74 ,13.9227 ,0.83336 ,4.05627 ,39.80013 
75 ,14.0988 ,0.83516 ,4.03232 ,39.56508 
76 ,14.2909 ,0.83697 ,4.02547 ,39.49793 
77 ,14.4989 ,0.83904 ,4.00152 ,39.26288 
78 ,14.6911 ,0.84094 ,3.98098 ,39.06141 
79 ,14.8830 ,0.84292 ,3.96045 ,38.85994 
80 ,15.0749 ,0.84490 ,3.97072 ,38.96067 
81 ,15.2993 ,0.84697 ,3.92623 ,38.52415 
82 ,15.4914 ,0.84903 ,3.92281 ,38.49058 
83 ,15.6834 ,0.85094 ,3.89201 ,38.18837 
84 ,15.8591 ,0.85273 ,3.87490 ,38.02048 
85 ,16.0516 ,0.85461 ,3.87490 ,38.02048 
86 ,16.2437 ,0.85661 ,3.83041 ,37.58396 
87 ,16.4518 ,0.85853 ,3.82356 ,37.51681 
88 ,16.6438 ,0.86054 ,3.79276 ,37.21460 
89 ,16.8200 ,0.86235 ,3.77565 ,37.04671 
90 ,17.0115 ,0.86423 ,3.76881 ,36.97955 
91 ,17.1879 ,0.86598 ,3.74828 ,36.77808 
92 ,17.3477 ,0.86776 ,3.73801 ,36.67735 
93 ,17.5402 ,0.86942 ,3.72090 ,36.50946 
94 ,17.7322 ,0.87146 ,3.71748 ,36.47588 
95 ,17.9243 ,0.87329 ,3.68668 ,36.17367 
96 ,18.1162 ,0.87517 ,3.66272 ,35.93863 
97 ,18.2924 ,0.87704 ,3.66272 ,35.93863 
98 ,18.4686 ,0.87885 ,3.65246 ,35.83789 
99 ,18.6607 ,0.88074 ,3.61823 ,35.50211 
100 ,18.8527 ,0.88258 ,3.59770 ,35.30064 
101 ,19.0288 ,0.88440 ,3.59086 ,35.23348 
102 ,19.2205 ,0.88630 ,3.56006 ,34.93128 
103 ,19.4127 ,0.88822 ,3.56006 ,34.93128 
104 ,19.6210 ,0.89019 ,3.53268 ,34.66265 
105 ,19.8132 ,0.89218 ,3.51899 ,34.52834 
106 ,20.0049 ,0.89409 ,3.49846 ,34.32687 
107 ,20.1809 ,0.89595 ,3.47450 ,34.09182 
108 ,20.3730 ,0.89781 ,3.48135 ,34.15898 
109 ,20.5495 ,0.89962 ,3.44713 ,33.82319 
110 ,20.7416 ,0.90145 ,3.44370 ,33.78961 
111 ,20.9497 ,0.90355 ,3.41633 ,33.52099 
112 ,21.1418 ,0.90555 ,3.41290 ,33.48741 
113 ,21.3014 ,0.90724 ,3.39579 ,33.31952 
114 ,21.4778 ,0.90896 ,3.36842 ,33.05089 
115 ,21.6699 ,0.91086 ,3.35815 ,32.95016 
116 ,21.8461 ,0.91255 ,3.32393 ,32.61437 
117 ,22.0381 ,0.91444 ,3.33419 ,32.71511 
118 ,22.2460 ,0.91653 ,3.30339 ,32.41290 
119 ,22.4221 ,0.91829 ,3.28286 ,32.21143 
120 ,22.5984 ,0.92014 ,3.28286 ,32.21143 
121 ,22.7904 ,0.92195 ,3.25548 ,31.94281 
122 ,22.9825 ,0.92389 ,3.24522 ,31.84207 
123 ,23.1745 ,0.92578 ,3.22468 ,31.64060 
124 ,23.3501 ,0.92765 ,3.21442 ,31.53987 
125 ,23.5266 ,0.92937 ,3.18362 ,31.23766 
126 ,23.7348 ,0.93139 ,3.18362 ,31.23766 
127 ,23.9268 ,0.93332 ,3.15966 ,31.00262 
128 ,24.1025 ,0.93518 ,3.15282 ,30.93546 
129 ,24.2950 ,0.93702 ,3.14255 ,30.83472 
130 ,24.5026 ,0.93906 ,3.11518 ,30.56610 
131 ,24.6947 ,0.94097 ,3.10149 ,30.43178 
132 ,24.8707 ,0.94285 ,3.07411 ,30.16316 
133 ,25.0472 ,0.94460 ,3.05015 ,29.92811 
134 ,25.2395 ,0.94651 ,3.05358 ,29.96169 
135 ,25.4153 ,0.94829 ,3.02278 ,29.65948 
136 ,25.5911 ,0.94999 ,3.01593 ,29.59233 
137 ,25.7673 ,0.95178 ,3.00224 ,29.45801 
138 ,25.9754 ,0.95384 ,2.98513 ,29.29012 
139 ,26.1676 ,0.95569 ,2.96460 ,29.08865 
140 ,26.3594 ,0.95766 ,2.96802 ,29.12223 
141 ,26.5357 ,0.95945 ,2.96118 ,29.05507 
142 ,26.7279 ,0.96132 ,2.90985 ,28.55140 
143 ,26.9041 ,0.96317 ,2.89616 ,28.41709 
144 ,27.0957 ,0.96499 ,2.89958 ,28.45066 
145 ,27.2722 ,0.96680 ,2.87905 ,28.24919 
146 ,27.4644 ,0.96878 ,2.84825 ,27.94699 
147 ,27.6562 ,0.97059 ,2.84825 ,27.94699 
148 ,27.8482 ,0.97248 ,2.83798 ,27.84625 
149 ,28.0565 ,0.97461 ,2.82087 ,27.67836 
150 ,28.2487 ,0.97658 ,2.79349 ,27.40974 
151 ,28.4408 ,0.97850 ,2.78665 ,27.34258 
152 ,28.6168 ,0.98029 ,2.77980 ,27.27542 
153 ,28.8245 ,0.98226 ,2.75243 ,27.00680 
154 ,29.0008 ,0.98407 ,2.74216 ,26.90606 
155 ,29.1770 ,0.98585 ,2.72847 ,26.77175 
156 ,29.3691 ,0.98776 ,2.69083 ,26.40239 
157 ,29.5448 ,0.98967 ,2.70109 ,26.50312 
158 ,29.7370 ,0.99143 ,2.68398 ,26.33523 
159 ,29.9129 ,0.99324 ,2.66687 ,26.16734 
160 ,30.0894 ,0.99500 ,2.66003 ,26.10018 
161 ,30.2815 ,0.99685 ,2.62923 ,25.79798 
162 ,30.4736 ,0.99882 ,2.61212 ,25.63009 
163 ,30.6813 ,1.00083 ,2.59843 ,25.49577 
164 ,30.8735 ,1.00275 ,2.56763 ,25.19357 
165 ,31.0658 ,1.00471 ,2.54367 ,24.95852 
166 ,31.2738 ,1.00679 ,2.53683 ,24.89136 
167 ,31.4500 ,1.00857 ,2.52998 ,24.82421 
168 ,31.6581 ,1.01060 ,2.52656 ,24.79063 
169 ,31.8502 ,1.01256 ,2.49918 ,24.52200 
170 ,32.0418 ,1.01446 ,2.49576 ,24.48842 
171 ,32.2183 ,1.01632 ,2.46839 ,24.21980 
172 ,32.4103 ,1.01816 ,2.44443 ,23.98475 
173 ,32.6024 ,1.02011 ,2.44101 ,23.95117 
174 ,32.7945 ,1.02202 ,2.43759 ,23.91759 
175 ,32.9706 ,1.02379 ,2.41705 ,23.71612 
176 ,33.1626 ,1.02574 ,2.40679 ,23.61539 
177 ,33.3386 ,1.02746 ,2.39652 ,23.51465 
178 ,33.5146 ,1.02925 ,2.38283 ,23.38034 
179 ,33.7068 ,1.03112 ,2.34177 ,22.97740 
180 ,33.8827 ,1.03290 ,2.33150 ,22.87667 
181 ,34.0590 ,1.03465 ,2.33834 ,22.94382 
182 ,34.2349 ,1.03645 ,2.30070 ,22.57446 
183 ,34.4111 ,1.03817 ,2.28017 ,22.37299 
184 ,34.5872 ,1.04000 ,2.26990 ,22.27226 
185 ,34.8113 ,1.04201 ,2.27332 ,22.30584 
186 ,34.9873 ,1.04392 ,2.23226 ,21.90290 
187 ,35.1953 ,1.04596 ,2.22541 ,21.83574 
188 ,35.3871 ,1.04791 ,2.21172 ,21.70143 
189 ,35.5637 ,1.04967 ,2.20146 ,21.60069 
190 ,35.7714 ,1.05167 ,2.18777 ,21.46638 
191 ,35.9479 ,1.05357 ,2.17408 ,21.33206 
192 ,36.1395 ,1.05547 ,2.17408 ,21.33206 
193 ,36.3155 ,1.05719 ,2.15355 ,21.13059 
194 ,36.5241 ,1.05915 ,2.11590 ,20.76123 
195 ,36.7160 ,1.06117 ,2.10564 ,20.66050 
196 ,36.8921 ,1.06302 ,2.08510 ,20.45903 
197 ,37.0682 ,1.06479 ,2.08168 ,20.42545 
198 ,37.2604 ,1.06658 ,2.08510 ,20.45903 
199 ,37.4524 ,1.06851 ,2.05430 ,20.15682 
200 ,37.6286 ,1.07033 ,2.03377 ,19.95535 
201 ,37.8366 ,1.07237 ,2.04061 ,20.02251 
202 ,38.0127 ,1.07422 ,2.01666 ,19.78746 
203 ,38.2048 ,1.07608 ,1.99613 ,19.58599 
204 ,38.3964 ,1.07795 ,1.99270 ,19.55241 
205 ,38.5729 ,1.07977 ,1.97559 ,19.38452 
206 ,38.7804 ,1.08181 ,1.96875 ,19.31737 
207 ,38.9569 ,1.08359 ,1.95506 ,19.18305 
208 ,39.1354 ,1.08538 ,1.93111 ,18.94801 
209 ,39.3410 ,1.08741 ,1.92426 ,18.88085 
210 ,39.5173 ,1.08926 ,1.91057 ,18.74654 
211 ,39.7255 ,1.09126 ,1.87977 ,18.44433 
212 ,39.9335 ,1.09336 ,1.87635 ,18.41075 
213 ,40.1416 ,1.09530 ,1.86266 ,18.27644 
214 ,40.3496 ,1.09748 ,1.82502 ,17.90708 
215 ,40.5416 ,1.09939 ,1.83186 ,17.97423 
216 ,40.7337 ,1.10134 ,1.81133 ,17.77276 
217 ,40.9417 ,1.10337 ,1.79422 ,17.60487 
218 ,41.1180 ,1.10521 ,1.80106 ,17.67203 
219 ,41.3260 ,1.10725 ,1.76684 ,17.33625 
220 ,41.5021 ,1.10904 ,1.74973 ,17.16836 
221 ,41.6938 ,1.11102 ,1.72235 ,16.89973 
222 ,41.8863 ,1.11287 ,1.71551 ,16.83257 
223 ,42.0784 ,1.11477 ,1.71893 ,16.86615 
224 ,42.2705 ,1.11666 ,1.69155 ,16.59752 
225 ,42.4785 ,1.11875 ,1.69498 ,16.63110 
226 ,42.6706 ,1.12077 ,1.66075 ,16.29532 
227 ,42.8626 ,1.12258 ,1.66075 ,16.29532 
228 ,43.0546 ,1.12448 ,1.62653 ,15.95954 
229 ,43.2467 ,1.12644 ,1.60258 ,15.72449 
230 ,43.4228 ,1.12824 ,1.60258 ,15.72449 
231 ,43.5986 ,1.13006 ,1.59916 ,15.69091 
232 ,43.7910 ,1.13189 ,1.57862 ,15.48944 
233 ,43.9832 ,1.13385 ,1.57520 ,15.45586 
234 ,44.1912 ,1.13589 ,1.54440 ,15.15366 
235 ,44.3988 ,1.13791 ,1.55467 ,15.25439 
236 ,44.5751 ,1.13977 ,1.54098 ,15.12008 
237 ,44.7674 ,1.14172 ,1.51018 ,14.81787 
238 ,44.9431 ,1.14348 ,1.49307 ,14.64998 
239 ,45.1545 ,1.14533 ,1.48280 ,14.54925 
240 ,45.3597 ,1.14758 ,1.48622 ,14.58283 
241 ,45.5518 ,1.14955 ,1.45542 ,14.28062 
242 ,45.7599 ,1.15156 ,1.45542 ,14.28062 
243 ,45.9520 ,1.15352 ,1.44516 ,14.17989 
244 ,46.1440 ,1.15540 ,1.40067 ,13.74337 
245 ,46.3521 ,1.15747 ,1.38698 ,13.60906 
246 ,46.5443 ,1.15944 ,1.37329 ,13.47474 
247 ,46.7200 ,1.16135 ,1.39725 ,13.70979 
248 ,46.9123 ,1.16309 ,1.35960 ,13.34043 
249 ,47.1039 ,1.16507 ,1.34934 ,13.23969 
250 ,47.2805 ,1.16682 ,1.33565 ,13.10538 
251 ,47.4881 ,1.16880 ,1.31169 ,12.87033 
252 ,47.6642 ,1.17068 ,1.31512 ,12.90391 
253 ,47.8242 ,1.17239 ,1.28774 ,12.63528 
254 ,48.0004 ,1.17399 ,1.28089 ,12.56813 
255 ,48.1764 ,1.17575 ,1.28774 ,12.63528 
256 ,48.3689 ,1.17773 ,1.25352 ,12.29950 
257 ,48.5772 ,1.17970 ,1.26720 ,12.43381 
258 ,48.7850 ,1.18180 ,1.22614 ,12.03088 
259 ,48.9770 ,1.18368 ,1.21929 ,11.96372 
260 ,49.1533 ,1.18549 ,1.21587 ,11.93014 
261 ,49.3614 ,1.18750 ,1.20218 ,11.79583 
262 ,49.5534 ,1.18956 ,1.19534 ,11.72867 
263 ,49.7452 ,1.19145 ,1.16112 ,11.39289 
264 ,49.9216 ,1.19321 ,1.15427 ,11.32573 
265 ,50.1297 ,1.19523 ,1.14401 ,11.22500 
266 ,50.3214 ,1.19715 ,1.11663 ,10.95637 
267 ,50.5139 ,1.19904 ,1.12005 ,10.98995 
268 ,50.7218 ,1.20120 ,1.09952 ,10.78848 
269 ,50.8980 ,1.20301 ,1.09267 ,10.72132 
270 ,51.0900 ,1.20482 ,1.07214 ,10.51985 
271 ,51.5222 ,1.20788 ,1.06187 ,10.41912 
272 ,51.6983 ,1.21097 ,1.05503 ,10.35196 
273 ,51.9064 ,1.21298 ,1.01396 ,9.94902 
274 ,52.0985 ,1.21495 ,1.01396 ,9.94902 
275 ,52.2906 ,1.21687 ,1.01054 ,9.91544 
276 ,52.4824 ,1.21876 ,0.99001 ,9.71397 
277 ,52.6748 ,1.22069 ,0.99685 ,9.78113 
278 ,52.8828 ,1.22277 ,0.96263 ,9.44535 
279 ,53.0749 ,1.22471 ,0.96605 ,9.47892 
280 ,53.2511 ,1.22650 ,0.95921 ,9.41177 
281 ,53.4590 ,1.22847 ,0.93183 ,9.14314 
282 ,53.6352 ,1.23037 ,0.91814 ,9.00883 
283 ,53.8111 ,1.23210 ,0.92157 ,9.04241 
284 ,53.9870 ,1.23382 ,0.89761 ,8.80736 
285 ,54.1632 ,1.23561 ,0.88392 ,8.67305 
286 ,54.3552 ,1.23747 ,0.88734 ,8.70662 
287 ,54.5314 ,1.23932 ,0.87023 ,8.53873 
288 ,54.7235 ,1.24117 ,0.84286 ,8.27011 
289 ,54.8998 ,1.24302 ,0.83601 ,8.20295 
290 ,55.0916 ,1.24487 ,0.82232 ,8.06864 
291 ,55.2999 ,1.24698 ,0.80521 ,7.90074 
292 ,55.5077 ,1.24899 ,0.79495 ,7.80001 
293 ,55.7003 ,1.25089 ,0.79837 ,7.83359 
294 ,55.8919 ,1.25286 ,0.78810 ,7.73285 
295 ,56.0840 ,1.25488 ,0.76415 ,7.49780 
296 ,56.2761 ,1.25663 ,0.75046 ,7.36349 
297 ,56.4842 ,1.25875 ,0.72992 ,7.16202 
298 ,56.6604 ,1.26058 ,0.72308 ,7.09486 
299 ,56.8520 ,1.26251 ,0.73677 ,7.22918 
300 ,57.0125 ,1.26424 ,0.71281 ,6.99413 
301 ,57.2046 ,1.26596 ,0.69913 ,6.85982 
302 ,57.3806 ,1.26778 ,0.66833 ,6.55761 
303 ,57.5728 ,1.26966 ,0.67517 ,6.62477 
304 ,57.7648 ,1.27159 ,0.65464 ,6.42330 
305 ,57.9729 ,1.27361 ,0.64437 ,6.32256 
306 ,58.1489 ,1.27542 ,0.62726 ,6.15467 
307 ,58.3410 ,1.27733 ,0.63410 ,6.22183 
308 ,58.5330 ,1.27930 ,0.62384 ,6.12109 
309 ,58.7252 ,1.28116 ,0.58962 ,5.78531 
310 ,58.9173 ,1.28310 ,0.60673 ,5.95320 
311 ,59.1254 ,1.28523 ,0.56566 ,5.55026 
312 ,59.3174 ,1.28714 ,0.57251 ,5.61742 
313 ,59.4935 ,1.28893 ,0.55539 ,5.44953 
314 ,59.6854 ,1.29081 ,0.53828 ,5.28164 
315 ,59.8777 ,1.29268 ,0.54513 ,5.34879 
316 ,60.0853 ,1.29475 ,0.51775 ,5.08017 
317 ,60.2617 ,1.29660 ,0.50064 ,4.91228 
318 ,60.4696 ,1.29859 ,0.49722 ,4.87870 
319 ,60.6619 ,1.30055 ,0.48353 ,4.74438 
320 ,60.8382 ,1.30237 ,0.48011 ,4.71081 
321 ,61.0462 ,1.30434 ,0.46300 ,4.54291 
322 ,61.2381 ,1.30636 ,0.44931 ,4.40860 
323 ,61.4468 ,1.30833 ,0.44246 ,4.34144 
324 ,61.6384 ,1.31030 ,0.43220 ,4.24071 
325 ,61.8464 ,1.31240 ,0.40824 ,4.00566 
326 ,62.0225 ,1.31416 ,0.40140 ,3.93850 
327 ,62.1822 ,1.31591 ,0.41166 ,4.03924 
328 ,62.3907 ,1.31769 ,0.40482 ,3.97208 
329 ,62.5828 ,1.31980 ,0.36375 ,3.56914 
330 ,62.7748 ,1.32162 ,0.36718 ,3.60272 
331 ,62.9670 ,1.32359 ,0.35691 ,3.50199 
332 ,63.1586 ,1.32549 ,0.34664 ,3.40125 
333 ,63.3351 ,1.32737 ,0.35006 ,3.43483 
334 ,63.5111 ,1.32904 ,0.34664 ,3.40125 
335 ,63.7193 ,1.33105 ,0.32611 ,3.19978 
336 ,63.9113 ,1.33310 ,0.31926 ,3.13263 
337 ,64.0875 ,1.33483 ,0.29189 ,2.86400 
338 ,64.2954 ,1.33684 ,0.28847 ,2.83042 
339 ,64.5033 ,1.33879 ,0.27135 ,2.66253 
340 ,64.6953 ,1.34088 ,0.27478 ,2.69611 
341 ,64.9038 ,1.34292 ,0.24740 ,2.42748 
342 ,65.0957 ,1.34490 ,0.24398 ,2.39390 
343 ,65.2877 ,1.34681 ,0.23371 ,2.29317 
344 ,65.4799 ,1.34869 ,0.22002 ,2.15885 
345 ,65.6720 ,1.35067 ,0.22344 ,2.19243 
346 ,65.8640 ,1.35267 ,0.20291 ,1.99096 
347 ,66.0403 ,1.35436 ,0.18580 ,1.82307 
348 ,66.2321 ,1.35618 ,0.18238 ,1.78949 
349 ,66.4082 ,1.35799 ,0.17211 ,1.68876 
350 ,66.5842 ,1.35986 ,0.15842 ,1.55445 
351 ,66.7760 ,1.36162 ,0.16185 ,1.58802 
352 ,66.9522 ,1.36347 ,0.15158 ,1.48729 
353 ,67.1286 ,1.36518 ,0.12762 ,1.25224 
354 ,67.3363 ,1.36723 ,0.13105 ,1.28582 
355 ,67.5285 ,1.36917 ,0.10709 ,1.05077 
356 ,67.7367 ,1.37121 ,0.10025 ,0.98361 
357 ,67.9447 ,1.37335 ,0.07287 ,0.71499 
358 ,68.1210 ,1.37516 ,0.06602 ,0.64783 
359 ,68.3128 ,1.37701 ,0.07971 ,0.78214 
360 ,68.5050 ,1.37899 ,0.05576 ,0.54710 
361 ,68.6968 ,1.38079 ,0.03522 ,0.34563 
362 ,68.8892 ,1.38281 ,0.03180 ,0.31205 
363 ,69.0813 ,1.38477 ,0.01469 ,0.14416 
364 ,69.2894 ,1.38669 ,0.02496 ,0.24489 
365 ,69.4973 ,1.38883 ,0.00443 ,0.04342 
366 ,69.7054 ,1.39089 ,-0.01269 ,-0.12447 
367 ,69.8817 ,1.39274 ,-0.02295 ,-0.22520 
368 ,70.0895 ,1.39484 ,-0.02637 ,-0.25878 
369 ,70.2818 ,1.39678 ,-0.04691 ,-0.46025 
370 ,70.4899 ,1.39871 ,-0.05717 ,-0.56099 
371 ,70.6655 ,1.40062 ,-0.06060 ,-0.59457 
372 ,70.8418 ,1.40233 ,-0.07771 ,-0.76246 
373 ,71.0342 ,1.40422 ,-0.08113 ,-0.79604 
374 ,71.2423 ,1.40631 ,-0.09140 ,-0.89677 
375 ,71.4342 ,1.40831 ,-0.09140 ,-0.89677 
376 ,71.6104 ,1.41004 ,-0.09140 ,-0.89677 
377 ,71.7862 ,1.41177 ,-0.12904 ,-1.26613 
378 ,71.9945 ,1.41377 ,-0.12219 ,-1.19898 
379 ,72.1860 ,1.41568 ,-0.12562 ,-1.23255 
380 ,72.3787 ,1.41771 ,-0.15642 ,-1.53476 
381 ,72.5704 ,1.41960 ,-0.16668 ,-1.63549 
382 ,72.7628 ,1.42153 ,-0.16668 ,-1.63549 
383 ,72.9550 ,1.42345 ,-0.17353 ,-1.70265 
384 ,73.1469 ,1.42529 ,-0.18037 ,-1.76981 
385 ,73.3551 ,1.42736 ,-0.19406 ,-1.90412 
386 ,73.5631 ,1.42945 ,-0.21117 ,-2.07201 
387 ,73.7392 ,1.43129 ,-0.22144 ,-2.17275 
388 ,73.9313 ,1.43317 ,-0.22144 ,-2.17275 
389 ,74.1393 ,1.43528 ,-0.22828 ,-2.23990 
390 ,74.3152 ,1.43709 ,-0.22828 ,-2.23990 
391 ,74.4912 ,1.43881 ,-0.23855 ,-2.34064 
392 ,74.6996 ,1.44078 ,-0.27961 ,-2.74358 
393 ,74.8917 ,1.44288 ,-0.27619 ,-2.71000 
394 ,75.0677 ,1.44455 ,-0.27619 ,-2.71000 
395 ,75.2757 ,1.44658 ,-0.28646 ,-2.81073 
396 ,75.4518 ,1.44855 ,-0.32068 ,-3.14652 
397 ,75.6440 ,1.45025 ,-0.31726 ,-3.11294 
398 ,75.8359 ,1.45221 ,-0.31384 ,-3.07936 
399 ,76.0281 ,1.45412 ,-0.34464 ,-3.38156 
400 ,76.2199 ,1.45608 ,-0.34121 ,-3.34799 
401 ,76.4122 ,1.45808 ,-0.34806 ,-3.41514 
402 ,76.5882 ,1.45982 ,-0.34464 ,-3.38156 
403 ,76.7644 ,1.46149 ,-0.38228 ,-3.75093 
404 ,76.9562 ,1.46340 ,-0.37544 ,-3.68377 
405 ,77.1487 ,1.46543 ,-0.38570 ,-3.78450 
406 ,77.3401 ,1.46732 ,-0.39255 ,-3.85166 
407 ,77.5326 ,1.46913 ,-0.39255 ,-3.85166 
408 ,77.7407 ,1.47115 ,-0.41650 ,-4.08671 
409 ,77.9493 ,1.47321 ,-0.41308 ,-4.05313 
410 ,78.1411 ,1.47527 ,-0.43361 ,-4.25460 
411 ,78.3330 ,1.47713 ,-0.44730 ,-4.38891 
412 ,78.5407 ,1.47924 ,-0.45072 ,-4.42249 
413 ,78.7494 ,1.48133 ,-0.46783 ,-4.59038 
414 ,78.9411 ,1.48331 ,-0.49179 ,-4.82543 
415 ,79.1173 ,1.48503 ,-0.47810 ,-4.69112 
416 ,79.3094 ,1.48694 ,-0.48152 ,-4.72470 
417 ,79.4850 ,1.48876 ,-0.48837 ,-4.79185 
418 ,79.6774 ,1.49057 ,-0.50206 ,-4.92617 
419 ,79.8536 ,1.49244 ,-0.51232 ,-5.02690 
420 ,80.0458 ,1.49437 ,-0.52943 ,-5.19479 
421 ,80.2376 ,1.49627 ,-0.52943 ,-5.19479 
422 ,80.4141 ,1.49802 ,-0.54312 ,-5.32911 
423 ,80.6059 ,1.49994 ,-0.56023 ,-5.49700 
424 ,80.7819 ,1.50169 ,-0.56365 ,-5.53058 
425 ,80.9578 ,1.50343 ,-0.57392 ,-5.63131 
426 ,81.1659 ,1.50552 ,-0.58761 ,-5.76562 
427 ,81.3579 ,1.50745 ,-0.58419 ,-5.73205 
428 ,81.5343 ,1.50920 ,-0.59103 ,-5.79920 
429 ,81.7102 ,1.51102 ,-0.60814 ,-5.96709 
430 ,81.9023 ,1.51283 ,-0.61156 ,-6.00067 
431 ,82.0780 ,1.51465 ,-0.63552 ,-6.23572 
432 ,82.2543 ,1.51641 ,-0.62183 ,-6.10141 
433 ,82.4625 ,1.51845 ,-0.63552 ,-6.23572 
434 ,82.6388 ,1.52026 ,-0.63552 ,-6.23572 
435 ,82.8627 ,1.52232 ,-0.66290 ,-6.50435 
436 ,83.0707 ,1.52447 ,-0.66290 ,-6.50435 
437 ,83.2470 ,1.52631 ,-0.68685 ,-6.73940 
438 ,83.4549 ,1.52835 ,-0.67659 ,-6.63866 
439 ,83.6310 ,1.53016 ,-0.69370 ,-6.80655 
440 ,83.8227 ,1.53204 ,-0.71423 ,-7.00802 
441 ,83.9992 ,1.53383 ,-0.71081 ,-6.97444 
442 ,84.1909 ,1.53568 ,-0.72107 ,-7.07518 
443 ,84.3673 ,1.53753 ,-0.73476 ,-7.20949 
444 ,84.5750 ,1.53954 ,-0.73476 ,-7.20949 
445 ,84.7515 ,1.54137 ,-0.74161 ,-7.27665 
446 ,84.9432 ,1.54325 ,-0.75872 ,-7.44454 
447 ,85.1352 ,1.54516 ,-0.75187 ,-7.37738 
448 ,85.3272 ,1.54705 ,-0.77925 ,-7.64601 
449 ,85.5199 ,1.54903 ,-0.76898 ,-7.54527 
450 ,85.7440 ,1.55129 ,-0.80321 ,-7.88106 
451 ,85.9357 ,1.55323 ,-0.79294 ,-7.78032 
452 ,86.1282 ,1.55511 ,-0.82716 ,-8.11611 
453 ,86.3202 ,1.55708 ,-0.81005 ,-7.94821 
454 ,86.5122 ,1.55897 ,-0.81347 ,-7.98179 
455 ,86.7204 ,1.56097 ,-0.84085 ,-8.25042 
456 ,86.9123 ,1.56294 ,-0.84427 ,-8.28400 
457 ,87.1045 ,1.56480 ,-0.84427 ,-8.28400 
458 ,87.3127 ,1.56692 ,-0.86481 ,-8.48547 
459 ,87.5205 ,1.56890 ,-0.87165 ,-8.55262 
460 ,87.7129 ,1.57095 ,-0.87849 ,-8.61978 
461 ,87.9207 ,1.57302 ,-0.88192 ,-8.65336 
462 ,88.1126 ,1.57499 ,-0.88534 ,-8.68694 
463 ,88.3048 ,1.57683 ,-0.90929 ,-8.92198 
