Data stamp = , 24-04-2022 20:20:51 872

Calibration Values: 
Slope = , 26.54 , g/V 
Offset Voltage at no contact = , -0.501760 , V 

No , Time , Stage Position ,   Mass , Force 
   ,  (s) ,      (mm)      ,   (g)  , (mN)  

1 ,0.0000 ,0.69945 ,5.31905 ,52.19052 
2 ,0.2020 ,0.69951 ,5.31563 ,52.15694 
3 ,0.6505 ,0.70098 ,5.32247 ,52.22410 
4 ,0.8584 ,0.70278 ,5.31221 ,52.12337 
5 ,1.0508 ,0.70477 ,5.30536 ,52.05621 
6 ,1.2589 ,0.70674 ,5.29167 ,51.92190 
7 ,1.4669 ,0.70878 ,5.31563 ,52.15694 
8 ,1.6430 ,0.71070 ,5.30878 ,52.08979 
9 ,1.8191 ,0.71242 ,5.30878 ,52.08979 
10 ,2.0112 ,0.71433 ,5.28825 ,51.88832 
11 ,2.2353 ,0.71640 ,5.27456 ,51.75401 
12 ,2.4434 ,0.71862 ,5.25745 ,51.58611 
13 ,2.6350 ,0.72053 ,5.21296 ,51.14960 
14 ,2.8275 ,0.72239 ,5.22323 ,51.25033 
15 ,3.0196 ,0.72446 ,5.21639 ,51.18317 
16 ,3.2117 ,0.72620 ,5.17190 ,50.74666 
17 ,3.4038 ,0.72825 ,5.16848 ,50.71308 
18 ,3.5798 ,0.73003 ,5.16505 ,50.67950 
19 ,3.7721 ,0.73193 ,5.11714 ,50.20940 
20 ,3.9800 ,0.73394 ,5.10688 ,50.10867 
21 ,4.1561 ,0.73577 ,5.08977 ,49.94078 
22 ,4.3482 ,0.73765 ,5.06239 ,49.67215 
23 ,4.5562 ,0.73972 ,5.03501 ,49.40352 
24 ,4.7640 ,0.74184 ,5.03159 ,49.36995 
25 ,4.9559 ,0.74369 ,4.99737 ,49.03416 
26 ,5.1324 ,0.74553 ,4.98026 ,48.86627 
27 ,5.3086 ,0.74726 ,4.96999 ,48.76554 
28 ,5.5166 ,0.74929 ,4.94946 ,48.56407 
29 ,5.7086 ,0.75125 ,4.92208 ,48.29544 
30 ,5.8843 ,0.75305 ,4.91866 ,48.26186 
31 ,6.0773 ,0.75494 ,4.90155 ,48.09397 
32 ,6.2529 ,0.75678 ,4.87759 ,47.85892 
33 ,6.4450 ,0.75864 ,4.86048 ,47.69103 
34 ,6.6369 ,0.76052 ,4.82284 ,47.32167 
35 ,6.8131 ,0.76236 ,4.83310 ,47.42240 
36 ,6.9890 ,0.76408 ,4.80230 ,47.12020 
37 ,7.1651 ,0.76587 ,4.77835 ,46.88515 
38 ,7.3573 ,0.76767 ,4.78177 ,46.91873 
39 ,7.5493 ,0.76972 ,4.74413 ,46.54937 
40 ,7.7255 ,0.77146 ,4.73044 ,46.41506 
41 ,7.9173 ,0.77328 ,4.71333 ,46.24716 
42 ,8.1092 ,0.77527 ,4.67911 ,45.91138 
43 ,8.2693 ,0.77702 ,4.68253 ,45.94496 
44 ,8.4453 ,0.77863 ,4.66542 ,45.77707 
45 ,8.6214 ,0.78045 ,4.65515 ,45.67633 
46 ,8.8139 ,0.78226 ,4.63804 ,45.50844 
47 ,9.0057 ,0.78427 ,4.61751 ,45.30697 
48 ,9.1822 ,0.78605 ,4.60382 ,45.17266 
49 ,9.3738 ,0.78797 ,4.58328 ,44.97119 
50 ,9.5502 ,0.78967 ,4.55591 ,44.70256 
51 ,9.7262 ,0.79145 ,4.54564 ,44.60183 
52 ,9.9178 ,0.79341 ,4.53880 ,44.53467 
53 ,10.0942 ,0.79513 ,4.51826 ,44.33320 
54 ,10.2864 ,0.79696 ,4.49089 ,44.06457 
55 ,10.4945 ,0.79913 ,4.46351 ,43.79595 
56 ,10.6865 ,0.80100 ,4.46351 ,43.79595 
57 ,10.8785 ,0.80291 ,4.43955 ,43.56090 
58 ,11.0709 ,0.80479 ,4.42244 ,43.39301 
59 ,11.2625 ,0.80682 ,4.40533 ,43.22512 
60 ,11.4389 ,0.80862 ,4.39507 ,43.12438 
61 ,11.6149 ,0.81030 ,4.36769 ,42.85576 
62 ,11.7911 ,0.81206 ,4.34031 ,42.58713 
63 ,11.9831 ,0.81405 ,4.33347 ,42.51997 
64 ,12.1752 ,0.81590 ,4.30951 ,42.28492 
65 ,12.3509 ,0.81769 ,4.26502 ,41.84841 
66 ,12.5274 ,0.81947 ,4.27529 ,41.94914 
67 ,12.7035 ,0.82125 ,4.26502 ,41.84841 
68 ,12.9117 ,0.82327 ,4.24107 ,41.61336 
69 ,13.1037 ,0.82515 ,4.23422 ,41.54620 
70 ,13.2958 ,0.82710 ,4.19658 ,41.17684 
71 ,13.4876 ,0.82909 ,4.18974 ,41.10968 
72 ,13.6799 ,0.83092 ,4.18289 ,41.04253 
73 ,13.8560 ,0.83275 ,4.16578 ,40.87464 
74 ,14.0481 ,0.83467 ,4.12471 ,40.47170 
75 ,14.2242 ,0.83640 ,4.12471 ,40.47170 
76 ,14.4162 ,0.83842 ,4.08707 ,40.10233 
77 ,14.5923 ,0.84011 ,4.08365 ,40.06876 
78 ,14.8004 ,0.84209 ,4.07680 ,40.00160 
79 ,14.9925 ,0.84403 ,4.03916 ,39.63224 
80 ,15.1847 ,0.84601 ,4.02547 ,39.49793 
81 ,15.3768 ,0.84793 ,4.02205 ,39.46435 
82 ,15.5683 ,0.84978 ,3.98441 ,39.09499 
83 ,15.7609 ,0.85171 ,3.97756 ,39.02783 
84 ,15.9529 ,0.85366 ,3.95361 ,38.79278 
85 ,16.1450 ,0.85557 ,3.95018 ,38.75920 
86 ,16.3211 ,0.85741 ,3.93307 ,38.59131 
87 ,16.5131 ,0.85926 ,3.90912 ,38.35626 
88 ,16.7211 ,0.86130 ,3.87832 ,38.05406 
89 ,16.9133 ,0.86330 ,3.85094 ,37.78543 
90 ,17.1050 ,0.86516 ,3.86121 ,37.88617 
91 ,17.2813 ,0.86700 ,3.84067 ,37.68470 
92 ,17.4735 ,0.86886 ,3.81672 ,37.44965 
93 ,17.6495 ,0.87067 ,3.78250 ,37.11387 
94 ,17.8416 ,0.87255 ,3.79619 ,37.24818 
95 ,18.0338 ,0.87442 ,3.75854 ,36.87882 
96 ,18.2256 ,0.87636 ,3.74828 ,36.77808 
97 ,18.4178 ,0.87821 ,3.74485 ,36.74450 
98 ,18.6258 ,0.88035 ,3.72090 ,36.50946 
99 ,18.8015 ,0.88217 ,3.70037 ,36.30799 
100 ,18.9777 ,0.88392 ,3.67983 ,36.10652 
101 ,19.1703 ,0.88587 ,3.65246 ,35.83789 
102 ,19.3620 ,0.88781 ,3.65930 ,35.90505 
103 ,19.5382 ,0.88950 ,3.63192 ,35.63642 
104 ,19.7143 ,0.89131 ,3.61139 ,35.43495 
105 ,19.8899 ,0.89313 ,3.57717 ,35.09917 
106 ,20.0665 ,0.89485 ,3.57032 ,35.03201 
107 ,20.2904 ,0.89701 ,3.54979 ,34.83054 
108 ,20.4985 ,0.89908 ,3.54637 ,34.79696 
109 ,20.6907 ,0.90093 ,3.52241 ,34.56192 
110 ,20.8826 ,0.90296 ,3.52241 ,34.56192 
111 ,21.0749 ,0.90491 ,3.49846 ,34.32687 
112 ,21.2510 ,0.90666 ,3.46766 ,34.02466 
113 ,21.4431 ,0.90860 ,3.45739 ,33.92393 
114 ,21.6349 ,0.91052 ,3.43344 ,33.68888 
115 ,21.8112 ,0.91227 ,3.41290 ,33.48741 
116 ,22.0031 ,0.91408 ,3.41290 ,33.48741 
117 ,22.1952 ,0.91609 ,3.41290 ,33.48741 
118 ,22.3875 ,0.91800 ,3.36499 ,33.01731 
119 ,22.5795 ,0.91988 ,3.36499 ,33.01731 
120 ,22.7556 ,0.92169 ,3.34446 ,32.81584 
121 ,22.9317 ,0.92348 ,3.32393 ,32.61437 
122 ,23.1393 ,0.92539 ,3.28628 ,32.24501 
123 ,23.2998 ,0.92725 ,3.29313 ,32.31217 
124 ,23.4918 ,0.92899 ,3.25891 ,31.97639 
125 ,23.6839 ,0.93091 ,3.26575 ,32.04354 
126 ,23.8600 ,0.93278 ,3.25206 ,31.90923 
127 ,24.0359 ,0.93448 ,3.22811 ,31.67418 
128 ,24.2441 ,0.93641 ,3.21442 ,31.53987 
129 ,24.4202 ,0.93836 ,3.20073 ,31.40555 
130 ,24.5960 ,0.94005 ,3.18020 ,31.20409 
131 ,24.7885 ,0.94196 ,3.15624 ,30.96904 
132 ,24.9804 ,0.94387 ,3.16309 ,31.03619 
133 ,25.1726 ,0.94587 ,3.12202 ,30.63325 
134 ,25.3484 ,0.94763 ,3.10833 ,30.49894 
135 ,25.5408 ,0.94958 ,3.10149 ,30.43178 
136 ,25.7329 ,0.95146 ,3.07069 ,30.12958 
137 ,25.9246 ,0.95330 ,3.08095 ,30.23031 
138 ,26.1166 ,0.95530 ,3.05358 ,29.96169 
139 ,26.3246 ,0.95735 ,3.02620 ,29.69306 
140 ,26.5011 ,0.95917 ,3.03304 ,29.76022 
141 ,26.6927 ,0.96104 ,2.99198 ,29.35728 
142 ,26.8850 ,0.96289 ,2.97144 ,29.15581 
143 ,27.0611 ,0.96477 ,2.96802 ,29.12223 
144 ,27.2695 ,0.96667 ,2.95091 ,28.95434 
145 ,27.4775 ,0.96882 ,2.93380 ,28.78645 
146 ,27.6533 ,0.97067 ,2.92696 ,28.71929 
147 ,27.8454 ,0.97255 ,2.90300 ,28.48424 
148 ,28.0216 ,0.97441 ,2.88247 ,28.28277 
149 ,28.1976 ,0.97607 ,2.87905 ,28.24919 
150 ,28.4057 ,0.97802 ,2.85851 ,28.04772 
151 ,28.5817 ,0.97994 ,2.85167 ,27.98057 
152 ,28.7900 ,0.98198 ,2.82771 ,27.74552 
153 ,28.9817 ,0.98394 ,2.79691 ,27.44332 
154 ,29.1740 ,0.98580 ,2.77296 ,27.20827 
155 ,29.3501 ,0.98764 ,2.76269 ,27.10753 
156 ,29.5419 ,0.98949 ,2.77296 ,27.20827 
157 ,29.7183 ,0.99139 ,2.75243 ,27.00680 
158 ,29.9104 ,0.99316 ,2.72847 ,26.77175 
159 ,30.1023 ,0.99507 ,2.71136 ,26.60386 
160 ,30.2785 ,0.99691 ,2.70794 ,26.57028 
161 ,30.4863 ,0.99891 ,2.70452 ,26.53670 
162 ,30.6623 ,1.00069 ,2.67714 ,26.26807 
163 ,30.8387 ,1.00254 ,2.65660 ,26.06661 
164 ,31.0148 ,1.00437 ,2.63607 ,25.86514 
165 ,31.1909 ,1.00603 ,2.60185 ,25.52935 
166 ,31.3830 ,1.00789 ,2.60527 ,25.56293 
167 ,31.5752 ,1.00978 ,2.57789 ,25.29430 
168 ,31.7508 ,1.01168 ,2.57789 ,25.29430 
169 ,31.9428 ,1.01347 ,2.56421 ,25.15999 
170 ,32.1190 ,1.01533 ,2.55736 ,25.09283 
171 ,32.3273 ,1.01733 ,2.51287 ,24.65632 
172 ,32.5354 ,1.01937 ,2.50603 ,24.58916 
173 ,32.7117 ,1.02121 ,2.48207 ,24.35411 
174 ,32.8874 ,1.02306 ,2.48892 ,24.42127 
175 ,33.0636 ,1.02476 ,2.46839 ,24.21980 
176 ,33.2395 ,1.02651 ,2.45812 ,24.11906 
177 ,33.4155 ,1.02823 ,2.43759 ,23.91759 
178 ,33.5919 ,1.03001 ,2.43416 ,23.88402 
179 ,33.8002 ,1.03204 ,2.41363 ,23.68255 
180 ,33.9919 ,1.03399 ,2.38283 ,23.38034 
181 ,34.2002 ,1.03607 ,2.37941 ,23.34676 
182 ,34.3922 ,1.03800 ,2.36230 ,23.17887 
183 ,34.5841 ,1.03988 ,2.35203 ,23.07814 
184 ,34.7604 ,1.04174 ,2.32808 ,22.84309 
185 ,34.9524 ,1.04355 ,2.30412 ,22.60804 
186 ,35.1282 ,1.04534 ,2.29728 ,22.54088 
187 ,35.3207 ,1.04736 ,2.30070 ,22.57446 
188 ,35.5127 ,1.04918 ,2.26990 ,22.27226 
189 ,35.7049 ,1.05109 ,2.25963 ,22.17152 
190 ,35.9129 ,1.05313 ,2.22883 ,21.86932 
191 ,36.1050 ,1.05510 ,2.23568 ,21.93647 
192 ,36.2970 ,1.05708 ,2.20830 ,21.66785 
193 ,36.4891 ,1.05902 ,2.19119 ,21.49996 
194 ,36.6652 ,1.06078 ,2.17408 ,21.33206 
195 ,36.8412 ,1.06253 ,2.17750 ,21.36564 
196 ,37.0171 ,1.06426 ,2.16381 ,21.23133 
197 ,37.2095 ,1.06619 ,2.13644 ,20.96270 
198 ,37.4016 ,1.06814 ,2.13301 ,20.92912 
199 ,37.6097 ,1.07008 ,2.10564 ,20.66050 
200 ,37.8018 ,1.07202 ,2.08510 ,20.45903 
201 ,37.9934 ,1.07410 ,2.08852 ,20.49261 
202 ,38.1694 ,1.07576 ,2.05430 ,20.15682 
203 ,38.3459 ,1.07753 ,2.05773 ,20.19040 
204 ,38.5540 ,1.07955 ,2.02350 ,19.85462 
205 ,38.7141 ,1.08136 ,2.02693 ,19.88820 
206 ,38.8901 ,1.08299 ,2.00639 ,19.68673 
207 ,39.0822 ,1.08484 ,1.99955 ,19.61957 
208 ,39.2742 ,1.08671 ,1.96875 ,19.31737 
209 ,39.4504 ,1.08856 ,1.95848 ,19.21663 
210 ,39.6425 ,1.09046 ,1.95506 ,19.18305 
211 ,39.8345 ,1.09235 ,1.92768 ,18.91443 
212 ,40.0106 ,1.09417 ,1.91399 ,18.78011 
213 ,40.1866 ,1.09594 ,1.91742 ,18.81369 
214 ,40.3787 ,1.09776 ,1.89688 ,18.61222 
215 ,40.5866 ,1.09989 ,1.89004 ,18.54507 
216 ,40.7629 ,1.10174 ,1.86608 ,18.31002 
217 ,40.9390 ,1.10343 ,1.85240 ,18.17570 
218 ,41.1310 ,1.10529 ,1.84897 ,18.14213 
219 ,41.3229 ,1.10732 ,1.83528 ,18.00781 
220 ,41.5313 ,1.10923 ,1.80106 ,17.67203 
221 ,41.7391 ,1.11146 ,1.79764 ,17.63845 
222 ,41.9154 ,1.11324 ,1.77711 ,17.43698 
223 ,42.0914 ,1.11499 ,1.76000 ,17.26909 
224 ,42.2675 ,1.11672 ,1.75315 ,17.20193 
225 ,42.4432 ,1.11850 ,1.74631 ,17.13478 
226 ,42.6356 ,1.12034 ,1.72578 ,16.93331 
227 ,42.8437 ,1.12241 ,1.71551 ,16.83257 
228 ,43.0197 ,1.12430 ,1.69840 ,16.66468 
229 ,43.2119 ,1.12622 ,1.68471 ,16.53037 
230 ,43.4201 ,1.12829 ,1.67444 ,16.42963 
231 ,43.6120 ,1.13012 ,1.64707 ,16.16101 
232 ,43.7882 ,1.13197 ,1.63680 ,16.06027 
233 ,43.9803 ,1.13386 ,1.62653 ,15.95954 
234 ,44.1723 ,1.13576 ,1.60942 ,15.79164 
235 ,44.3484 ,1.13759 ,1.59231 ,15.62375 
236 ,44.5403 ,1.13939 ,1.58204 ,15.52302 
237 ,44.7326 ,1.14134 ,1.56151 ,15.32155 
238 ,44.9246 ,1.14332 ,1.56493 ,15.35513 
239 ,45.1008 ,1.14503 ,1.54782 ,15.18724 
240 ,45.2926 ,1.14695 ,1.52729 ,14.98577 
241 ,45.4849 ,1.14895 ,1.52045 ,14.91861 
242 ,45.6929 ,1.15090 ,1.50333 ,14.75072 
243 ,45.8690 ,1.15277 ,1.48280 ,14.54925 
244 ,46.0450 ,1.15447 ,1.48280 ,14.54925 
245 ,46.2212 ,1.15628 ,1.47253 ,14.44851 
246 ,46.4292 ,1.15823 ,1.45542 ,14.28062 
247 ,46.6213 ,1.16016 ,1.43147 ,14.04557 
248 ,46.8134 ,1.16224 ,1.43489 ,14.07915 
249 ,47.0054 ,1.16406 ,1.41436 ,13.87768 
250 ,47.1815 ,1.16600 ,1.38698 ,13.60906 
251 ,47.3737 ,1.16768 ,1.36987 ,13.44116 
252 ,47.5657 ,1.16976 ,1.36303 ,13.37401 
253 ,47.7577 ,1.17151 ,1.36303 ,13.37401 
254 ,47.9500 ,1.17352 ,1.34591 ,13.20612 
255 ,48.1580 ,1.17562 ,1.31169 ,12.87033 
256 ,48.3500 ,1.17747 ,1.31512 ,12.90391 
257 ,48.5261 ,1.17931 ,1.31169 ,12.87033 
258 ,48.7182 ,1.18115 ,1.26720 ,12.43381 
259 ,48.9258 ,1.18320 ,1.25694 ,12.33308 
260 ,49.1024 ,1.18504 ,1.25694 ,12.33308 
261 ,49.2943 ,1.18698 ,1.23641 ,12.13161 
262 ,49.4863 ,1.18884 ,1.23641 ,12.13161 
263 ,49.6787 ,1.19076 ,1.21929 ,11.96372 
264 ,49.8865 ,1.19285 ,1.20903 ,11.86298 
265 ,50.0784 ,1.19473 ,1.17823 ,11.56078 
266 ,50.2708 ,1.19676 ,1.17138 ,11.49362 
267 ,50.4629 ,1.19861 ,1.16112 ,11.39289 
268 ,50.6550 ,1.20059 ,1.13716 ,11.15784 
269 ,50.8469 ,1.20253 ,1.15085 ,11.29215 
270 ,51.0228 ,1.20426 ,1.12005 ,10.98995 
271 ,51.2154 ,1.20616 ,1.08925 ,10.68774 
272 ,51.4232 ,1.20821 ,1.10294 ,10.82206 
273 ,51.5994 ,1.21005 ,1.08241 ,10.62059 
274 ,51.7911 ,1.21188 ,1.07214 ,10.51985 
275 ,51.9672 ,1.21372 ,1.07214 ,10.51985 
276 ,52.1591 ,1.21567 ,1.03450 ,10.15049 
277 ,52.3517 ,1.21742 ,1.03450 ,10.15049 
278 ,52.5432 ,1.21948 ,1.02765 ,10.08333 
279 ,52.7199 ,1.22124 ,1.00712 ,9.88186 
280 ,52.9118 ,1.22308 ,0.99343 ,9.74755 
281 ,53.0880 ,1.22492 ,0.97974 ,9.61324 
282 ,53.2958 ,1.22691 ,0.97974 ,9.61324 
283 ,53.4880 ,1.22888 ,0.96605 ,9.47892 
284 ,53.6642 ,1.23070 ,0.95921 ,9.41177 
285 ,53.8403 ,1.23247 ,0.93183 ,9.14314 
286 ,54.0322 ,1.23433 ,0.92499 ,9.07598 
287 ,54.2244 ,1.23621 ,0.92157 ,9.04241 
288 ,54.4165 ,1.23811 ,0.90103 ,8.84094 
289 ,54.6246 ,1.24021 ,0.88734 ,8.70662 
290 ,54.8007 ,1.24204 ,0.87366 ,8.57231 
291 ,54.9927 ,1.24388 ,0.86681 ,8.50515 
292 ,55.1690 ,1.24571 ,0.85312 ,8.37084 
293 ,55.3444 ,1.24746 ,0.84286 ,8.27011 
294 ,55.5210 ,1.24924 ,0.82575 ,8.10221 
295 ,55.7290 ,1.25125 ,0.81548 ,8.00148 
296 ,55.9210 ,1.25326 ,0.81548 ,8.00148 
297 ,56.0968 ,1.25504 ,0.78468 ,7.69927 
298 ,56.2732 ,1.25670 ,0.77441 ,7.59854 
299 ,56.4652 ,1.25860 ,0.78126 ,7.66570 
300 ,56.6414 ,1.26047 ,0.76415 ,7.49780 
301 ,56.8175 ,1.26216 ,0.74361 ,7.29633 
302 ,56.9937 ,1.26395 ,0.71966 ,7.06129 
303 ,57.1855 ,1.26584 ,0.73677 ,7.22918 
304 ,57.3776 ,1.26781 ,0.70597 ,6.92697 
305 ,57.5532 ,1.26956 ,0.68886 ,6.75908 
306 ,57.7299 ,1.27131 ,0.69570 ,6.82624 
307 ,57.9218 ,1.27322 ,0.70255 ,6.89340 
308 ,58.0980 ,1.27500 ,0.66148 ,6.49046 
309 ,58.2900 ,1.27688 ,0.67517 ,6.62477 
310 ,58.4821 ,1.27876 ,0.63753 ,6.25541 
311 ,58.7060 ,1.28087 ,0.63753 ,6.25541 
312 ,58.8981 ,1.28298 ,0.61357 ,6.02036 
313 ,59.1062 ,1.28491 ,0.61699 ,6.05394 
314 ,59.2821 ,1.28682 ,0.60673 ,5.95320 
315 ,59.4741 ,1.28876 ,0.57935 ,5.68458 
316 ,59.6501 ,1.29055 ,0.57935 ,5.68458 
317 ,59.8426 ,1.29237 ,0.56224 ,5.51668 
318 ,60.0826 ,1.29479 ,0.56224 ,5.51668 
319 ,60.2752 ,1.29670 ,0.53486 ,5.24806 
320 ,60.4509 ,1.29854 ,0.52802 ,5.18090 
321 ,60.6270 ,1.30026 ,0.53828 ,5.28164 
322 ,60.8350 ,1.30230 ,0.49380 ,4.84512 
323 ,61.0269 ,1.30431 ,0.50064 ,4.91228 
324 ,61.2192 ,1.30622 ,0.49380 ,4.84512 
325 ,61.3952 ,1.30795 ,0.47668 ,4.67723 
326 ,61.5873 ,1.30979 ,0.47326 ,4.64365 
327 ,61.7636 ,1.31163 ,0.46642 ,4.57649 
328 ,61.9557 ,1.31349 ,0.42535 ,4.17355 
329 ,62.1636 ,1.31556 ,0.43220 ,4.24071 
330 ,62.3718 ,1.31763 ,0.41851 ,4.10640 
331 ,62.5478 ,1.31948 ,0.40824 ,4.00566 
332 ,62.7240 ,1.32122 ,0.41166 ,4.03924 
333 ,62.8996 ,1.32304 ,0.36718 ,3.60272 
334 ,63.0918 ,1.32485 ,0.38429 ,3.77061 
335 ,63.2682 ,1.32674 ,0.37744 ,3.70346 
336 ,63.4759 ,1.32871 ,0.35006 ,3.43483 
337 ,63.6522 ,1.33054 ,0.35006 ,3.43483 
338 ,63.8602 ,1.33248 ,0.33980 ,3.33410 
339 ,64.0525 ,1.33449 ,0.32269 ,3.16620 
340 ,64.2445 ,1.33645 ,0.32611 ,3.19978 
341 ,64.4206 ,1.33818 ,0.30558 ,2.99831 
342 ,64.6286 ,1.34016 ,0.30900 ,3.03189 
343 ,64.8048 ,1.34199 ,0.28847 ,2.83042 
344 ,64.9967 ,1.34390 ,0.26109 ,2.56179 
345 ,65.1885 ,1.34579 ,0.26793 ,2.62895 
346 ,65.3811 ,1.34774 ,0.24740 ,2.42748 
347 ,65.5731 ,1.34965 ,0.23713 ,2.32675 
348 ,65.7652 ,1.35155 ,0.23029 ,2.25959 
349 ,65.9412 ,1.35340 ,0.23029 ,2.25959 
350 ,66.1169 ,1.35513 ,0.19607 ,1.92381 
351 ,66.3094 ,1.35700 ,0.19949 ,1.95738 
352 ,66.5015 ,1.35898 ,0.18580 ,1.82307 
353 ,66.7095 ,1.36099 ,0.17896 ,1.75592 
354 ,66.8855 ,1.36281 ,0.16869 ,1.65518 
355 ,67.0778 ,1.36480 ,0.16185 ,1.58802 
356 ,67.2534 ,1.36656 ,0.15500 ,1.52087 
357 ,67.4299 ,1.36822 ,0.14473 ,1.42013 
358 ,67.6220 ,1.37013 ,0.12078 ,1.18508 
359 ,67.8300 ,1.37219 ,0.12078 ,1.18508 
360 ,68.0055 ,1.37404 ,0.11051 ,1.08435 
361 ,68.1817 ,1.37576 ,0.10367 ,1.01719 
362 ,68.3417 ,1.37752 ,0.08656 ,0.84930 
363 ,68.5181 ,1.37917 ,0.08314 ,0.81572 
364 ,68.6943 ,1.38095 ,0.06945 ,0.68141 
365 ,68.8863 ,1.38275 ,0.06260 ,0.61425 
366 ,69.0942 ,1.38485 ,0.03180 ,0.31205 
367 ,69.2865 ,1.38678 ,0.04891 ,0.47994 
368 ,69.4786 ,1.38873 ,0.02496 ,0.24489 
369 ,69.6707 ,1.39068 ,0.01127 ,0.11058 
370 ,69.8467 ,1.39246 ,0.01469 ,0.14416 
371 ,70.0229 ,1.39418 ,-0.01269 ,-0.12447 
372 ,70.2149 ,1.39609 ,-0.01269 ,-0.12447 
373 ,70.4068 ,1.39801 ,-0.00926 ,-0.09089 
374 ,70.5830 ,1.39987 ,-0.02295 ,-0.22520 
375 ,70.7754 ,1.40169 ,-0.04006 ,-0.39310 
376 ,70.9512 ,1.40347 ,-0.05717 ,-0.56099 
377 ,71.1433 ,1.40533 ,-0.05375 ,-0.52741 
378 ,71.3354 ,1.40724 ,-0.08797 ,-0.86319 
379 ,71.5112 ,1.40905 ,-0.09140 ,-0.89677 
380 ,71.7036 ,1.41090 ,-0.08113 ,-0.79604 
381 ,71.8956 ,1.41288 ,-0.10508 ,-1.03108 
382 ,72.0872 ,1.41478 ,-0.08455 ,-0.82961 
383 ,72.2637 ,1.41658 ,-0.10166 ,-0.99751 
384 ,72.4399 ,1.41838 ,-0.11877 ,-1.16540 
385 ,72.6318 ,1.42018 ,-0.13931 ,-1.36687 
386 ,72.8080 ,1.42204 ,-0.13588 ,-1.33329 
387 ,72.9838 ,1.42380 ,-0.14615 ,-1.43402 
388 ,73.1761 ,1.42559 ,-0.17695 ,-1.73623 
389 ,73.3682 ,1.42763 ,-0.17353 ,-1.70265 
390 ,73.5599 ,1.42948 ,-0.18379 ,-1.80338 
391 ,73.7363 ,1.43126 ,-0.19064 ,-1.87054 
392 ,73.9124 ,1.43304 ,-0.20433 ,-2.00485 
393 ,74.1046 ,1.43491 ,-0.19748 ,-1.93770 
394 ,74.2964 ,1.43689 ,-0.21117 ,-2.07201 
395 ,74.4886 ,1.43875 ,-0.23513 ,-2.30706 
396 ,74.6808 ,1.44066 ,-0.22828 ,-2.23990 
397 ,74.8887 ,1.44276 ,-0.24881 ,-2.44137 
398 ,75.0809 ,1.44474 ,-0.24539 ,-2.40779 
399 ,75.2568 ,1.44651 ,-0.27277 ,-2.67642 
400 ,75.4490 ,1.44843 ,-0.26935 ,-2.64284 
401 ,75.6251 ,1.45015 ,-0.27619 ,-2.71000 
402 ,75.8009 ,1.45196 ,-0.27961 ,-2.74358 
403 ,75.9933 ,1.45385 ,-0.30699 ,-3.01220 
404 ,76.2013 ,1.45589 ,-0.30357 ,-2.97863 
405 ,76.3771 ,1.45764 ,-0.33437 ,-3.28083 
406 ,76.5696 ,1.45957 ,-0.33095 ,-3.24725 
407 ,76.7777 ,1.46164 ,-0.35490 ,-3.48230 
408 ,76.9697 ,1.46359 ,-0.35148 ,-3.44872 
409 ,77.1777 ,1.46562 ,-0.36517 ,-3.58303 
410 ,77.3698 ,1.46763 ,-0.36517 ,-3.58303 
411 ,77.5618 ,1.46954 ,-0.36517 ,-3.58303 
412 ,77.7379 ,1.47134 ,-0.38228 ,-3.75093 
413 ,77.9140 ,1.47305 ,-0.40281 ,-3.95240 
414 ,78.1062 ,1.47499 ,-0.40966 ,-4.01955 
415 ,78.2979 ,1.47690 ,-0.41308 ,-4.05313 
416 ,78.4742 ,1.47865 ,-0.42335 ,-4.15387 
417 ,78.6504 ,1.48040 ,-0.42677 ,-4.18744 
418 ,78.8585 ,1.48242 ,-0.43361 ,-4.25460 
419 ,79.0501 ,1.48436 ,-0.43703 ,-4.28818 
420 ,79.2425 ,1.48630 ,-0.46441 ,-4.55681 
421 ,79.4507 ,1.48827 ,-0.48152 ,-4.72470 
422 ,79.6427 ,1.49031 ,-0.47468 ,-4.65754 
423 ,79.8347 ,1.49220 ,-0.48494 ,-4.75828 
424 ,80.0268 ,1.49408 ,-0.50890 ,-4.99332 
425 ,80.2027 ,1.49593 ,-0.49863 ,-4.89259 
426 ,80.4111 ,1.49805 ,-0.52601 ,-5.16121 
427 ,80.6191 ,1.50003 ,-0.53628 ,-5.26195 
428 ,80.7953 ,1.50184 ,-0.54654 ,-5.36268 
429 ,80.9871 ,1.50375 ,-0.52943 ,-5.19479 
430 ,81.1791 ,1.50568 ,-0.54654 ,-5.36268 
431 ,81.3715 ,1.50758 ,-0.56365 ,-5.53058 
432 ,81.5634 ,1.50961 ,-0.58077 ,-5.69847 
433 ,81.7556 ,1.51146 ,-0.58077 ,-5.69847 
434 ,81.9476 ,1.51332 ,-0.57734 ,-5.66489 
435 ,82.1558 ,1.51544 ,-0.59788 ,-5.86636 
436 ,82.3318 ,1.51729 ,-0.58761 ,-5.76562 
437 ,82.5078 ,1.51895 ,-0.60472 ,-5.93352 
438 ,82.7000 ,1.52078 ,-0.60472 ,-5.93352 
439 ,82.8921 ,1.52280 ,-0.62525 ,-6.13499 
440 ,83.0841 ,1.52473 ,-0.62183 ,-6.10141 
441 ,83.2601 ,1.52647 ,-0.63552 ,-6.23572 
442 ,83.4361 ,1.52825 ,-0.66632 ,-6.53793 
443 ,83.6283 ,1.53016 ,-0.65605 ,-6.43719 
444 ,83.8041 ,1.53201 ,-0.67659 ,-6.63866 
445 ,83.9807 ,1.53373 ,-0.68001 ,-6.67224 
446 ,84.1725 ,1.53554 ,-0.69027 ,-6.77297 
447 ,84.3805 ,1.53762 ,-0.70054 ,-6.87371 
448 ,84.5566 ,1.53953 ,-0.71423 ,-7.00802 
449 ,84.7489 ,1.54137 ,-0.71081 ,-6.97444 
450 ,84.9407 ,1.54325 ,-0.72107 ,-7.07518 
451 ,85.1330 ,1.54520 ,-0.75187 ,-7.37738 
452 ,85.3250 ,1.54708 ,-0.74161 ,-7.27665 
453 ,85.5007 ,1.54899 ,-0.75872 ,-7.44454 
454 ,85.6931 ,1.55074 ,-0.76214 ,-7.47812 
455 ,85.9012 ,1.55281 ,-0.76898 ,-7.54527 
456 ,86.0774 ,1.55466 ,-0.79978 ,-7.84748 
457 ,86.2851 ,1.55664 ,-0.77925 ,-7.64601 
458 ,86.4615 ,1.55852 ,-0.78952 ,-7.74674 
459 ,86.6536 ,1.56050 ,-0.79636 ,-7.81390 
460 ,86.8297 ,1.56219 ,-0.79636 ,-7.81390 
461 ,87.0219 ,1.56407 ,-0.82374 ,-8.08253 
462 ,87.2298 ,1.56604 ,-0.83058 ,-8.14968 
463 ,87.4057 ,1.56797 ,-0.82374 ,-8.08253 
