Data stamp = , 24-04-2022 12:38:56 061

Calibration Values: 
Slope = , 26.54 , g/V 
Offset Voltage at no contact = , -0.501760 , V 

No , Time , Stage Position ,   Mass , Force 
   ,  (s) ,      (mm)      ,   (g)  , (mN)  

1 ,0.0000 ,0.69939 ,5.29167 ,51.92190 
2 ,0.2192 ,0.69948 ,5.30878 ,52.08979 
3 ,0.5394 ,0.70036 ,5.28483 ,51.85474 
4 ,0.7319 ,0.70178 ,5.28483 ,51.85474 
5 ,0.9398 ,0.70347 ,5.30194 ,52.02263 
6 ,1.1161 ,0.70533 ,5.29852 ,51.98905 
7 ,1.3081 ,0.70721 ,5.27798 ,51.78758 
8 ,1.5003 ,0.70901 ,5.30194 ,52.02263 
9 ,1.7082 ,0.71120 ,5.28141 ,51.82116 
10 ,1.9164 ,0.71327 ,5.26430 ,51.65327 
11 ,2.1084 ,0.71519 ,5.24718 ,51.48538 
12 ,2.3005 ,0.71718 ,5.25061 ,51.51896 
13 ,2.5085 ,0.71916 ,5.22665 ,51.28391 
14 ,2.6844 ,0.72099 ,5.19927 ,51.01528 
15 ,2.8608 ,0.72279 ,5.21296 ,51.14960 
16 ,3.0529 ,0.72470 ,5.17190 ,50.74666 
17 ,3.2448 ,0.72652 ,5.16163 ,50.64592 
18 ,3.4211 ,0.72837 ,5.13768 ,50.41087 
19 ,3.6132 ,0.73026 ,5.11372 ,50.17583 
20 ,3.8048 ,0.73220 ,5.10003 ,50.04151 
21 ,3.9809 ,0.73395 ,5.08977 ,49.94078 
22 ,4.1569 ,0.73572 ,5.06239 ,49.67215 
23 ,4.3331 ,0.73751 ,5.06239 ,49.67215 
24 ,4.5093 ,0.73926 ,5.03159 ,49.36995 
25 ,4.7172 ,0.74127 ,5.02474 ,49.30279 
26 ,4.8937 ,0.74309 ,5.00079 ,49.06774 
27 ,5.0858 ,0.74497 ,4.95630 ,48.63122 
28 ,5.2615 ,0.74679 ,4.94603 ,48.53049 
29 ,5.4377 ,0.74853 ,4.93577 ,48.42975 
30 ,5.6140 ,0.75026 ,4.92892 ,48.36260 
31 ,5.8059 ,0.75216 ,4.89812 ,48.06039 
32 ,5.9820 ,0.75396 ,4.88444 ,47.92608 
33 ,6.1581 ,0.75586 ,4.87075 ,47.79177 
34 ,6.3344 ,0.75752 ,4.85364 ,47.62387 
35 ,6.5263 ,0.75933 ,4.82968 ,47.38883 
36 ,6.7182 ,0.76131 ,4.81599 ,47.25451 
37 ,6.9104 ,0.76318 ,4.78177 ,46.91873 
38 ,7.0865 ,0.76507 ,4.76808 ,46.78442 
39 ,7.2786 ,0.76689 ,4.76124 ,46.71726 
40 ,7.4707 ,0.76877 ,4.72359 ,46.34790 
41 ,7.6787 ,0.77090 ,4.73044 ,46.41506 
42 ,7.8709 ,0.77281 ,4.70306 ,46.14643 
43 ,8.0465 ,0.77466 ,4.68937 ,46.01212 
44 ,8.2231 ,0.77638 ,4.65857 ,45.70991 
45 ,8.4151 ,0.77828 ,4.65857 ,45.70991 
46 ,8.6071 ,0.78013 ,4.61408 ,45.27339 
47 ,8.8152 ,0.78220 ,4.62093 ,45.34055 
48 ,8.9912 ,0.78405 ,4.59697 ,45.10550 
49 ,9.1672 ,0.78577 ,4.56275 ,44.76972 
50 ,9.3433 ,0.78756 ,4.55249 ,44.66898 
51 ,9.5195 ,0.78934 ,4.53880 ,44.53467 
52 ,9.7278 ,0.79134 ,4.51142 ,44.26604 
53 ,9.9197 ,0.79329 ,4.50115 ,44.16531 
54 ,10.1118 ,0.79518 ,4.49431 ,44.09815 
55 ,10.3038 ,0.79712 ,4.46351 ,43.79595 
56 ,10.4955 ,0.79908 ,4.44982 ,43.66163 
57 ,10.6875 ,0.80093 ,4.40875 ,43.25870 
58 ,10.8636 ,0.80285 ,4.40533 ,43.22512 
59 ,11.0561 ,0.80464 ,4.39507 ,43.12438 
60 ,11.2637 ,0.80671 ,4.36084 ,42.78860 
61 ,11.4405 ,0.80856 ,4.35058 ,42.68786 
62 ,11.6321 ,0.81047 ,4.34373 ,42.62071 
63 ,11.8083 ,0.81215 ,4.32320 ,42.41924 
64 ,11.9844 ,0.81402 ,4.29240 ,42.11703 
65 ,12.1606 ,0.81576 ,4.27529 ,41.94914 
66 ,12.3525 ,0.81759 ,4.27187 ,41.91556 
67 ,12.5287 ,0.81939 ,4.26502 ,41.84841 
68 ,12.7047 ,0.82117 ,4.22053 ,41.41189 
69 ,12.8809 ,0.82295 ,4.21027 ,41.31115 
70 ,13.0890 ,0.82495 ,4.21027 ,41.31115 
71 ,13.2812 ,0.82689 ,4.16920 ,40.90821 
72 ,13.4571 ,0.82874 ,4.16236 ,40.84106 
73 ,13.6491 ,0.83050 ,4.15209 ,40.74032 
74 ,13.8413 ,0.83256 ,4.12471 ,40.47170 
75 ,14.0171 ,0.83425 ,4.10076 ,40.23665 
76 ,14.2095 ,0.83623 ,4.10760 ,40.30380 
77 ,14.4011 ,0.83812 ,4.06996 ,39.93444 
78 ,14.6095 ,0.84008 ,4.05969 ,39.83371 
79 ,14.7854 ,0.84196 ,4.03574 ,39.59866 
80 ,14.9777 ,0.84395 ,4.03232 ,39.56508 
81 ,15.1539 ,0.84564 ,4.00836 ,39.33003 
82 ,15.3456 ,0.84750 ,3.98098 ,39.06141 
83 ,15.5376 ,0.84942 ,3.95703 ,38.82636 
84 ,15.7141 ,0.85127 ,3.95018 ,38.75920 
85 ,15.9061 ,0.85309 ,3.93307 ,38.59131 
86 ,16.0822 ,0.85494 ,3.92281 ,38.49058 
87 ,16.2903 ,0.85696 ,3.89543 ,38.22195 
88 ,16.4663 ,0.85872 ,3.89201 ,38.18837 
89 ,16.6429 ,0.86054 ,3.86463 ,37.91975 
90 ,16.8506 ,0.86257 ,3.86463 ,37.91975 
91 ,17.0264 ,0.86445 ,3.81330 ,37.41607 
92 ,17.2348 ,0.86643 ,3.81672 ,37.44965 
93 ,17.4431 ,0.86838 ,3.79619 ,37.24818 
94 ,17.6345 ,0.87047 ,3.76196 ,36.91240 
95 ,17.8269 ,0.87227 ,3.75512 ,36.84524 
96 ,18.0030 ,0.87413 ,3.73459 ,36.64377 
97 ,18.1788 ,0.87587 ,3.72090 ,36.50946 
98 ,18.3710 ,0.87774 ,3.71405 ,36.44230 
99 ,18.5791 ,0.87984 ,3.67641 ,36.07294 
100 ,18.7871 ,0.88192 ,3.68325 ,36.14010 
101 ,18.9796 ,0.88391 ,3.64219 ,35.73716 
102 ,19.1713 ,0.88576 ,3.64561 ,35.77073 
103 ,19.3474 ,0.88755 ,3.62850 ,35.60284 
104 ,19.5393 ,0.88942 ,3.58059 ,35.13275 
105 ,19.7156 ,0.89125 ,3.57032 ,35.03201 
106 ,19.9077 ,0.89310 ,3.57717 ,35.09917 
107 ,20.0997 ,0.89506 ,3.54637 ,34.79696 
108 ,20.2760 ,0.89682 ,3.52584 ,34.59549 
109 ,20.4520 ,0.89861 ,3.50530 ,34.39402 
110 ,20.6280 ,0.90032 ,3.51215 ,34.46118 
111 ,20.8042 ,0.90215 ,3.49504 ,34.29329 
112 ,21.0123 ,0.90417 ,3.46766 ,34.02466 
113 ,21.2203 ,0.90625 ,3.45739 ,33.92393 
114 ,21.4125 ,0.90819 ,3.43001 ,33.65530 
115 ,21.6045 ,0.91004 ,3.42317 ,33.58814 
116 ,21.7965 ,0.91208 ,3.39579 ,33.31952 
117 ,21.9722 ,0.91383 ,3.39921 ,33.35310 
118 ,22.1486 ,0.91552 ,3.37868 ,33.15163 
119 ,22.3409 ,0.91744 ,3.34788 ,32.84942 
120 ,22.5485 ,0.91953 ,3.34104 ,32.78227 
121 ,22.7250 ,0.92134 ,3.33762 ,32.74869 
122 ,22.9330 ,0.92339 ,3.29313 ,32.31217 
123 ,23.1090 ,0.92515 ,3.28971 ,32.27859 
124 ,23.3170 ,0.92718 ,3.26917 ,32.07712 
125 ,23.5093 ,0.92912 ,3.25891 ,31.97639 
126 ,23.7014 ,0.93101 ,3.23495 ,31.74134 
127 ,23.8933 ,0.93295 ,3.22126 ,31.60702 
128 ,24.0691 ,0.93473 ,3.20757 ,31.47271 
129 ,24.2615 ,0.93661 ,3.20757 ,31.47271 
130 ,24.4375 ,0.93845 ,3.18704 ,31.27124 
131 ,24.6138 ,0.94018 ,3.15282 ,30.93546 
132 ,24.8218 ,0.94216 ,3.14597 ,30.86830 
133 ,25.0140 ,0.94412 ,3.11175 ,30.53252 
134 ,25.2060 ,0.94617 ,3.12886 ,30.70041 
135 ,25.3661 ,0.94780 ,3.11175 ,30.53252 
136 ,25.5737 ,0.94973 ,3.08438 ,30.26389 
137 ,25.7503 ,0.95155 ,3.04673 ,29.89453 
138 ,25.9583 ,0.95358 ,3.04673 ,29.89453 
139 ,26.1503 ,0.95552 ,3.01593 ,29.59233 
140 ,26.3265 ,0.95731 ,3.00567 ,29.49159 
141 ,26.5185 ,0.95919 ,3.00909 ,29.52517 
142 ,26.7107 ,0.96108 ,2.96802 ,29.12223 
143 ,26.9026 ,0.96312 ,2.97144 ,29.15581 
144 ,27.0787 ,0.96487 ,2.96118 ,29.05507 
145 ,27.2706 ,0.96675 ,2.93380 ,28.78645 
146 ,27.4630 ,0.96866 ,2.93038 ,28.75287 
147 ,27.6871 ,0.97079 ,2.90300 ,28.48424 
148 ,27.8628 ,0.97271 ,2.88589 ,28.31635 
149 ,28.0393 ,0.97449 ,2.87905 ,28.24919 
150 ,28.2311 ,0.97640 ,2.85167 ,27.98057 
151 ,28.4069 ,0.97808 ,2.82771 ,27.74552 
152 ,28.5989 ,0.98000 ,2.82429 ,27.71194 
153 ,28.7755 ,0.98178 ,2.82087 ,27.67836 
154 ,28.9673 ,0.98368 ,2.78322 ,27.30900 
155 ,29.1755 ,0.98580 ,2.79691 ,27.44332 
156 ,29.3516 ,0.98755 ,2.76611 ,27.14111 
157 ,29.5438 ,0.98946 ,2.73874 ,26.87248 
158 ,29.7359 ,0.99143 ,2.74216 ,26.90606 
159 ,29.9119 ,0.99319 ,2.72847 ,26.77175 
160 ,30.0880 ,0.99491 ,2.70794 ,26.57028 
161 ,30.2961 ,0.99695 ,2.70794 ,26.57028 
162 ,30.5038 ,0.99897 ,2.66687 ,26.16734 
163 ,30.6638 ,1.00080 ,2.65318 ,26.03303 
164 ,30.8399 ,1.00243 ,2.62923 ,25.79798 
165 ,31.0163 ,1.00426 ,2.61554 ,25.66367 
166 ,31.2084 ,1.00603 ,2.60869 ,25.59651 
167 ,31.3845 ,1.00789 ,2.58816 ,25.39504 
168 ,31.5923 ,1.00988 ,2.59501 ,25.46220 
169 ,31.7847 ,1.01189 ,2.55394 ,25.05926 
170 ,31.9928 ,1.01391 ,2.54710 ,24.99210 
171 ,32.1845 ,1.01592 ,2.52314 ,24.75705 
172 ,32.3610 ,1.01762 ,2.50603 ,24.58916 
173 ,32.5531 ,1.01947 ,2.50945 ,24.62274 
174 ,32.7451 ,1.02141 ,2.47865 ,24.32053 
175 ,32.9371 ,1.02336 ,2.45812 ,24.11906 
176 ,33.1133 ,1.02519 ,2.46154 ,24.15264 
177 ,33.3053 ,1.02701 ,2.43416 ,23.88402 
178 ,33.4815 ,1.02887 ,2.41363 ,23.68255 
179 ,33.6735 ,1.03078 ,2.42048 ,23.74970 
180 ,33.8655 ,1.03275 ,2.37599 ,23.31318 
181 ,34.0574 ,1.03463 ,2.37941 ,23.34676 
182 ,34.2498 ,1.03645 ,2.36572 ,23.21245 
183 ,34.4738 ,1.03865 ,2.36914 ,23.24603 
184 ,34.6659 ,1.04062 ,2.32808 ,22.84309 
185 ,34.8580 ,1.04265 ,2.32465 ,22.80951 
186 ,35.0342 ,1.04438 ,2.29385 ,22.50731 
187 ,35.2262 ,1.04622 ,2.27674 ,22.33941 
188 ,35.4182 ,1.04813 ,2.27674 ,22.33941 
189 ,35.6103 ,1.05004 ,2.26306 ,22.20510 
190 ,35.8023 ,1.05196 ,2.22883 ,21.86932 
191 ,35.9782 ,1.05380 ,2.21515 ,21.73500 
192 ,36.1545 ,1.05559 ,2.20146 ,21.60069 
193 ,36.3465 ,1.05743 ,2.19119 ,21.49996 
194 ,36.5386 ,1.05941 ,2.17750 ,21.36564 
195 ,36.7308 ,1.06130 ,2.18092 ,21.39922 
196 ,36.9384 ,1.06330 ,2.15355 ,21.13059 
197 ,37.1150 ,1.06515 ,2.13986 ,20.99628 
198 ,37.3070 ,1.06705 ,2.13644 ,20.96270 
199 ,37.4990 ,1.06893 ,2.11932 ,20.79481 
200 ,37.7071 ,1.07097 ,2.10221 ,20.62692 
201 ,37.9153 ,1.07314 ,2.07826 ,20.39187 
202 ,38.1394 ,1.07525 ,2.06457 ,20.25756 
203 ,38.3474 ,1.07741 ,2.04404 ,20.05609 
204 ,38.5235 ,1.07925 ,2.04404 ,20.05609 
205 ,38.7316 ,1.08126 ,2.00639 ,19.68673 
206 ,38.9236 ,1.08317 ,1.99955 ,19.61957 
207 ,39.1151 ,1.08511 ,1.99270 ,19.55241 
208 ,39.2917 ,1.08696 ,1.98244 ,19.45168 
209 ,39.4837 ,1.08874 ,1.97902 ,19.41810 
210 ,39.6759 ,1.09081 ,1.94479 ,19.08232 
211 ,39.8679 ,1.09269 ,1.93453 ,18.98158 
212 ,40.0442 ,1.09448 ,1.93111 ,18.94801 
213 ,40.2361 ,1.09632 ,1.90373 ,18.67938 
214 ,40.4280 ,1.09820 ,1.88319 ,18.47791 
215 ,40.6041 ,1.10006 ,1.89004 ,18.54507 
216 ,40.7802 ,1.10180 ,1.86608 ,18.31002 
217 ,40.9725 ,1.10363 ,1.85582 ,18.20928 
218 ,41.1804 ,1.10570 ,1.84213 ,18.07497 
219 ,41.3566 ,1.10754 ,1.83186 ,17.97423 
220 ,41.5485 ,1.10939 ,1.80449 ,17.70561 
221 ,41.7246 ,1.11127 ,1.79422 ,17.60487 
222 ,41.9167 ,1.11311 ,1.77369 ,17.40340 
223 ,42.0927 ,1.11494 ,1.76684 ,17.33625 
224 ,42.2848 ,1.11676 ,1.76684 ,17.33625 
225 ,42.4769 ,1.11873 ,1.73604 ,17.03404 
226 ,42.6688 ,1.12073 ,1.71551 ,16.83257 
227 ,42.8453 ,1.12242 ,1.72235 ,16.89973 
228 ,43.0370 ,1.12434 ,1.69840 ,16.66468 
229 ,43.2292 ,1.12624 ,1.69498 ,16.63110 
230 ,43.3890 ,1.12802 ,1.67444 ,16.42963 
231 ,43.5811 ,1.12972 ,1.67444 ,16.42963 
232 ,43.7575 ,1.13163 ,1.63680 ,16.06027 
233 ,43.9339 ,1.13337 ,1.62653 ,15.95954 
234 ,44.1256 ,1.13530 ,1.63338 ,16.02669 
235 ,44.3178 ,1.13711 ,1.60942 ,15.79164 
236 ,44.5095 ,1.13902 ,1.59231 ,15.62375 
237 ,44.6859 ,1.14087 ,1.57862 ,15.48944 
238 ,44.8940 ,1.14283 ,1.56836 ,15.38871 
239 ,45.0861 ,1.14479 ,1.55809 ,15.28797 
240 ,45.2621 ,1.14660 ,1.54440 ,15.15366 
241 ,45.4383 ,1.14839 ,1.53756 ,15.08650 
242 ,45.6463 ,1.15029 ,1.51702 ,14.88503 
243 ,45.8224 ,1.15223 ,1.50676 ,14.78430 
244 ,45.9984 ,1.15399 ,1.49991 ,14.71714 
245 ,46.2066 ,1.15602 ,1.45885 ,14.31420 
246 ,46.3984 ,1.15797 ,1.46911 ,14.41493 
247 ,46.6063 ,1.15988 ,1.44858 ,14.21346 
248 ,46.7987 ,1.16191 ,1.43489 ,14.07915 
249 ,46.9906 ,1.16380 ,1.41094 ,13.84410 
250 ,47.1670 ,1.16567 ,1.40067 ,13.74337 
251 ,47.3590 ,1.16759 ,1.39725 ,13.70979 
252 ,47.5510 ,1.16943 ,1.36987 ,13.44116 
253 ,47.7267 ,1.17123 ,1.35960 ,13.34043 
254 ,47.9030 ,1.17304 ,1.34249 ,13.17254 
255 ,48.1113 ,1.17501 ,1.33907 ,13.13896 
256 ,48.2872 ,1.17683 ,1.32196 ,12.97107 
257 ,48.5114 ,1.17897 ,1.32538 ,13.00465 
258 ,48.7035 ,1.18093 ,1.30827 ,12.83675 
259 ,48.8956 ,1.18291 ,1.30143 ,12.76960 
260 ,49.0875 ,1.18485 ,1.26036 ,12.36666 
261 ,49.2638 ,1.18663 ,1.25694 ,12.33308 
262 ,49.4718 ,1.18859 ,1.25352 ,12.29950 
263 ,49.6478 ,1.19050 ,1.23298 ,12.09803 
264 ,49.8396 ,1.19238 ,1.21587 ,11.93014 
265 ,50.0321 ,1.19425 ,1.19534 ,11.72867 
266 ,50.2403 ,1.19641 ,1.18507 ,11.62794 
267 ,50.4323 ,1.19834 ,1.18507 ,11.62794 
268 ,50.6243 ,1.20021 ,1.15085 ,11.29215 
269 ,50.8003 ,1.20193 ,1.15085 ,11.29215 
270 ,50.9759 ,1.20372 ,1.15770 ,11.35931 
271 ,51.1526 ,1.20550 ,1.13716 ,11.15784 
272 ,51.3604 ,1.20750 ,1.12005 ,10.98995 
273 ,51.5526 ,1.20945 ,1.10979 ,10.88921 
274 ,51.7446 ,1.21133 ,1.08583 ,10.65416 
275 ,51.9208 ,1.21317 ,1.06872 ,10.48627 
276 ,52.0967 ,1.21497 ,1.07556 ,10.55343 
277 ,52.2730 ,1.21669 ,1.06187 ,10.41912 
278 ,52.4810 ,1.21872 ,1.03792 ,10.18407 
279 ,52.6891 ,1.22079 ,1.03108 ,10.11691 
280 ,52.8970 ,1.22286 ,1.01054 ,9.91544 
281 ,53.0888 ,1.22481 ,1.00028 ,9.81471 
282 ,53.2810 ,1.22668 ,0.99343 ,9.74755 
283 ,53.4735 ,1.22862 ,0.97974 ,9.61324 
284 ,53.6812 ,1.23072 ,0.95921 ,9.41177 
285 ,53.8737 ,1.23261 ,0.96263 ,9.44535 
286 ,54.0814 ,1.23471 ,0.91814 ,9.00883 
287 ,54.2577 ,1.23650 ,0.90446 ,8.87451 
288 ,54.4496 ,1.23844 ,0.92157 ,9.04241 
289 ,54.6579 ,1.24048 ,0.89419 ,8.77378 
290 ,54.8661 ,1.24257 ,0.88392 ,8.67305 
291 ,55.0579 ,1.24452 ,0.85997 ,8.43800 
292 ,55.2337 ,1.24636 ,0.86339 ,8.47158 
293 ,55.4262 ,1.24816 ,0.85654 ,8.40442 
294 ,55.6180 ,1.25010 ,0.83601 ,8.20295 
295 ,55.7942 ,1.25191 ,0.82575 ,8.10221 
296 ,56.0022 ,1.25391 ,0.82575 ,8.10221 
297 ,56.2104 ,1.25593 ,0.80521 ,7.90074 
298 ,56.3861 ,1.25778 ,0.79837 ,7.83359 
299 ,56.5626 ,1.25958 ,0.79152 ,7.76643 
300 ,56.7545 ,1.26141 ,0.76415 ,7.49780 
301 ,56.9470 ,1.26337 ,0.76072 ,7.46423 
302 ,57.1389 ,1.26526 ,0.72308 ,7.09486 
303 ,57.3308 ,1.26717 ,0.73677 ,7.22918 
304 ,57.5388 ,1.26920 ,0.72650 ,7.12844 
305 ,57.7313 ,1.27129 ,0.69228 ,6.79266 
306 ,57.9230 ,1.27315 ,0.68544 ,6.72550 
307 ,58.0993 ,1.27498 ,0.67175 ,6.59119 
308 ,58.2754 ,1.27670 ,0.66833 ,6.55761 
309 ,58.4510 ,1.27844 ,0.64779 ,6.35614 
310 ,58.6273 ,1.28020 ,0.64779 ,6.35614 
311 ,58.8036 ,1.28199 ,0.65464 ,6.42330 
312 ,58.9957 ,1.28383 ,0.62384 ,6.12109 
313 ,59.2035 ,1.28589 ,0.62042 ,6.08752 
314 ,59.3799 ,1.28775 ,0.62042 ,6.08752 
315 ,59.5557 ,1.28954 ,0.58619 ,5.75173 
316 ,59.7321 ,1.29128 ,0.58277 ,5.71815 
317 ,59.9403 ,1.29320 ,0.57251 ,5.61742 
318 ,60.1322 ,1.29526 ,0.55197 ,5.41595 
319 ,60.3243 ,1.29714 ,0.55882 ,5.48311 
320 ,60.5163 ,1.29905 ,0.53144 ,5.21448 
321 ,60.6924 ,1.30087 ,0.51775 ,5.08017 
322 ,60.8845 ,1.30279 ,0.52459 ,5.14732 
323 ,61.0926 ,1.30476 ,0.51091 ,5.01301 
324 ,61.2846 ,1.30671 ,0.49380 ,4.84512 
325 ,61.4605 ,1.30848 ,0.49722 ,4.87870 
326 ,61.6365 ,1.31028 ,0.47326 ,4.64365 
327 ,61.8288 ,1.31216 ,0.45615 ,4.47576 
328 ,62.0371 ,1.31425 ,0.44588 ,4.37502 
329 ,62.2449 ,1.31622 ,0.44588 ,4.37502 
330 ,62.4211 ,1.31810 ,0.43220 ,4.24071 
331 ,62.5970 ,1.31995 ,0.41166 ,4.03924 
332 ,62.7731 ,1.32162 ,0.39455 ,3.87135 
333 ,62.9654 ,1.32349 ,0.40140 ,3.93850 
334 ,63.1734 ,1.32560 ,0.37060 ,3.63630 
335 ,63.3654 ,1.32751 ,0.37060 ,3.63630 
336 ,63.5417 ,1.32935 ,0.37744 ,3.70346 
337 ,63.7335 ,1.33130 ,0.35349 ,3.46841 
338 ,63.9092 ,1.33302 ,0.34664 ,3.40125 
339 ,64.0853 ,1.33474 ,0.30900 ,3.03189 
340 ,64.2454 ,1.33646 ,0.32269 ,3.16620 
341 ,64.4219 ,1.33815 ,0.31584 ,3.09905 
342 ,64.7736 ,1.34085 ,0.30900 ,3.03189 
343 ,64.9501 ,1.34343 ,0.27820 ,2.72969 
344 ,65.1418 ,1.34538 ,0.27478 ,2.69611 
345 ,65.3182 ,1.34707 ,0.27135 ,2.66253 
346 ,65.4943 ,1.34887 ,0.25767 ,2.52822 
347 ,65.7024 ,1.35085 ,0.24740 ,2.42748 
348 ,65.8944 ,1.35282 ,0.21318 ,2.09170 
349 ,66.0866 ,1.35473 ,0.21318 ,2.09170 
350 ,66.2782 ,1.35668 ,0.21660 ,2.12528 
351 ,66.4547 ,1.35846 ,0.20633 ,2.02454 
352 ,66.6306 ,1.36022 ,0.18922 ,1.85665 
353 ,66.8066 ,1.36203 ,0.16527 ,1.62160 
354 ,66.9987 ,1.36391 ,0.16869 ,1.65518 
355 ,67.1906 ,1.36579 ,0.16185 ,1.58802 
356 ,67.3831 ,1.36776 ,0.14473 ,1.42013 
357 ,67.5747 ,1.36967 ,0.14816 ,1.45371 
358 ,67.7673 ,1.37160 ,0.12420 ,1.21866 
359 ,67.9751 ,1.37357 ,0.11736 ,1.15151 
360 ,68.1350 ,1.37535 ,0.10025 ,0.98361 
361 ,68.3113 ,1.37703 ,0.08314 ,0.81572 
362 ,68.4875 ,1.37876 ,0.06260 ,0.61425 
363 ,68.6635 ,1.38055 ,0.06260 ,0.61425 
364 ,68.8395 ,1.38232 ,0.06945 ,0.68141 
365 ,69.0318 ,1.38424 ,0.05576 ,0.54710 
366 ,69.2233 ,1.38611 ,0.03522 ,0.34563 
367 ,69.3996 ,1.38788 ,0.02496 ,0.24489 
368 ,69.5918 ,1.38981 ,0.02838 ,0.27847 
369 ,69.7681 ,1.39157 ,0.00100 ,0.00984 
370 ,69.9601 ,1.39341 ,0.01127 ,0.11058 
371 ,70.1522 ,1.39533 ,-0.00242 ,-0.02373 
372 ,70.3444 ,1.39723 ,-0.01611 ,-0.15805 
373 ,70.5525 ,1.39938 ,-0.01269 ,-0.12447 
374 ,70.7444 ,1.40131 ,-0.03664 ,-0.35952 
375 ,70.9362 ,1.40319 ,-0.03322 ,-0.32594 
376 ,71.1281 ,1.40510 ,-0.05033 ,-0.49383 
377 ,71.3202 ,1.40718 ,-0.06744 ,-0.66172 
378 ,71.5126 ,1.40899 ,-0.07428 ,-0.72888 
379 ,71.7369 ,1.41121 ,-0.09140 ,-0.89677 
380 ,71.9290 ,1.41312 ,-0.10851 ,-1.06466 
381 ,72.1210 ,1.41505 ,-0.10508 ,-1.03108 
382 ,72.3288 ,1.41711 ,-0.12562 ,-1.23255 
383 ,72.5052 ,1.41899 ,-0.13931 ,-1.36687 
384 ,72.6971 ,1.42081 ,-0.13931 ,-1.36687 
385 ,72.8734 ,1.42262 ,-0.14273 ,-1.40045 
386 ,73.0812 ,1.42464 ,-0.16668 ,-1.63549 
387 ,73.2570 ,1.42652 ,-0.15642 ,-1.53476 
388 ,73.4335 ,1.42823 ,-0.17695 ,-1.73623 
389 ,73.6256 ,1.43008 ,-0.20090 ,-1.97128 
390 ,73.8017 ,1.43195 ,-0.20433 ,-2.00485 
391 ,73.9938 ,1.43386 ,-0.20433 ,-2.00485 
392 ,74.1857 ,1.43568 ,-0.22144 ,-2.17275 
393 ,74.3779 ,1.43753 ,-0.23855 ,-2.34064 
394 ,74.5695 ,1.43957 ,-0.22144 ,-2.17275 
395 ,74.7621 ,1.44141 ,-0.23855 ,-2.34064 
396 ,74.9541 ,1.44339 ,-0.25224 ,-2.47495 
397 ,75.1303 ,1.44520 ,-0.25224 ,-2.47495 
398 ,75.3384 ,1.44719 ,-0.27277 ,-2.67642 
399 ,75.5143 ,1.44901 ,-0.29673 ,-2.91147 
400 ,75.7383 ,1.45120 ,-0.31041 ,-3.04578 
401 ,75.9466 ,1.45327 ,-0.31041 ,-3.04578 
402 ,76.1227 ,1.45512 ,-0.30015 ,-2.94505 
403 ,76.3307 ,1.45710 ,-0.31726 ,-3.11294 
404 ,76.5068 ,1.45894 ,-0.33437 ,-3.28083 
405 ,76.7145 ,1.46094 ,-0.34121 ,-3.34799 
406 ,76.8910 ,1.46276 ,-0.35148 ,-3.44872 
407 ,77.0831 ,1.46471 ,-0.36175 ,-3.54946 
408 ,77.2591 ,1.46643 ,-0.38570 ,-3.78450 
409 ,77.4353 ,1.46827 ,-0.35832 ,-3.51588 
410 ,77.5951 ,1.46995 ,-0.39597 ,-3.88524 
411 ,77.7869 ,1.47169 ,-0.37886 ,-3.71735 
412 ,77.9792 ,1.47365 ,-0.42335 ,-4.15387 
413 ,78.1872 ,1.47566 ,-0.40966 ,-4.01955 
414 ,78.3634 ,1.47751 ,-0.42335 ,-4.15387 
415 ,78.5556 ,1.47938 ,-0.44046 ,-4.32176 
416 ,78.7478 ,1.48140 ,-0.44046 ,-4.32176 
417 ,78.9238 ,1.48309 ,-0.43361 ,-4.25460 
418 ,79.0995 ,1.48490 ,-0.46783 ,-4.59038 
419 ,79.2760 ,1.48659 ,-0.48152 ,-4.72470 
420 ,79.4521 ,1.48841 ,-0.49179 ,-4.82543 
421 ,79.6443 ,1.49028 ,-0.47468 ,-4.65754 
422 ,79.8202 ,1.49209 ,-0.49179 ,-4.82543 
423 ,80.0282 ,1.49405 ,-0.48837 ,-4.79185 
424 ,80.2202 ,1.49606 ,-0.52601 ,-5.16121 
425 ,80.3964 ,1.49783 ,-0.52259 ,-5.12764 
426 ,80.5882 ,1.49968 ,-0.52601 ,-5.16121 
427 ,80.7806 ,1.50156 ,-0.53970 ,-5.29553 
428 ,80.9884 ,1.50369 ,-0.55681 ,-5.46342 
429 ,81.1647 ,1.50551 ,-0.55681 ,-5.46342 
430 ,81.3569 ,1.50739 ,-0.57050 ,-5.59773 
431 ,81.5329 ,1.50920 ,-0.59103 ,-5.79920 
432 ,81.7090 ,1.51090 ,-0.58419 ,-5.73205 
433 ,81.8851 ,1.51278 ,-0.60130 ,-5.89994 
434 ,82.0768 ,1.51459 ,-0.59788 ,-5.86636 
435 ,82.2693 ,1.51650 ,-0.61841 ,-6.06783 
436 ,82.4454 ,1.51831 ,-0.60814 ,-5.96709 
437 ,82.6372 ,1.52010 ,-0.61156 ,-6.00067 
438 ,82.8136 ,1.52195 ,-0.63894 ,-6.26930 
439 ,83.0054 ,1.52382 ,-0.64236 ,-6.30288 
440 ,83.1976 ,1.52578 ,-0.64921 ,-6.37003 
441 ,83.3738 ,1.52762 ,-0.68001 ,-6.67224 
442 ,83.5660 ,1.52944 ,-0.66290 ,-6.50435 
443 ,83.7579 ,1.53137 ,-0.69712 ,-6.84013 
444 ,83.9501 ,1.53326 ,-0.68685 ,-6.73940 
445 ,84.1579 ,1.53536 ,-0.70396 ,-6.90729 
446 ,84.3342 ,1.53726 ,-0.71765 ,-7.04160 
447 ,84.5262 ,1.53905 ,-0.71423 ,-7.00802 
448 ,84.7024 ,1.54086 ,-0.71765 ,-7.04160 
449 ,84.9105 ,1.54287 ,-0.74161 ,-7.27665 
450 ,85.1026 ,1.54479 ,-0.73476 ,-7.20949 
451 ,85.2941 ,1.54683 ,-0.76556 ,-7.51170 
452 ,85.4707 ,1.54852 ,-0.76214 ,-7.47812 
453 ,85.6947 ,1.55069 ,-0.75872 ,-7.44454 
454 ,85.8709 ,1.55252 ,-0.78952 ,-7.74674 
455 ,86.0789 ,1.55461 ,-0.77925 ,-7.64601 
456 ,86.2710 ,1.55652 ,-0.79978 ,-7.84748 
457 ,86.4471 ,1.55829 ,-0.81689 ,-8.01537 
458 ,86.6233 ,1.56010 ,-0.81347 ,-7.98179 
459 ,86.8153 ,1.56196 ,-0.82374 ,-8.08253 
460 ,87.0074 ,1.56380 ,-0.82032 ,-8.04895 
461 ,87.1995 ,1.56578 ,-0.83401 ,-8.18326 
462 ,87.3913 ,1.56772 ,-0.85112 ,-8.35115 
463 ,87.5675 ,1.56958 ,-0.84769 ,-8.31758 
