Data stamp = , 24-04-2022 11:40:21 092

Calibration Values: 
Slope = , 26.54 , g/V 
Offset Voltage at no contact = , -0.501760 , V 

No , Time , Stage Position ,   Mass , Force 
   ,  (s) ,      (mm)      ,   (g)  , (mN)  

1 ,0.0000 ,0.69936 ,5.30536 ,52.05621 
2 ,0.3019 ,0.69957 ,5.30878 ,52.08979 
3 ,0.6222 ,0.70072 ,5.32247 ,52.22410 
4 ,0.8302 ,0.70256 ,5.31221 ,52.12337 
5 ,1.0387 ,0.70452 ,5.28825 ,51.88832 
6 ,1.2308 ,0.70639 ,5.31221 ,52.12337 
7 ,1.4225 ,0.70831 ,5.30536 ,52.05621 
8 ,1.6146 ,0.71022 ,5.29852 ,51.98905 
9 ,1.7910 ,0.71205 ,5.30536 ,52.05621 
10 ,1.9825 ,0.71395 ,5.29510 ,51.95548 
11 ,2.1751 ,0.71585 ,5.27114 ,51.72043 
12 ,2.3829 ,0.71789 ,5.24376 ,51.45180 
13 ,2.5587 ,0.71973 ,5.23692 ,51.38464 
14 ,2.7350 ,0.72153 ,5.22323 ,51.25033 
15 ,2.9271 ,0.72334 ,5.20954 ,51.11602 
16 ,3.1034 ,0.72518 ,5.18216 ,50.84739 
17 ,3.2954 ,0.72697 ,5.16848 ,50.71308 
18 ,3.4715 ,0.72885 ,5.16163 ,50.64592 
19 ,3.6636 ,0.73067 ,5.12741 ,50.31014 
20 ,3.8716 ,0.73282 ,5.11372 ,50.17583 
21 ,4.0477 ,0.73458 ,5.10345 ,50.07509 
22 ,4.2238 ,0.73640 ,5.08977 ,49.94078 
23 ,4.4157 ,0.73818 ,5.04185 ,49.47068 
24 ,4.5915 ,0.74010 ,5.04185 ,49.47068 
25 ,4.7841 ,0.74193 ,5.02474 ,49.30279 
26 ,4.9920 ,0.74398 ,5.00079 ,49.06774 
27 ,5.1682 ,0.74574 ,4.98710 ,48.93343 
28 ,5.3762 ,0.74781 ,4.95288 ,48.59764 
29 ,5.5524 ,0.74964 ,4.93577 ,48.42975 
30 ,5.7283 ,0.75138 ,4.91866 ,48.26186 
31 ,5.9045 ,0.75316 ,4.92208 ,48.29544 
32 ,6.0807 ,0.75497 ,4.88786 ,47.95966 
33 ,6.2888 ,0.75695 ,4.87075 ,47.79177 
34 ,6.4809 ,0.75889 ,4.84679 ,47.55672 
35 ,6.6728 ,0.76083 ,4.82968 ,47.38883 
36 ,6.8489 ,0.76259 ,4.82284 ,47.32167 
37 ,7.0410 ,0.76450 ,4.79204 ,47.01946 
38 ,7.2171 ,0.76628 ,4.78177 ,46.91873 
39 ,7.4094 ,0.76809 ,4.74755 ,46.58295 
40 ,7.6170 ,0.77020 ,4.72702 ,46.38148 
41 ,7.7933 ,0.77204 ,4.70306 ,46.14643 
42 ,7.9852 ,0.77401 ,4.71333 ,46.24716 
43 ,8.1775 ,0.77580 ,4.68937 ,46.01212 
44 ,8.3853 ,0.77788 ,4.66542 ,45.77707 
45 ,8.5778 ,0.77979 ,4.65173 ,45.64275 
46 ,8.7698 ,0.78177 ,4.63119 ,45.44128 
47 ,8.9614 ,0.78376 ,4.61066 ,45.23981 
48 ,9.1375 ,0.78552 ,4.59013 ,45.03835 
49 ,9.3138 ,0.78724 ,4.56617 ,44.80330 
50 ,9.4902 ,0.78896 ,4.55249 ,44.66898 
51 ,9.7140 ,0.79110 ,4.53537 ,44.50109 
52 ,9.8903 ,0.79301 ,4.51826 ,44.33320 
53 ,10.0499 ,0.79473 ,4.51826 ,44.33320 
54 ,10.2264 ,0.79638 ,4.49773 ,44.13173 
55 ,10.4345 ,0.79839 ,4.44640 ,43.62806 
56 ,10.6102 ,0.80018 ,4.46351 ,43.79595 
57 ,10.7862 ,0.80195 ,4.43613 ,43.52732 
58 ,10.9788 ,0.80381 ,4.42244 ,43.39301 
59 ,11.1864 ,0.80585 ,4.40191 ,43.19154 
60 ,11.3627 ,0.80773 ,4.37111 ,42.88933 
61 ,11.5548 ,0.80957 ,4.34373 ,42.62071 
62 ,11.7470 ,0.81149 ,4.34373 ,42.62071 
63 ,11.9550 ,0.81351 ,4.32320 ,42.41924 
64 ,12.1312 ,0.81544 ,4.29240 ,42.11703 
65 ,12.3389 ,0.81744 ,4.29240 ,42.11703 
66 ,12.5312 ,0.81944 ,4.25133 ,41.71409 
67 ,12.7073 ,0.82117 ,4.23765 ,41.57978 
68 ,12.9154 ,0.82310 ,4.23422 ,41.54620 
69 ,13.1075 ,0.82508 ,4.21711 ,41.37831 
70 ,13.2992 ,0.82706 ,4.19658 ,41.17684 
71 ,13.4916 ,0.82893 ,4.17605 ,40.97537 
72 ,13.6837 ,0.83100 ,4.16578 ,40.87464 
73 ,13.8598 ,0.83272 ,4.15209 ,40.74032 
74 ,14.0517 ,0.83452 ,4.12129 ,40.43812 
75 ,14.2278 ,0.83635 ,4.09734 ,40.20307 
76 ,14.4036 ,0.83817 ,4.08707 ,40.10233 
77 ,14.5960 ,0.83997 ,4.07680 ,40.00160 
78 ,14.8041 ,0.84206 ,4.05627 ,39.80013 
79 ,14.9802 ,0.84392 ,4.04600 ,39.69940 
80 ,15.1562 ,0.84567 ,4.02547 ,39.49793 
81 ,15.3322 ,0.84739 ,4.00152 ,39.26288 
82 ,15.5245 ,0.84927 ,3.98441 ,39.09499 
83 ,15.7005 ,0.85111 ,3.97756 ,39.02783 
84 ,15.8926 ,0.85298 ,3.95018 ,38.75920 
85 ,16.0847 ,0.85489 ,3.93307 ,38.59131 
86 ,16.2928 ,0.85696 ,3.92281 ,38.49058 
87 ,16.4683 ,0.85881 ,3.88516 ,38.12122 
88 ,16.6604 ,0.86054 ,3.88858 ,38.15479 
89 ,16.8526 ,0.86252 ,3.86805 ,37.95332 
90 ,17.0285 ,0.86437 ,3.84067 ,37.68470 
91 ,17.2045 ,0.86611 ,3.82014 ,37.48323 
92 ,17.3805 ,0.86793 ,3.81672 ,37.44965 
93 ,17.5568 ,0.86968 ,3.80987 ,37.38249 
94 ,17.7812 ,0.87175 ,3.76881 ,36.97955 
95 ,17.9734 ,0.87379 ,3.76196 ,36.91240 
96 ,18.1812 ,0.87573 ,3.73801 ,36.67735 
97 ,18.3895 ,0.87790 ,3.71748 ,36.47588 
98 ,18.5811 ,0.87987 ,3.70379 ,36.34157 
99 ,18.7575 ,0.88166 ,3.69352 ,36.24083 
100 ,18.9335 ,0.88340 ,3.67983 ,36.10652 
101 ,19.1099 ,0.88514 ,3.64561 ,35.77073 
102 ,19.3021 ,0.88705 ,3.63192 ,35.63642 
103 ,19.5100 ,0.88909 ,3.60797 ,35.40137 
104 ,19.7019 ,0.89105 ,3.59428 ,35.26706 
105 ,19.8780 ,0.89283 ,3.57717 ,35.09917 
106 ,20.0702 ,0.89479 ,3.56690 ,34.99843 
107 ,20.2459 ,0.89657 ,3.56006 ,34.93128 
108 ,20.4222 ,0.89828 ,3.52584 ,34.59549 
109 ,20.6144 ,0.90007 ,3.52926 ,34.62907 
110 ,20.7904 ,0.90198 ,3.50188 ,34.36045 
111 ,20.9665 ,0.90373 ,3.47792 ,34.12540 
112 ,21.1586 ,0.90568 ,3.46766 ,34.02466 
113 ,21.3345 ,0.90736 ,3.46081 ,33.95751 
114 ,21.5267 ,0.90924 ,3.43001 ,33.65530 
115 ,21.7188 ,0.91122 ,3.44028 ,33.75604 
116 ,21.9107 ,0.91314 ,3.41633 ,33.52099 
117 ,22.1029 ,0.91504 ,3.39237 ,33.28594 
118 ,22.2946 ,0.91692 ,3.37868 ,33.15163 
119 ,22.4706 ,0.91881 ,3.34788 ,32.84942 
120 ,22.6627 ,0.92068 ,3.33419 ,32.71511 
121 ,22.8228 ,0.92239 ,3.32051 ,32.58080 
122 ,22.9829 ,0.92394 ,3.30339 ,32.41290 
123 ,23.1750 ,0.92569 ,3.30339 ,32.41290 
124 ,23.3349 ,0.92752 ,3.28971 ,32.27859 
125 ,23.5112 ,0.92919 ,3.27259 ,32.11070 
126 ,23.7033 ,0.93103 ,3.23495 ,31.74134 
127 ,23.8957 ,0.93294 ,3.24180 ,31.80849 
128 ,24.1196 ,0.93508 ,3.21100 ,31.50629 
129 ,24.3121 ,0.93716 ,3.19731 ,31.37198 
130 ,24.5035 ,0.93907 ,3.16993 ,31.10335 
131 ,24.6796 ,0.94085 ,3.14940 ,30.90188 
132 ,24.8396 ,0.94256 ,3.14255 ,30.83472 
133 ,25.0158 ,0.94419 ,3.13229 ,30.73399 
134 ,25.1919 ,0.94594 ,3.12544 ,30.66683 
135 ,25.3842 ,0.94780 ,3.09806 ,30.39821 
136 ,25.5925 ,0.94995 ,3.08780 ,30.29747 
137 ,25.8007 ,0.95196 ,3.07411 ,30.16316 
138 ,26.0088 ,0.95410 ,3.04331 ,29.86095 
139 ,26.2008 ,0.95605 ,3.02620 ,29.69306 
140 ,26.3928 ,0.95804 ,3.01593 ,29.59233 
141 ,26.5848 ,0.95979 ,2.99198 ,29.35728 
142 ,26.7610 ,0.96165 ,2.98171 ,29.25654 
143 ,26.9529 ,0.96353 ,2.98855 ,29.32370 
144 ,27.1289 ,0.96534 ,2.97144 ,29.15581 
145 ,27.3211 ,0.96722 ,2.92696 ,28.71929 
146 ,27.4972 ,0.96900 ,2.92353 ,28.68571 
147 ,27.6893 ,0.97086 ,2.91669 ,28.61856 
148 ,27.8652 ,0.97266 ,2.89958 ,28.45066 
149 ,28.0414 ,0.97445 ,2.86878 ,28.14846 
150 ,28.2332 ,0.97639 ,2.85851 ,28.04772 
151 ,28.4098 ,0.97814 ,2.86193 ,28.08130 
152 ,28.6176 ,0.98012 ,2.84140 ,27.87983 
153 ,28.8418 ,0.98242 ,2.79691 ,27.44332 
154 ,29.0338 ,0.98448 ,2.80034 ,27.47689 
155 ,29.2101 ,0.98614 ,2.79691 ,27.44332 
156 ,29.4180 ,0.98818 ,2.76954 ,27.17469 
157 ,29.6101 ,0.99015 ,2.75927 ,27.07395 
158 ,29.7859 ,0.99191 ,2.74558 ,26.93964 
159 ,29.9622 ,0.99363 ,2.71478 ,26.63744 
160 ,30.1381 ,0.99536 ,2.69767 ,26.46954 
161 ,30.3146 ,0.99713 ,2.69767 ,26.46954 
162 ,30.5064 ,0.99910 ,2.69083 ,26.40239 
163 ,30.7146 ,1.00105 ,2.66345 ,26.13376 
164 ,30.8906 ,1.00294 ,2.64292 ,25.93229 
165 ,31.0827 ,1.00481 ,2.61554 ,25.66367 
166 ,31.2907 ,1.00687 ,2.61212 ,25.63009 
167 ,31.4987 ,1.00901 ,2.58816 ,25.39504 
168 ,31.6905 ,1.01089 ,2.57447 ,25.26073 
169 ,31.8831 ,1.01280 ,2.55052 ,25.02568 
170 ,32.0748 ,1.01488 ,2.55394 ,25.05926 
171 ,32.2666 ,1.01670 ,2.52656 ,24.79063 
172 ,32.4431 ,1.01842 ,2.50945 ,24.62274 
173 ,32.6191 ,1.02023 ,2.48892 ,24.42127 
174 ,32.7949 ,1.02194 ,2.47181 ,24.25338 
175 ,32.9714 ,1.02374 ,2.47181 ,24.25338 
176 ,33.1635 ,1.02565 ,2.45812 ,24.11906 
177 ,33.3392 ,1.02743 ,2.42390 ,23.78328 
178 ,33.5151 ,1.02924 ,2.42048 ,23.74970 
179 ,33.6917 ,1.03091 ,2.41021 ,23.64897 
180 ,33.8673 ,1.03271 ,2.40679 ,23.61539 
181 ,34.0440 ,1.03446 ,2.38968 ,23.44750 
182 ,34.2199 ,1.03622 ,2.37941 ,23.34676 
183 ,34.3957 ,1.03800 ,2.35203 ,23.07814 
184 ,34.5721 ,1.03969 ,2.34861 ,23.04456 
185 ,34.7640 ,1.04155 ,2.34861 ,23.04456 
186 ,34.9400 ,1.04338 ,2.30754 ,22.64162 
187 ,35.1320 ,1.04532 ,2.29043 ,22.47373 
188 ,35.3245 ,1.04722 ,2.29043 ,22.47373 
189 ,35.5165 ,1.04919 ,2.26306 ,22.20510 
190 ,35.7084 ,1.05099 ,2.25279 ,22.10437 
191 ,35.9006 ,1.05298 ,2.23910 ,21.97005 
192 ,36.0924 ,1.05485 ,2.21857 ,21.76858 
193 ,36.2687 ,1.05670 ,2.21172 ,21.70143 
194 ,36.4449 ,1.05846 ,2.20146 ,21.60069 
195 ,36.6366 ,1.06028 ,2.16381 ,21.23133 
196 ,36.8291 ,1.06218 ,2.16723 ,21.26491 
197 ,37.0211 ,1.06418 ,2.14670 ,21.06344 
198 ,37.1811 ,1.06591 ,2.12275 ,20.82839 
199 ,37.3571 ,1.06756 ,2.12275 ,20.82839 
200 ,37.5651 ,1.06957 ,2.11590 ,20.76123 
201 ,37.7572 ,1.07151 ,2.09537 ,20.55976 
202 ,37.9332 ,1.07333 ,2.07141 ,20.32472 
203 ,38.1097 ,1.07506 ,2.07141 ,20.32472 
204 ,38.3017 ,1.07705 ,2.04404 ,20.05609 
205 ,38.4776 ,1.07872 ,2.03377 ,19.95535 
206 ,38.6537 ,1.08052 ,2.01666 ,19.78746 
207 ,38.8454 ,1.08241 ,2.02008 ,19.82104 
208 ,39.0215 ,1.08420 ,2.01324 ,19.75388 
209 ,39.1816 ,1.08592 ,1.98586 ,19.48526 
210 ,39.3579 ,1.08758 ,1.98244 ,19.45168 
211 ,39.5342 ,1.08935 ,1.93453 ,18.98158 
212 ,39.7262 ,1.09129 ,1.94479 ,19.08232 
213 ,39.9183 ,1.09311 ,1.92084 ,18.84727 
214 ,40.1262 ,1.09513 ,1.91399 ,18.78011 
215 ,40.3181 ,1.09707 ,1.89004 ,18.54507 
216 ,40.4946 ,1.09891 ,1.89688 ,18.61222 
217 ,40.7184 ,1.10104 ,1.87635 ,18.41075 
218 ,40.9107 ,1.10298 ,1.85240 ,18.17570 
219 ,41.1028 ,1.10496 ,1.84555 ,18.10855 
220 ,41.2949 ,1.10685 ,1.81817 ,17.83992 
221 ,41.5028 ,1.10897 ,1.81475 ,17.80634 
222 ,41.6789 ,1.11079 ,1.79422 ,17.60487 
223 ,41.8711 ,1.11263 ,1.79422 ,17.60487 
224 ,42.0466 ,1.11451 ,1.78395 ,17.50414 
225 ,42.2232 ,1.11621 ,1.76684 ,17.33625 
226 ,42.4153 ,1.11805 ,1.73604 ,17.03404 
227 ,42.5912 ,1.11997 ,1.73604 ,17.03404 
228 ,42.7673 ,1.12163 ,1.71209 ,16.79899 
229 ,42.9754 ,1.12364 ,1.69840 ,16.66468 
230 ,43.1515 ,1.12548 ,1.68813 ,16.56395 
231 ,43.3597 ,1.12752 ,1.66418 ,16.32890 
232 ,43.5517 ,1.12940 ,1.65049 ,16.19458 
233 ,43.7594 ,1.13153 ,1.64022 ,16.09385 
234 ,43.9677 ,1.13354 ,1.62653 ,15.95954 
235 ,44.1439 ,1.13544 ,1.61627 ,15.85880 
236 ,44.3357 ,1.13730 ,1.59916 ,15.69091 
237 ,44.5121 ,1.13909 ,1.58889 ,15.59018 
238 ,44.7038 ,1.14096 ,1.58889 ,15.59018 
239 ,44.9124 ,1.14297 ,1.56836 ,15.38871 
240 ,45.1204 ,1.14507 ,1.55124 ,15.22081 
241 ,45.3125 ,1.14705 ,1.53071 ,15.01934 
242 ,45.5045 ,1.14905 ,1.52387 ,14.95219 
243 ,45.6966 ,1.15094 ,1.50676 ,14.78430 
244 ,45.8886 ,1.15287 ,1.48965 ,14.61640 
245 ,46.0806 ,1.15472 ,1.49649 ,14.68356 
246 ,46.2564 ,1.15650 ,1.47253 ,14.44851 
247 ,46.4329 ,1.15828 ,1.45885 ,14.31420 
248 ,46.6410 ,1.16032 ,1.46227 ,14.34778 
249 ,47.0412 ,1.16332 ,1.41778 ,13.91126 
250 ,47.2493 ,1.16639 ,1.40409 ,13.77695 
251 ,47.4253 ,1.16823 ,1.38698 ,13.60906 
252 ,47.6174 ,1.17010 ,1.37671 ,13.50832 
253 ,47.8096 ,1.17202 ,1.36987 ,13.44116 
254 ,48.0012 ,1.17397 ,1.35618 ,13.30685 
255 ,48.1771 ,1.17571 ,1.33565 ,13.10538 
256 ,48.3697 ,1.17762 ,1.30827 ,12.83675 
257 ,48.5618 ,1.17960 ,1.31169 ,12.87033 
258 ,48.7538 ,1.18147 ,1.30143 ,12.76960 
259 ,48.9298 ,1.18329 ,1.26378 ,12.40024 
260 ,49.1061 ,1.18505 ,1.28089 ,12.56813 
261 ,49.2820 ,1.18674 ,1.27063 ,12.46739 
262 ,49.4580 ,1.18849 ,1.25009 ,12.26592 
263 ,49.6663 ,1.19058 ,1.23298 ,12.09803 
264 ,49.8742 ,1.19272 ,1.22272 ,11.99730 
265 ,50.0659 ,1.19457 ,1.19876 ,11.76225 
266 ,50.2745 ,1.19652 ,1.18850 ,11.66151 
267 ,50.4827 ,1.19872 ,1.18850 ,11.66151 
268 ,50.6747 ,1.20068 ,1.16112 ,11.39289 
269 ,50.8668 ,1.20256 ,1.15085 ,11.29215 
270 ,51.0589 ,1.20454 ,1.14401 ,11.22500 
271 ,51.2349 ,1.20636 ,1.12005 ,10.98995 
272 ,51.4110 ,1.20805 ,1.10979 ,10.88921 
273 ,51.6349 ,1.21015 ,1.09952 ,10.78848 
274 ,51.8114 ,1.21206 ,1.07899 ,10.58701 
275 ,51.9870 ,1.21381 ,1.06187 ,10.41912 
276 ,52.1952 ,1.21582 ,1.05845 ,10.38554 
277 ,52.3874 ,1.21772 ,1.04476 ,10.25123 
278 ,52.6115 ,1.21989 ,1.02765 ,10.08333 
279 ,52.8196 ,1.22209 ,1.02423 ,10.04976 
280 ,53.0118 ,1.22408 ,0.99685 ,9.78113 
281 ,53.2039 ,1.22594 ,1.00028 ,9.81471 
282 ,53.3793 ,1.22773 ,0.97974 ,9.61324 
283 ,53.5556 ,1.22949 ,0.98317 ,9.64682 
284 ,53.7317 ,1.23126 ,0.96948 ,9.51250 
285 ,53.9240 ,1.23317 ,0.93868 ,9.21030 
286 ,54.1162 ,1.23496 ,0.93183 ,9.14314 
287 ,54.3082 ,1.23693 ,0.91130 ,8.94167 
288 ,54.4843 ,1.23882 ,0.91472 ,8.97525 
289 ,54.6603 ,1.24055 ,0.91130 ,8.94167 
290 ,54.8522 ,1.24242 ,0.88734 ,8.70662 
291 ,55.0445 ,1.24439 ,0.87023 ,8.53873 
292 ,55.2361 ,1.24627 ,0.87708 ,8.60589 
293 ,55.4128 ,1.24806 ,0.84628 ,8.30368 
294 ,55.6046 ,1.24991 ,0.82917 ,8.13579 
295 ,55.7967 ,1.25187 ,0.82575 ,8.10221 
296 ,55.9888 ,1.25378 ,0.81206 ,7.96790 
297 ,56.1649 ,1.25557 ,0.79495 ,7.80001 
298 ,56.3730 ,1.25756 ,0.79152 ,7.76643 
299 ,56.5807 ,1.25955 ,0.76415 ,7.49780 
300 ,56.7568 ,1.26153 ,0.76072 ,7.46423 
301 ,56.9492 ,1.26335 ,0.75388 ,7.39707 
302 ,57.1255 ,1.26519 ,0.72308 ,7.09486 
303 ,57.3174 ,1.26702 ,0.74019 ,7.26276 
304 ,57.5094 ,1.26896 ,0.70939 ,6.96055 
305 ,57.6850 ,1.27078 ,0.70597 ,6.92697 
306 ,57.8777 ,1.27264 ,0.69913 ,6.85982 
307 ,58.0534 ,1.27447 ,0.67859 ,6.65835 
308 ,58.2300 ,1.27621 ,0.67517 ,6.62477 
309 ,58.4218 ,1.27813 ,0.64437 ,6.32256 
310 ,58.5978 ,1.27992 ,0.64437 ,6.32256 
311 ,58.8218 ,1.28201 ,0.62384 ,6.12109 
312 ,59.0143 ,1.28400 ,0.62726 ,6.15467 
313 ,59.2061 ,1.28594 ,0.61699 ,6.05394 
314 ,59.3981 ,1.28782 ,0.59988 ,5.88605 
315 ,59.5903 ,1.28972 ,0.58277 ,5.71815 
316 ,59.7660 ,1.29154 ,0.57593 ,5.65100 
317 ,59.9426 ,1.29332 ,0.56224 ,5.51668 
318 ,60.1506 ,1.29530 ,0.56224 ,5.51668 
319 ,60.3587 ,1.29740 ,0.53828 ,5.28164 
320 ,60.5507 ,1.29932 ,0.53828 ,5.28164 
321 ,60.7267 ,1.30123 ,0.51433 ,5.04659 
322 ,60.9026 ,1.30294 ,0.50748 ,4.97943 
323 ,61.0949 ,1.30477 ,0.50748 ,4.97943 
324 ,61.2710 ,1.30664 ,0.50406 ,4.94585 
325 ,61.4631 ,1.30852 ,0.47668 ,4.67723 
326 ,61.6392 ,1.31031 ,0.45957 ,4.50934 
327 ,61.8313 ,1.31224 ,0.46984 ,4.61007 
328 ,62.0229 ,1.31419 ,0.45273 ,4.44218 
329 ,62.1993 ,1.31593 ,0.42193 ,4.13997 
330 ,62.3915 ,1.31775 ,0.42877 ,4.20713 
331 ,62.5832 ,1.31967 ,0.40482 ,3.97208 
332 ,62.7596 ,1.32152 ,0.38429 ,3.77061 
333 ,62.9513 ,1.32342 ,0.39455 ,3.87135 
334 ,63.1437 ,1.32525 ,0.36718 ,3.60272 
335 ,63.3356 ,1.32716 ,0.37744 ,3.70346 
336 ,63.5278 ,1.32906 ,0.36375 ,3.56914 
337 ,63.7039 ,1.33100 ,0.34664 ,3.40125 
338 ,63.8799 ,1.33270 ,0.33295 ,3.26694 
339 ,64.0720 ,1.33455 ,0.32611 ,3.19978 
340 ,64.2482 ,1.33636 ,0.32953 ,3.23336 
341 ,64.4402 ,1.33831 ,0.30215 ,2.96473 
342 ,64.6323 ,1.34018 ,0.29531 ,2.89758 
343 ,64.8244 ,1.34204 ,0.27478 ,2.69611 
344 ,65.0005 ,1.34392 ,0.27135 ,2.66253 
345 ,65.1765 ,1.34566 ,0.25082 ,2.46106 
346 ,65.3686 ,1.34747 ,0.26793 ,2.62895 
347 ,65.5928 ,1.34980 ,0.24740 ,2.42748 
348 ,65.7849 ,1.35166 ,0.23029 ,2.25959 
349 ,65.9768 ,1.35359 ,0.22002 ,2.15885 
350 ,66.1530 ,1.35540 ,0.19949 ,1.95738 
351 ,66.3610 ,1.35741 ,0.19264 ,1.89023 
352 ,66.5371 ,1.35926 ,0.18580 ,1.82307 
353 ,66.7452 ,1.36134 ,0.19264 ,1.89023 
354 ,66.9372 ,1.36321 ,0.16869 ,1.65518 
355 ,67.1134 ,1.36502 ,0.15158 ,1.48729 
356 ,67.3054 ,1.36691 ,0.15500 ,1.52087 
357 ,67.4815 ,1.36867 ,0.13789 ,1.35298 
358 ,67.6735 ,1.37055 ,0.13105 ,1.28582 
359 ,67.8496 ,1.37235 ,0.13789 ,1.35298 
360 ,68.0257 ,1.37413 ,0.10709 ,1.05077 
361 ,68.2177 ,1.37598 ,0.08656 ,0.84930 
362 ,68.3939 ,1.37778 ,0.08998 ,0.88288 
363 ,68.5859 ,1.37966 ,0.08998 ,0.88288 
364 ,68.7779 ,1.38166 ,0.05918 ,0.58067 
365 ,68.9540 ,1.38338 ,0.04549 ,0.44636 
366 ,69.1461 ,1.38529 ,0.04549 ,0.44636 
367 ,69.3382 ,1.38727 ,0.04207 ,0.41278 
368 ,69.5139 ,1.38907 ,0.03180 ,0.31205 
369 ,69.7063 ,1.39086 ,0.02496 ,0.24489 
370 ,69.9146 ,1.39293 ,-0.00242 ,-0.02373 
371 ,70.1065 ,1.39490 ,0.00443 ,0.04342 
372 ,70.2982 ,1.39685 ,-0.00242 ,-0.02373 
373 ,70.4746 ,1.39860 ,-0.02637 ,-0.25878 
374 ,70.6665 ,1.40046 ,-0.00926 ,-0.09089 
375 ,70.8587 ,1.40243 ,-0.04006 ,-0.39310 
376 ,71.0665 ,1.40441 ,-0.04691 ,-0.46025 
377 ,71.2431 ,1.40631 ,-0.04348 ,-0.42667 
378 ,71.4509 ,1.40825 ,-0.07086 ,-0.69530 
379 ,71.6271 ,1.41020 ,-0.06744 ,-0.66172 
380 ,71.8189 ,1.41205 ,-0.09140 ,-0.89677 
381 ,72.0110 ,1.41395 ,-0.10851 ,-1.06466 
382 ,72.1874 ,1.41571 ,-0.09482 ,-0.93035 
383 ,72.3795 ,1.41769 ,-0.10851 ,-1.06466 
384 ,72.5873 ,1.41972 ,-0.12219 ,-1.19898 
385 ,72.7792 ,1.42166 ,-0.13931 ,-1.36687 
386 ,72.9556 ,1.42341 ,-0.13931 ,-1.36687 
387 ,73.1477 ,1.42533 ,-0.15642 ,-1.53476 
388 ,73.3398 ,1.42712 ,-0.15642 ,-1.53476 
389 ,73.5159 ,1.42900 ,-0.18379 ,-1.80338 
390 ,73.6920 ,1.43077 ,-0.19064 ,-1.87054 
391 ,73.8677 ,1.43253 ,-0.20090 ,-1.97128 
392 ,74.0602 ,1.43437 ,-0.20775 ,-2.03843 
393 ,74.2522 ,1.43639 ,-0.23170 ,-2.27348 
394 ,74.4123 ,1.43807 ,-0.21802 ,-2.13917 
395 ,74.5884 ,1.43974 ,-0.23513 ,-2.30706 
396 ,74.7805 ,1.44157 ,-0.24539 ,-2.40779 
397 ,74.9723 ,1.44349 ,-0.25224 ,-2.47495 
398 ,75.1645 ,1.44549 ,-0.24881 ,-2.44137 
399 ,75.3408 ,1.44724 ,-0.25224 ,-2.47495 
400 ,75.5488 ,1.44931 ,-0.28304 ,-2.77716 
401 ,75.7409 ,1.45119 ,-0.29673 ,-2.91147 
402 ,75.9328 ,1.45326 ,-0.29330 ,-2.87789 
403 ,76.0929 ,1.45490 ,-0.32068 ,-3.14652 
404 ,76.2852 ,1.45664 ,-0.31041 ,-3.04578 
405 ,76.4769 ,1.45859 ,-0.32410 ,-3.18010 
406 ,76.6532 ,1.46038 ,-0.34121 ,-3.34799 
407 ,76.8613 ,1.46235 ,-0.33779 ,-3.31441 
408 ,77.0532 ,1.46435 ,-0.34806 ,-3.41514 
409 ,77.2452 ,1.46627 ,-0.35832 ,-3.51588 
410 ,77.4536 ,1.46836 ,-0.37886 ,-3.71735 
411 ,77.6612 ,1.47040 ,-0.36859 ,-3.61661 
412 ,77.8211 ,1.47218 ,-0.38912 ,-3.81808 
413 ,78.0136 ,1.47391 ,-0.40966 ,-4.01955 
414 ,78.2214 ,1.47604 ,-0.40623 ,-3.98597 
415 ,78.3978 ,1.47786 ,-0.41650 ,-4.08671 
416 ,78.5900 ,1.47978 ,-0.43361 ,-4.25460 
417 ,78.7659 ,1.48150 ,-0.44388 ,-4.35534 
418 ,78.9743 ,1.48352 ,-0.45757 ,-4.48965 
419 ,79.1982 ,1.48567 ,-0.43703 ,-4.28818 
420 ,79.3904 ,1.48768 ,-0.47468 ,-4.65754 
421 ,79.5821 ,1.48965 ,-0.47126 ,-4.62396 
422 ,79.7584 ,1.49142 ,-0.46441 ,-4.55681 
423 ,79.9342 ,1.49315 ,-0.49863 ,-4.89259 
424 ,80.1106 ,1.49494 ,-0.49863 ,-4.89259 
425 ,80.2865 ,1.49674 ,-0.52259 ,-5.12764 
426 ,80.4626 ,1.49854 ,-0.50548 ,-4.95975 
427 ,80.6709 ,1.50038 ,-0.53285 ,-5.22837 
428 ,80.8629 ,1.50240 ,-0.52601 ,-5.16121 
429 ,81.0391 ,1.50418 ,-0.53970 ,-5.29553 
430 ,81.2311 ,1.50608 ,-0.54312 ,-5.32911 
431 ,81.4230 ,1.50805 ,-0.56023 ,-5.49700 
432 ,81.6313 ,1.51006 ,-0.56023 ,-5.49700 
433 ,81.8232 ,1.51198 ,-0.56365 ,-5.53058 
434 ,82.0155 ,1.51395 ,-0.57734 ,-5.66489 
435 ,82.2074 ,1.51584 ,-0.60130 ,-5.89994 
436 ,82.3996 ,1.51786 ,-0.60814 ,-5.96709 
437 ,82.5913 ,1.51981 ,-0.62183 ,-6.10141 
438 ,82.7675 ,1.52146 ,-0.63552 ,-6.23572 
439 ,82.9437 ,1.52331 ,-0.62868 ,-6.16856 
440 ,83.1358 ,1.52513 ,-0.62868 ,-6.16856 
441 ,83.3439 ,1.52723 ,-0.64579 ,-6.33646 
442 ,83.5359 ,1.52914 ,-0.65263 ,-6.40361 
443 ,83.7120 ,1.53097 ,-0.68343 ,-6.70582 
444 ,83.8878 ,1.53265 ,-0.69370 ,-6.80655 
445 ,84.0805 ,1.53459 ,-0.65947 ,-6.47077 
446 ,84.2722 ,1.53651 ,-0.69027 ,-6.77297 
447 ,84.4484 ,1.53830 ,-0.71423 ,-7.00802 
448 ,84.6244 ,1.54016 ,-0.70739 ,-6.94086 
449 ,84.8005 ,1.54182 ,-0.70739 ,-6.94086 
450 ,84.9765 ,1.54357 ,-0.72107 ,-7.07518 
451 ,85.1686 ,1.54539 ,-0.74503 ,-7.31023 
452 ,85.3446 ,1.54724 ,-0.75187 ,-7.37738 
453 ,85.5368 ,1.54919 ,-0.73818 ,-7.24307 
454 ,85.7128 ,1.55097 ,-0.77583 ,-7.61243 
455 ,85.9049 ,1.55276 ,-0.76898 ,-7.54527 
456 ,86.0969 ,1.55475 ,-0.76556 ,-7.51170 
457 ,86.2731 ,1.55654 ,-0.76898 ,-7.54527 
458 ,86.4491 ,1.55832 ,-0.80321 ,-7.88106 
459 ,86.6253 ,1.56004 ,-0.81005 ,-7.94821 
460 ,86.8169 ,1.56192 ,-0.81005 ,-7.94821 
461 ,87.0095 ,1.56386 ,-0.82716 ,-8.11611 
462 ,87.2015 ,1.56584 ,-0.82716 ,-8.11611 
463 ,87.3774 ,1.56750 ,-0.82716 ,-8.11611 
