Data stamp = , 24-04-2022 21:06:26 833

Calibration Values: 
Slope = , 26.54 , g/V 
Offset Voltage at no contact = , -0.501760 , V 

No , Time , Stage Position ,   Mass , Force 
   ,  (s) ,      (mm)      ,   (g)  , (mN)  

1 ,0.0000 ,0.69936 ,5.29852 ,51.98905 
2 ,0.2243 ,0.69945 ,5.30194 ,52.02263 
3 ,0.5604 ,0.70037 ,5.28141 ,51.82116 
4 ,0.7685 ,0.70196 ,5.30536 ,52.05621 
5 ,0.9765 ,0.70377 ,5.30194 ,52.02263 
6 ,1.1692 ,0.70579 ,5.30878 ,52.08979 
7 ,1.3770 ,0.70788 ,5.31221 ,52.12337 
8 ,1.5692 ,0.70970 ,5.31221 ,52.12337 
9 ,1.7613 ,0.71168 ,5.28483 ,51.85474 
10 ,1.9373 ,0.71346 ,5.27798 ,51.78758 
11 ,2.1296 ,0.71534 ,5.27114 ,51.72043 
12 ,2.3213 ,0.71732 ,5.22323 ,51.25033 
13 ,2.4977 ,0.71909 ,5.21296 ,51.14960 
14 ,2.7055 ,0.72114 ,5.20270 ,51.04886 
15 ,2.8977 ,0.72305 ,5.17874 ,50.81381 
16 ,3.0897 ,0.72508 ,5.17190 ,50.74666 
17 ,3.2820 ,0.72690 ,5.13768 ,50.41087 
18 ,3.4737 ,0.72887 ,5.11714 ,50.20940 
19 ,3.6502 ,0.73063 ,5.11714 ,50.20940 
20 ,3.8261 ,0.73244 ,5.07608 ,49.80646 
21 ,4.0180 ,0.73424 ,5.06581 ,49.70573 
22 ,4.2261 ,0.73634 ,5.05212 ,49.57142 
23 ,4.4183 ,0.73827 ,5.01790 ,49.23563 
24 ,4.5940 ,0.74010 ,5.01106 ,49.16848 
25 ,4.7545 ,0.74179 ,4.99737 ,49.03416 
26 ,4.9304 ,0.74344 ,4.97683 ,48.83269 
27 ,5.1228 ,0.74529 ,4.95972 ,48.66480 
28 ,5.3305 ,0.74726 ,4.93577 ,48.42975 
29 ,5.5228 ,0.74930 ,4.90497 ,48.12755 
30 ,5.7147 ,0.75120 ,4.90497 ,48.12755 
31 ,5.9066 ,0.75319 ,4.89128 ,47.99324 
32 ,6.0831 ,0.75498 ,4.86390 ,47.72461 
33 ,6.2911 ,0.75694 ,4.86390 ,47.72461 
34 ,6.4671 ,0.75879 ,4.82626 ,47.35525 
35 ,6.6594 ,0.76063 ,4.81941 ,47.28809 
36 ,6.8513 ,0.76256 ,4.80230 ,47.12020 
37 ,7.0434 ,0.76447 ,4.76808 ,46.78442 
38 ,7.2196 ,0.76628 ,4.74413 ,46.54937 
39 ,7.4116 ,0.76820 ,4.73728 ,46.48221 
40 ,7.6197 ,0.77022 ,4.71333 ,46.24716 
41 ,7.7957 ,0.77213 ,4.69622 ,46.07927 
42 ,7.9719 ,0.77385 ,4.68253 ,45.94496 
43 ,8.1638 ,0.77571 ,4.68253 ,45.94496 
44 ,8.3720 ,0.77781 ,4.64488 ,45.57560 
45 ,8.5640 ,0.77973 ,4.62093 ,45.34055 
46 ,8.7400 ,0.78153 ,4.59697 ,45.10550 
47 ,8.9320 ,0.78335 ,4.58671 ,45.00477 
48 ,9.1239 ,0.78529 ,4.56617 ,44.80330 
49 ,9.3322 ,0.78727 ,4.54906 ,44.63541 
50 ,9.5244 ,0.78935 ,4.54906 ,44.63541 
51 ,9.7165 ,0.79126 ,4.50115 ,44.16531 
52 ,9.9082 ,0.79316 ,4.49773 ,44.13173 
53 ,10.1006 ,0.79505 ,4.46693 ,43.82953 
54 ,10.2766 ,0.79683 ,4.45324 ,43.69521 
55 ,10.4528 ,0.79864 ,4.44640 ,43.62806 
56 ,10.6287 ,0.80040 ,4.41902 ,43.35943 
57 ,10.8047 ,0.80217 ,4.41902 ,43.35943 
58 ,10.9969 ,0.80399 ,4.37795 ,42.95649 
59 ,11.1728 ,0.80581 ,4.37111 ,42.88933 
60 ,11.3650 ,0.80769 ,4.37111 ,42.88933 
61 ,11.5407 ,0.80960 ,4.31978 ,42.38566 
62 ,11.7172 ,0.81122 ,4.31978 ,42.38566 
63 ,11.8933 ,0.81300 ,4.29240 ,42.11703 
64 ,12.0695 ,0.81483 ,4.29582 ,42.15061 
65 ,12.2776 ,0.81684 ,4.25133 ,41.71409 
66 ,12.4697 ,0.81872 ,4.26160 ,41.81483 
67 ,12.6617 ,0.82060 ,4.22053 ,41.41189 
68 ,12.8538 ,0.82259 ,4.22396 ,41.44547 
69 ,13.0459 ,0.82448 ,4.19658 ,41.17684 
70 ,13.2538 ,0.82661 ,4.16920 ,40.90821 
71 ,13.4296 ,0.82840 ,4.16236 ,40.84106 
72 ,13.6061 ,0.83019 ,4.15209 ,40.74032 
73 ,13.7817 ,0.83190 ,4.13840 ,40.60601 
74 ,13.9583 ,0.83368 ,4.10760 ,40.30380 
75 ,14.1504 ,0.83551 ,4.09391 ,40.16949 
76 ,14.3585 ,0.83756 ,4.06312 ,39.86729 
77 ,14.5500 ,0.83958 ,4.05969 ,39.83371 
78 ,14.7265 ,0.84135 ,4.04600 ,39.69940 
79 ,14.9186 ,0.84324 ,4.01520 ,39.39719 
80 ,15.1108 ,0.84512 ,4.01178 ,39.36361 
81 ,15.3029 ,0.84709 ,3.98441 ,39.09499 
82 ,15.4949 ,0.84898 ,3.95703 ,38.82636 
83 ,15.6709 ,0.85078 ,3.94334 ,38.69205 
84 ,15.8468 ,0.85254 ,3.95018 ,38.75920 
85 ,16.0232 ,0.85433 ,3.91596 ,38.42342 
86 ,16.2312 ,0.85628 ,3.88858 ,38.15479 
87 ,16.4232 ,0.85831 ,3.88858 ,38.15479 
88 ,16.5993 ,0.86010 ,3.86121 ,37.88617 
89 ,16.7913 ,0.86198 ,3.84410 ,37.71828 
90 ,16.9994 ,0.86395 ,3.84410 ,37.71828 
91 ,17.1757 ,0.86583 ,3.80303 ,37.31534 
92 ,17.3838 ,0.86787 ,3.79276 ,37.21460 
93 ,17.5916 ,0.86985 ,3.74828 ,36.77808 
94 ,17.7833 ,0.87190 ,3.75512 ,36.84524 
95 ,17.9599 ,0.87367 ,3.73801 ,36.67735 
96 ,18.1520 ,0.87555 ,3.72774 ,36.57661 
97 ,18.3440 ,0.87749 ,3.71748 ,36.47588 
98 ,18.5197 ,0.87926 ,3.69694 ,36.27441 
99 ,18.6960 ,0.88103 ,3.66957 ,36.00578 
100 ,18.8721 ,0.88277 ,3.65588 ,35.87147 
101 ,19.0483 ,0.88458 ,3.64903 ,35.80431 
102 ,19.2245 ,0.88633 ,3.63534 ,35.67000 
103 ,19.4165 ,0.88821 ,3.60454 ,35.36779 
104 ,19.6246 ,0.89026 ,3.59770 ,35.30064 
105 ,19.8166 ,0.89217 ,3.56348 ,34.96485 
106 ,19.9927 ,0.89396 ,3.54637 ,34.79696 
107 ,20.1848 ,0.89589 ,3.54637 ,34.79696 
108 ,20.3609 ,0.89771 ,3.52584 ,34.59549 
109 ,20.5365 ,0.89955 ,3.49161 ,34.25971 
110 ,20.7130 ,0.90116 ,3.48819 ,34.22613 
111 ,20.9209 ,0.90322 ,3.47792 ,34.12540 
112 ,21.1128 ,0.90527 ,3.46081 ,33.95751 
113 ,21.3052 ,0.90710 ,3.44370 ,33.78961 
114 ,21.4974 ,0.90902 ,3.40606 ,33.42025 
115 ,21.7055 ,0.91099 ,3.41290 ,33.48741 
116 ,21.9133 ,0.91314 ,3.38895 ,33.25236 
117 ,22.1056 ,0.91511 ,3.37184 ,33.08447 
118 ,22.2818 ,0.91686 ,3.35473 ,32.91658 
119 ,22.4738 ,0.91873 ,3.34446 ,32.81584 
120 ,22.6498 ,0.92056 ,3.32735 ,32.64795 
121 ,22.8261 ,0.92234 ,3.31366 ,32.51364 
122 ,23.0180 ,0.92413 ,3.27944 ,32.17786 
123 ,23.1938 ,0.92596 ,3.26233 ,32.00996 
124 ,23.3702 ,0.92778 ,3.25548 ,31.94281 
125 ,23.5461 ,0.92951 ,3.25206 ,31.90923 
126 ,23.7384 ,0.93136 ,3.23153 ,31.70776 
127 ,23.9464 ,0.93338 ,3.21784 ,31.57345 
128 ,24.1224 ,0.93523 ,3.18020 ,31.20409 
129 ,24.2824 ,0.93696 ,3.18020 ,31.20409 
130 ,24.4747 ,0.93874 ,3.16309 ,31.03619 
131 ,24.6665 ,0.94066 ,3.14597 ,30.86830 
132 ,24.8588 ,0.94257 ,3.13229 ,30.73399 
133 ,25.0507 ,0.94455 ,3.12544 ,30.66683 
134 ,25.2427 ,0.94654 ,3.09122 ,30.33105 
135 ,25.4351 ,0.94836 ,3.07069 ,30.12958 
136 ,25.6433 ,0.95041 ,3.06384 ,30.06242 
137 ,25.8348 ,0.95237 ,3.04673 ,29.89453 
138 ,26.0114 ,0.95416 ,3.02962 ,29.72664 
139 ,26.2031 ,0.95603 ,3.02620 ,29.69306 
140 ,26.3790 ,0.95783 ,2.99198 ,29.35728 
141 ,26.5554 ,0.95960 ,2.98513 ,29.29012 
142 ,26.7317 ,0.96137 ,2.97487 ,29.18939 
143 ,26.9396 ,0.96339 ,2.95091 ,28.95434 
144 ,27.1156 ,0.96516 ,2.93722 ,28.82003 
145 ,27.3077 ,0.96704 ,2.93722 ,28.82003 
146 ,27.4837 ,0.96891 ,2.90985 ,28.55140 
147 ,27.6756 ,0.97073 ,2.89273 ,28.38351 
148 ,27.8520 ,0.97255 ,2.88247 ,28.28277 
149 ,28.0601 ,0.97458 ,2.88247 ,28.28277 
150 ,28.2681 ,0.97664 ,2.86536 ,28.11488 
151 ,28.4603 ,0.97860 ,2.82429 ,27.71194 
152 ,28.6524 ,0.98047 ,2.82087 ,27.67836 
153 ,28.8925 ,0.98268 ,2.79349 ,27.40974 
154 ,29.1005 ,0.98493 ,2.77638 ,27.24185 
155 ,29.2605 ,0.98675 ,2.76954 ,27.17469 
156 ,29.4527 ,0.98854 ,2.75243 ,27.00680 
157 ,29.6449 ,0.99050 ,2.74216 ,26.90606 
158 ,29.8371 ,0.99244 ,2.69767 ,26.46954 
159 ,30.0284 ,0.99423 ,2.71478 ,26.63744 
160 ,30.2204 ,0.99617 ,2.68398 ,26.33523 
161 ,30.3969 ,0.99799 ,2.65660 ,26.06661 
162 ,30.5891 ,0.99987 ,2.66345 ,26.13376 
163 ,30.7653 ,1.00165 ,2.65660 ,26.06661 
164 ,30.9568 ,1.00354 ,2.62581 ,25.76440 
165 ,31.1495 ,1.00547 ,2.61896 ,25.69724 
166 ,31.3416 ,1.00745 ,2.59843 ,25.49577 
167 ,31.5497 ,1.00936 ,2.58816 ,25.39504 
168 ,31.7412 ,1.01137 ,2.55052 ,25.02568 
169 ,31.9175 ,1.01323 ,2.54710 ,24.99210 
170 ,32.1098 ,1.01506 ,2.55394 ,25.05926 
171 ,32.3019 ,1.01700 ,2.50603 ,24.58916 
172 ,32.4941 ,1.01892 ,2.50945 ,24.62274 
173 ,32.7021 ,1.02092 ,2.48550 ,24.38769 
174 ,32.8941 ,1.02287 ,2.47865 ,24.32053 
175 ,33.0857 ,1.02481 ,2.47181 ,24.25338 
176 ,33.2618 ,1.02663 ,2.45127 ,24.05191 
177 ,33.4219 ,1.02833 ,2.41705 ,23.71612 
178 ,33.5984 ,1.03005 ,2.41705 ,23.71612 
179 ,33.8061 ,1.03207 ,2.40679 ,23.61539 
180 ,33.9826 ,1.03382 ,2.38625 ,23.41392 
181 ,34.1587 ,1.03561 ,2.35888 ,23.14529 
182 ,34.3503 ,1.03750 ,2.35888 ,23.14529 
183 ,34.5266 ,1.03928 ,2.34177 ,22.97740 
184 ,34.7186 ,1.04118 ,2.31781 ,22.74235 
185 ,34.9105 ,1.04310 ,2.32465 ,22.80951 
186 ,35.1028 ,1.04499 ,2.29043 ,22.47373 
187 ,35.3111 ,1.04702 ,2.30070 ,22.57446 
188 ,35.4871 ,1.04887 ,2.29385 ,22.50731 
189 ,35.6632 ,1.05065 ,2.24937 ,22.07079 
190 ,35.8395 ,1.05246 ,2.23568 ,21.93647 
191 ,36.0310 ,1.05425 ,2.23910 ,21.97005 
192 ,36.2073 ,1.05606 ,2.22199 ,21.80216 
193 ,36.3834 ,1.05785 ,2.19803 ,21.56711 
194 ,36.5757 ,1.05975 ,2.18777 ,21.46638 
195 ,36.7676 ,1.06160 ,2.16723 ,21.26491 
196 ,36.9433 ,1.06348 ,2.15697 ,21.16417 
197 ,37.1354 ,1.06533 ,2.13301 ,20.92912 
198 ,37.3120 ,1.06715 ,2.12275 ,20.82839 
199 ,37.5040 ,1.06899 ,2.10564 ,20.66050 
200 ,37.6958 ,1.07087 ,2.09879 ,20.59334 
201 ,37.8880 ,1.07283 ,2.10221 ,20.62692 
202 ,38.0803 ,1.07479 ,2.05773 ,20.19040 
203 ,38.2563 ,1.07661 ,2.06799 ,20.29114 
204 ,38.4319 ,1.07833 ,2.05773 ,20.19040 
205 ,38.6084 ,1.08005 ,2.05088 ,20.12325 
206 ,38.8164 ,1.08209 ,2.02008 ,19.82104 
207 ,38.9925 ,1.08391 ,2.00982 ,19.72031 
208 ,39.1686 ,1.08563 ,1.98928 ,19.51884 
209 ,39.3449 ,1.08742 ,1.96533 ,19.28379 
210 ,39.5529 ,1.08946 ,1.96533 ,19.28379 
211 ,39.7290 ,1.09127 ,1.95506 ,19.18305 
212 ,39.9051 ,1.09309 ,1.92768 ,18.91443 
213 ,40.2730 ,1.09674 ,1.90373 ,18.67938 
214 ,40.4813 ,1.09869 ,1.89004 ,18.54507 
215 ,40.6734 ,1.10073 ,1.86951 ,18.34360 
216 ,40.8655 ,1.10258 ,1.86608 ,18.31002 
217 ,41.0575 ,1.10452 ,1.85240 ,18.17570 
218 ,41.2337 ,1.10633 ,1.82160 ,17.87350 
219 ,41.4252 ,1.10817 ,1.81475 ,17.80634 
220 ,41.6017 ,1.11000 ,1.80106 ,17.67203 
221 ,41.7778 ,1.11175 ,1.79422 ,17.60487 
222 ,41.9860 ,1.11379 ,1.77711 ,17.43698 
223 ,42.1942 ,1.11589 ,1.77711 ,17.43698 
224 ,42.3858 ,1.11779 ,1.74973 ,17.16836 
225 ,42.5941 ,1.11991 ,1.74289 ,17.10120 
226 ,42.7704 ,1.12169 ,1.72920 ,16.96689 
227 ,42.9624 ,1.12354 ,1.69498 ,16.63110 
228 ,43.1386 ,1.12536 ,1.68813 ,16.56395 
229 ,43.3304 ,1.12719 ,1.69498 ,16.63110 
230 ,43.5065 ,1.12904 ,1.68129 ,16.49679 
231 ,43.6987 ,1.13095 ,1.64707 ,16.16101 
232 ,43.9066 ,1.13294 ,1.63338 ,16.02669 
233 ,44.0988 ,1.13490 ,1.62653 ,15.95954 
234 ,44.2909 ,1.13679 ,1.61284 ,15.82522 
235 ,44.4990 ,1.13885 ,1.58889 ,15.59018 
236 ,44.7070 ,1.14099 ,1.57862 ,15.48944 
237 ,44.8992 ,1.14290 ,1.57178 ,15.42228 
238 ,45.0913 ,1.14485 ,1.56493 ,15.35513 
239 ,45.2993 ,1.14688 ,1.53071 ,15.01934 
240 ,45.4914 ,1.14880 ,1.53071 ,15.01934 
241 ,45.6832 ,1.15071 ,1.49991 ,14.71714 
242 ,45.8596 ,1.15259 ,1.48622 ,14.58283 
243 ,46.0517 ,1.15450 ,1.48965 ,14.61640 
244 ,46.2597 ,1.15647 ,1.47253 ,14.44851 
245 ,46.4513 ,1.15841 ,1.45542 ,14.28062 
246 ,46.6434 ,1.16033 ,1.44174 ,14.14631 
247 ,46.8194 ,1.16217 ,1.42120 ,13.94484 
248 ,47.0121 ,1.16403 ,1.43147 ,14.04557 
249 ,47.2202 ,1.16612 ,1.39383 ,13.67621 
250 ,47.3959 ,1.16800 ,1.40751 ,13.81053 
251 ,47.5879 ,1.16985 ,1.38014 ,13.54190 
252 ,47.7644 ,1.17161 ,1.35618 ,13.30685 
253 ,47.9401 ,1.17346 ,1.35618 ,13.30685 
254 ,48.1163 ,1.17511 ,1.33907 ,13.13896 
255 ,48.3085 ,1.17703 ,1.35276 ,13.27327 
256 ,48.5006 ,1.17896 ,1.31169 ,12.87033 
257 ,48.7086 ,1.18096 ,1.30485 ,12.80318 
258 ,48.9006 ,1.18286 ,1.29458 ,12.70244 
259 ,49.1089 ,1.18498 ,1.28089 ,12.56813 
260 ,49.3168 ,1.18705 ,1.26036 ,12.36666 
261 ,49.5252 ,1.18913 ,1.23641 ,12.13161 
262 ,49.7171 ,1.19103 ,1.23298 ,12.09803 
263 ,49.8933 ,1.19286 ,1.21929 ,11.96372 
264 ,50.0692 ,1.19463 ,1.21929 ,11.96372 
265 ,50.2454 ,1.19638 ,1.20218 ,11.79583 
266 ,50.4214 ,1.19818 ,1.17138 ,11.49362 
267 ,50.5974 ,1.19992 ,1.15427 ,11.32573 
268 ,50.7895 ,1.20171 ,1.17481 ,11.52720 
269 ,50.9656 ,1.20358 ,1.14401 ,11.22500 
270 ,51.1418 ,1.20536 ,1.12005 ,10.98995 
271 ,51.3176 ,1.20715 ,1.11663 ,10.95637 
272 ,51.5099 ,1.20906 ,1.12005 ,10.98995 
273 ,51.7175 ,1.21094 ,1.09952 ,10.78848 
274 ,51.9101 ,1.21293 ,1.08925 ,10.68774 
275 ,52.1020 ,1.21497 ,1.05503 ,10.35196 
276 ,52.2942 ,1.21686 ,1.05161 ,10.31838 
277 ,52.5022 ,1.21891 ,1.03108 ,10.11691 
278 ,52.6784 ,1.22070 ,1.02423 ,10.04976 
279 ,52.8542 ,1.22247 ,1.01396 ,9.94902 
280 ,53.0306 ,1.22417 ,1.01054 ,9.91544 
281 ,53.2224 ,1.22613 ,0.97632 ,9.57966 
282 ,53.4147 ,1.22803 ,0.98317 ,9.64682 
283 ,53.6227 ,1.23000 ,0.96605 ,9.47892 
284 ,53.8148 ,1.23209 ,0.94894 ,9.31103 
285 ,54.0069 ,1.23388 ,0.93868 ,9.21030 
286 ,54.1990 ,1.23585 ,0.90788 ,8.90809 
287 ,54.3747 ,1.23768 ,0.91814 ,9.00883 
288 ,54.5512 ,1.23945 ,0.91472 ,8.97525 
289 ,54.7272 ,1.24118 ,0.89419 ,8.77378 
290 ,54.9192 ,1.24306 ,0.88050 ,8.63947 
291 ,55.1271 ,1.24520 ,0.86339 ,8.47158 
292 ,55.3194 ,1.24713 ,0.85654 ,8.40442 
293 ,55.5116 ,1.24897 ,0.84286 ,8.27011 
294 ,55.7197 ,1.25103 ,0.82917 ,8.13579 
295 ,55.8956 ,1.25293 ,0.81548 ,8.00148 
296 ,56.0718 ,1.25466 ,0.80863 ,7.93432 
297 ,56.2637 ,1.25653 ,0.77784 ,7.63212 
298 ,56.4399 ,1.25832 ,0.75046 ,7.36349 
299 ,56.6159 ,1.26006 ,0.76415 ,7.49780 
300 ,56.7920 ,1.26184 ,0.76415 ,7.49780 
301 ,56.9521 ,1.26356 ,0.75046 ,7.36349 
302 ,57.1279 ,1.26519 ,0.74019 ,7.26276 
303 ,57.3043 ,1.26700 ,0.71624 ,7.02771 
304 ,57.4960 ,1.26882 ,0.72308 ,7.09486 
305 ,57.6724 ,1.27061 ,0.71966 ,7.06129 
306 ,57.8486 ,1.27243 ,0.69228 ,6.79266 
307 ,58.0245 ,1.27422 ,0.67517 ,6.62477 
308 ,58.2166 ,1.27603 ,0.68544 ,6.72550 
309 ,58.3928 ,1.27787 ,0.66833 ,6.55761 
310 ,58.6008 ,1.27982 ,0.63753 ,6.25541 
311 ,58.7929 ,1.28176 ,0.64437 ,6.32256 
312 ,58.9849 ,1.28382 ,0.61699 ,6.05394 
313 ,59.1611 ,1.28552 ,0.59988 ,5.88605 
314 ,59.3532 ,1.28739 ,0.60673 ,5.95320 
315 ,59.5454 ,1.28932 ,0.57593 ,5.65100 
316 ,59.7368 ,1.29123 ,0.57935 ,5.68458 
317 ,59.9291 ,1.29311 ,0.55882 ,5.48311 
318 ,60.1215 ,1.29505 ,0.54855 ,5.38237 
319 ,60.3135 ,1.29701 ,0.55197 ,5.41595 
320 ,60.5055 ,1.29890 ,0.51775 ,5.08017 
321 ,60.6816 ,1.30077 ,0.50064 ,4.91228 
322 ,60.8735 ,1.30254 ,0.51775 ,5.08017 
323 ,61.0497 ,1.30440 ,0.48011 ,4.71081 
324 ,61.2415 ,1.30628 ,0.46984 ,4.61007 
325 ,61.4179 ,1.30805 ,0.46984 ,4.61007 
326 ,61.6100 ,1.31004 ,0.48353 ,4.74438 
327 ,61.7862 ,1.31174 ,0.44588 ,4.37502 
328 ,61.9941 ,1.31375 ,0.43904 ,4.30787 
329 ,62.1703 ,1.31563 ,0.44931 ,4.40860 
330 ,62.3624 ,1.31748 ,0.40140 ,3.93850 
331 ,62.5544 ,1.31939 ,0.39113 ,3.83777 
332 ,62.7303 ,1.32120 ,0.40482 ,3.97208 
333 ,62.9062 ,1.32292 ,0.38771 ,3.80419 
334 ,63.0825 ,1.32469 ,0.36718 ,3.60272 
335 ,63.2745 ,1.32664 ,0.37744 ,3.70346 
336 ,63.4666 ,1.32850 ,0.35006 ,3.43483 
337 ,63.6587 ,1.33041 ,0.35006 ,3.43483 
338 ,63.8667 ,1.33254 ,0.34322 ,3.36767 
339 ,64.0426 ,1.33438 ,0.32269 ,3.16620 
340 ,64.2192 ,1.33607 ,0.31584 ,3.09905 
341 ,64.4112 ,1.33804 ,0.29873 ,2.93116 
342 ,64.6033 ,1.33986 ,0.27820 ,2.72969 
343 ,64.7953 ,1.34178 ,0.26793 ,2.62895 
344 ,64.9872 ,1.34381 ,0.25767 ,2.52822 
345 ,65.1635 ,1.34559 ,0.25424 ,2.49464 
346 ,65.3396 ,1.34726 ,0.23371 ,2.29317 
347 ,65.5315 ,1.34920 ,0.23713 ,2.32675 
348 ,65.7075 ,1.35096 ,0.23713 ,2.32675 
349 ,65.9157 ,1.35298 ,0.23029 ,2.25959 
350 ,66.0917 ,1.35481 ,0.19949 ,1.95738 
351 ,66.2838 ,1.35663 ,0.19607 ,1.92381 
352 ,66.4759 ,1.35859 ,0.19949 ,1.95738 
353 ,66.6681 ,1.36061 ,0.18238 ,1.78949 
354 ,66.8602 ,1.36239 ,0.16527 ,1.62160 
355 ,67.0361 ,1.36430 ,0.16185 ,1.58802 
356 ,67.2281 ,1.36609 ,0.15842 ,1.55445 
357 ,67.4204 ,1.36808 ,0.13105 ,1.28582 
358 ,67.6283 ,1.37009 ,0.13105 ,1.28582 
359 ,67.8044 ,1.37191 ,0.11736 ,1.15151 
360 ,67.9805 ,1.37366 ,0.10367 ,1.01719 
361 ,68.1565 ,1.37548 ,0.11051 ,1.08435 
362 ,68.3324 ,1.37719 ,0.09682 ,0.95004 
363 ,68.5246 ,1.37910 ,0.07287 ,0.71499 
364 ,68.7325 ,1.38119 ,0.07287 ,0.71499 
365 ,68.9089 ,1.38294 ,0.06260 ,0.61425 
366 ,69.1170 ,1.38498 ,0.04891 ,0.47994 
367 ,69.3091 ,1.38686 ,0.04549 ,0.44636 
368 ,69.5170 ,1.38895 ,0.03180 ,0.31205 
369 ,69.6931 ,1.39083 ,0.02496 ,0.24489 
370 ,69.8694 ,1.39253 ,0.01127 ,0.11058 
371 ,70.0455 ,1.39437 ,-0.00242 ,-0.02373 
372 ,70.2369 ,1.39615 ,-0.00584 ,-0.05731 
373 ,70.4136 ,1.39800 ,-0.02637 ,-0.25878 
374 ,70.6214 ,1.40004 ,-0.04691 ,-0.46025 
375 ,70.8296 ,1.40210 ,-0.03664 ,-0.35952 
376 ,71.0055 ,1.40393 ,-0.05375 ,-0.52741 
377 ,71.1978 ,1.40583 ,-0.06744 ,-0.66172 
378 ,71.3896 ,1.40780 ,-0.06744 ,-0.66172 
379 ,71.5815 ,1.40969 ,-0.08455 ,-0.82961 
380 ,71.7739 ,1.41156 ,-0.08797 ,-0.86319 
381 ,71.9662 ,1.41345 ,-0.11535 ,-1.13182 
382 ,72.1580 ,1.41548 ,-0.10851 ,-1.06466 
383 ,72.3664 ,1.41739 ,-0.12562 ,-1.23255 
384 ,72.5582 ,1.41944 ,-0.13931 ,-1.36687 
385 ,72.7662 ,1.42144 ,-0.13931 ,-1.36687 
386 ,72.9425 ,1.42330 ,-0.14615 ,-1.43402 
387 ,73.1187 ,1.42511 ,-0.16326 ,-1.60191 
388 ,73.3106 ,1.42686 ,-0.15984 ,-1.56834 
389 ,73.4864 ,1.42870 ,-0.15984 ,-1.56834 
390 ,73.6628 ,1.43050 ,-0.18722 ,-1.83696 
391 ,73.8549 ,1.43237 ,-0.19064 ,-1.87054 
392 ,74.0469 ,1.43429 ,-0.20775 ,-2.03843 
393 ,74.2232 ,1.43610 ,-0.22144 ,-2.17275 
394 ,74.3990 ,1.43781 ,-0.23513 ,-2.30706 
395 ,74.5913 ,1.43964 ,-0.23513 ,-2.30706 
396 ,74.7830 ,1.44164 ,-0.23855 ,-2.34064 
397 ,74.9752 ,1.44356 ,-0.24881 ,-2.44137 
398 ,75.1675 ,1.44550 ,-0.25908 ,-2.54211 
399 ,75.3437 ,1.44735 ,-0.28646 ,-2.81073 
400 ,75.5196 ,1.44901 ,-0.29673 ,-2.91147 
401 ,75.7117 ,1.45088 ,-0.27619 ,-2.71000 
402 ,75.8874 ,1.45275 ,-0.31384 ,-3.07936 
403 ,76.0800 ,1.45461 ,-0.31726 ,-3.11294 
404 ,76.2720 ,1.45655 ,-0.32410 ,-3.18010 
405 ,76.4640 ,1.45843 ,-0.31726 ,-3.11294 
406 ,76.6403 ,1.46027 ,-0.35148 ,-3.44872 
407 ,76.8323 ,1.46213 ,-0.34121 ,-3.34799 
408 ,77.0243 ,1.46401 ,-0.36175 ,-3.54946 
409 ,77.2003 ,1.46586 ,-0.35490 ,-3.48230 
410 ,77.3764 ,1.46761 ,-0.36859 ,-3.61661 
411 ,77.5684 ,1.46946 ,-0.38912 ,-3.81808 
412 ,77.7607 ,1.47140 ,-0.39939 ,-3.91882 
413 ,77.9526 ,1.47327 ,-0.38912 ,-3.81808 
414 ,78.1608 ,1.47540 ,-0.42335 ,-4.15387 
415 ,78.3526 ,1.47735 ,-0.43019 ,-4.22102 
416 ,78.5289 ,1.47914 ,-0.43019 ,-4.22102 
417 ,78.7367 ,1.48117 ,-0.44730 ,-4.38891 
418 ,78.9132 ,1.48298 ,-0.46099 ,-4.52323 
419 ,79.1371 ,1.48528 ,-0.46099 ,-4.52323 
420 ,79.3132 ,1.48697 ,-0.47126 ,-4.62396 
421 ,79.4890 ,1.48873 ,-0.47126 ,-4.62396 
422 ,79.7135 ,1.49077 ,-0.49521 ,-4.85901 
423 ,79.9056 ,1.49283 ,-0.49863 ,-4.89259 
424 ,80.0974 ,1.49475 ,-0.50548 ,-4.95975 
425 ,80.2733 ,1.49665 ,-0.49863 ,-4.89259 
426 ,80.4656 ,1.49847 ,-0.51917 ,-5.09406 
427 ,80.6414 ,1.50025 ,-0.52259 ,-5.12764 
428 ,80.8177 ,1.50197 ,-0.52943 ,-5.19479 
429 ,80.9939 ,1.50376 ,-0.55681 ,-5.46342 
430 ,81.1860 ,1.50567 ,-0.54312 ,-5.32911 
431 ,81.3621 ,1.50745 ,-0.55339 ,-5.42984 
432 ,81.5702 ,1.50949 ,-0.57050 ,-5.59773 
433 ,81.7622 ,1.51141 ,-0.57734 ,-5.66489 
434 ,81.9383 ,1.51322 ,-0.60130 ,-5.89994 
435 ,82.1624 ,1.51545 ,-0.58761 ,-5.76562 
436 ,82.3381 ,1.51726 ,-0.61841 ,-6.06783 
437 ,82.5146 ,1.51898 ,-0.64236 ,-6.30288 
438 ,82.7062 ,1.52078 ,-0.60814 ,-5.96709 
439 ,82.8828 ,1.52268 ,-0.62868 ,-6.16856 
440 ,83.0908 ,1.52456 ,-0.64236 ,-6.30288 
441 ,83.2828 ,1.52664 ,-0.64579 ,-6.33646 
442 ,83.4587 ,1.52841 ,-0.65947 ,-6.47077 
443 ,83.6510 ,1.53035 ,-0.67316 ,-6.60508 
444 ,83.8271 ,1.53208 ,-0.68001 ,-6.67224 
445 ,84.0191 ,1.53389 ,-0.67659 ,-6.63866 
446 ,84.2113 ,1.53586 ,-0.70054 ,-6.87371 
447 ,84.4194 ,1.53793 ,-0.70739 ,-6.94086 
448 ,84.5954 ,1.53986 ,-0.73134 ,-7.17591 
449 ,84.7872 ,1.54166 ,-0.70739 ,-6.94086 
450 ,84.9635 ,1.54346 ,-0.71423 ,-7.00802 
451 ,85.1714 ,1.54548 ,-0.74161 ,-7.27665 
452 ,85.3636 ,1.54740 ,-0.74503 ,-7.31023 
453 ,85.5394 ,1.54924 ,-0.74845 ,-7.34380 
454 ,85.7159 ,1.55097 ,-0.78267 ,-7.67959 
455 ,85.9240 ,1.55298 ,-0.76898 ,-7.54527 
456 ,86.1160 ,1.55488 ,-0.79294 ,-7.78032 
457 ,86.2921 ,1.55674 ,-0.81005 ,-7.94821 
458 ,86.4842 ,1.55864 ,-0.79294 ,-7.78032 
459 ,86.6760 ,1.56047 ,-0.80663 ,-7.91464 
460 ,86.8526 ,1.56235 ,-0.81005 ,-7.94821 
461 ,87.0445 ,1.56418 ,-0.81347 ,-7.98179 
462 ,87.2366 ,1.56610 ,-0.84085 ,-8.25042 
463 ,87.4285 ,1.56802 ,-0.84769 ,-8.31758 
