Data stamp = , 24-04-2022 09:17:11 214

Calibration Values: 
Slope = , 26.54 , g/V 
Offset Voltage at no contact = , -0.501760 , V 

No , Time , Stage Position ,   Mass , Force 
   ,  (s) ,      (mm)      ,   (g)  , (mN)  

1 ,0.0000 ,0.69942 ,5.32247 ,52.22410 
2 ,0.2219 ,0.69951 ,5.32589 ,52.25768 
3 ,0.6219 ,0.70063 ,5.32932 ,52.29126 
4 ,0.8303 ,0.70259 ,5.31221 ,52.12337 
5 ,1.0544 ,0.70470 ,5.31905 ,52.19052 
6 ,1.2463 ,0.70664 ,5.33274 ,52.32484 
7 ,1.4384 ,0.70840 ,5.30878 ,52.08979 
8 ,1.6147 ,0.71033 ,5.29510 ,51.95548 
9 ,1.8067 ,0.71216 ,5.30194 ,52.02263 
10 ,1.9984 ,0.71423 ,5.28141 ,51.82116 
11 ,2.1909 ,0.71607 ,5.27114 ,51.72043 
12 ,2.3989 ,0.71814 ,5.23692 ,51.38464 
13 ,2.5749 ,0.71996 ,5.20954 ,51.11602 
14 ,2.7667 ,0.72180 ,5.20270 ,51.04886 
15 ,2.9430 ,0.72362 ,5.19243 ,50.94813 
16 ,3.1512 ,0.72569 ,5.16163 ,50.64592 
17 ,3.3433 ,0.72760 ,5.15136 ,50.54519 
18 ,3.5354 ,0.72940 ,5.12399 ,50.27656 
19 ,3.7436 ,0.73156 ,5.09661 ,50.00793 
20 ,3.9355 ,0.73344 ,5.07608 ,49.80646 
21 ,4.1114 ,0.73528 ,5.07950 ,49.84004 
22 ,4.2877 ,0.73712 ,5.05212 ,49.57142 
23 ,4.4796 ,0.73888 ,5.02817 ,49.33637 
24 ,4.6719 ,0.74086 ,5.00079 ,49.06774 
25 ,4.8478 ,0.74262 ,5.00079 ,49.06774 
26 ,5.0721 ,0.74464 ,4.97341 ,48.79911 
27 ,5.2636 ,0.74684 ,4.95972 ,48.66480 
28 ,5.4562 ,0.74863 ,4.92208 ,48.29544 
29 ,5.6483 ,0.75063 ,4.92208 ,48.29544 
30 ,5.8244 ,0.75257 ,4.88786 ,47.95966 
31 ,6.0005 ,0.75421 ,4.88101 ,47.89250 
32 ,6.1924 ,0.75605 ,4.86048 ,47.69103 
33 ,6.3526 ,0.75781 ,4.84679 ,47.55672 
34 ,6.5287 ,0.75943 ,4.82626 ,47.35525 
35 ,6.7367 ,0.76150 ,4.80230 ,47.12020 
36 ,6.9129 ,0.76332 ,4.78519 ,46.95231 
37 ,7.1044 ,0.76514 ,4.77150 ,46.81800 
38 ,7.2810 ,0.76700 ,4.74755 ,46.58295 
39 ,7.4410 ,0.76870 ,4.72702 ,46.38148 
40 ,7.6171 ,0.77035 ,4.70306 ,46.14643 
41 ,7.8251 ,0.77237 ,4.70990 ,46.21359 
42 ,8.0173 ,0.77430 ,4.68253 ,45.94496 
43 ,8.2093 ,0.77616 ,4.67568 ,45.87780 
44 ,8.4011 ,0.77806 ,4.64831 ,45.60918 
45 ,8.5935 ,0.78005 ,4.62435 ,45.37413 
46 ,8.7854 ,0.78202 ,4.61408 ,45.27339 
47 ,8.9776 ,0.78387 ,4.58328 ,44.97119 
48 ,9.1537 ,0.78575 ,4.57986 ,44.93761 
49 ,9.3298 ,0.78749 ,4.55591 ,44.70256 
50 ,9.5054 ,0.78916 ,4.55249 ,44.66898 
51 ,9.6819 ,0.79100 ,4.52853 ,44.43394 
52 ,9.8580 ,0.79272 ,4.49773 ,44.13173 
53 ,10.0501 ,0.79462 ,4.49089 ,44.06457 
54 ,10.2421 ,0.79647 ,4.47720 ,43.93026 
55 ,10.4342 ,0.79849 ,4.43955 ,43.56090 
56 ,10.6421 ,0.80050 ,4.43271 ,43.49374 
57 ,10.8501 ,0.80256 ,4.39849 ,43.15796 
58 ,11.0424 ,0.80463 ,4.40191 ,43.19154 
59 ,11.2345 ,0.80647 ,4.37795 ,42.95649 
60 ,11.4266 ,0.80846 ,4.35058 ,42.68786 
61 ,11.6027 ,0.81017 ,4.34716 ,42.65429 
62 ,11.7946 ,0.81206 ,4.31293 ,42.31850 
63 ,12.0029 ,0.81418 ,4.29582 ,42.15061 
64 ,12.1948 ,0.81603 ,4.28898 ,42.08345 
65 ,12.3709 ,0.81786 ,4.26845 ,41.88198 
66 ,12.5471 ,0.81966 ,4.25133 ,41.71409 
67 ,12.7227 ,0.82146 ,4.22738 ,41.47905 
68 ,12.8993 ,0.82317 ,4.21369 ,41.34473 
69 ,13.1071 ,0.82521 ,4.20685 ,41.27758 
70 ,13.2994 ,0.82706 ,4.16236 ,40.84106 
71 ,13.4753 ,0.82891 ,4.14525 ,40.67317 
72 ,13.6834 ,0.83089 ,4.15209 ,40.74032 
73 ,13.8436 ,0.83270 ,4.12814 ,40.50527 
74 ,14.0517 ,0.83461 ,4.11103 ,40.33738 
75 ,14.2437 ,0.83658 ,4.09391 ,40.16949 
76 ,14.4354 ,0.83844 ,4.06312 ,39.86729 
77 ,14.6280 ,0.84035 ,4.06312 ,39.86729 
78 ,14.8356 ,0.84250 ,4.02547 ,39.49793 
79 ,15.0280 ,0.84435 ,4.01520 ,39.39719 
80 ,15.2042 ,0.84620 ,3.99809 ,39.22930 
81 ,15.3961 ,0.84802 ,3.97414 ,38.99425 
82 ,15.5723 ,0.84984 ,3.95703 ,38.82636 
83 ,15.7804 ,0.85185 ,3.94676 ,38.72562 
84 ,15.9560 ,0.85376 ,3.92965 ,38.55773 
85 ,16.1325 ,0.85548 ,3.90570 ,38.32268 
86 ,16.3246 ,0.85745 ,3.87832 ,38.05406 
87 ,16.5007 ,0.85913 ,3.86805 ,37.95332 
88 ,16.7088 ,0.86114 ,3.86805 ,37.95332 
89 ,16.9009 ,0.86314 ,3.84410 ,37.71828 
90 ,17.0929 ,0.86513 ,3.82356 ,37.51681 
91 ,17.2849 ,0.86694 ,3.80645 ,37.34891 
92 ,17.4611 ,0.86875 ,3.77565 ,37.04671 
93 ,17.6367 ,0.87048 ,3.76881 ,36.97955 
94 ,17.8126 ,0.87232 ,3.76881 ,36.97955 
95 ,18.0048 ,0.87408 ,3.75512 ,36.84524 
96 ,18.1814 ,0.87595 ,3.71748 ,36.47588 
97 ,18.3732 ,0.87787 ,3.69352 ,36.24083 
98 ,18.5654 ,0.87972 ,3.69010 ,36.20725 
99 ,18.7573 ,0.88178 ,3.66614 ,35.97220 
100 ,18.9337 ,0.88342 ,3.63534 ,35.67000 
101 ,19.1255 ,0.88536 ,3.64219 ,35.73716 
102 ,19.3180 ,0.88729 ,3.61139 ,35.43495 
103 ,19.5258 ,0.88934 ,3.60112 ,35.33422 
104 ,19.7017 ,0.89115 ,3.58401 ,35.16632 
105 ,19.8940 ,0.89304 ,3.55663 ,34.89770 
106 ,20.1021 ,0.89509 ,3.54979 ,34.83054 
107 ,20.2618 ,0.89683 ,3.51899 ,34.52834 
108 ,20.4383 ,0.89850 ,3.50872 ,34.42760 
109 ,20.6143 ,0.90026 ,3.48477 ,34.19255 
110 ,20.8064 ,0.90211 ,3.49846 ,34.32687 
111 ,20.9824 ,0.90402 ,3.46081 ,33.95751 
112 ,21.1585 ,0.90573 ,3.44028 ,33.75604 
113 ,21.3344 ,0.90743 ,3.43344 ,33.68888 
114 ,21.5107 ,0.90925 ,3.41290 ,33.48741 
115 ,21.7188 ,0.91122 ,3.41633 ,33.52099 
116 ,21.9109 ,0.91312 ,3.38553 ,33.21878 
117 ,22.1029 ,0.91516 ,3.37526 ,33.11805 
118 ,22.2790 ,0.91689 ,3.35815 ,32.95016 
119 ,22.4551 ,0.91860 ,3.33077 ,32.68153 
120 ,22.6309 ,0.92045 ,3.32393 ,32.61437 
121 ,22.8072 ,0.92218 ,3.31024 ,32.48006 
122 ,22.9992 ,0.92400 ,3.28628 ,32.24501 
123 ,23.1915 ,0.92601 ,3.28286 ,32.21143 
124 ,23.3833 ,0.92788 ,3.24864 ,31.87565 
125 ,23.5755 ,0.92975 ,3.23837 ,31.77492 
126 ,23.7998 ,0.93209 ,3.21442 ,31.53987 
127 ,24.0079 ,0.93412 ,3.20757 ,31.47271 
128 ,24.2323 ,0.93623 ,3.18362 ,31.23766 
129 ,24.4246 ,0.93835 ,3.17677 ,31.17051 
130 ,24.6001 ,0.94011 ,3.15624 ,30.96904 
131 ,24.7763 ,0.94186 ,3.13571 ,30.76757 
132 ,24.9522 ,0.94364 ,3.12202 ,30.63325 
133 ,25.1445 ,0.94555 ,3.12202 ,30.63325 
134 ,25.3362 ,0.94743 ,3.09806 ,30.39821 
135 ,25.5285 ,0.94944 ,3.08780 ,30.29747 
136 ,25.7045 ,0.95111 ,3.07753 ,30.19674 
137 ,25.8806 ,0.95294 ,3.04673 ,29.89453 
138 ,26.0726 ,0.95477 ,3.03304 ,29.76022 
139 ,26.2489 ,0.95656 ,3.03304 ,29.76022 
140 ,26.4408 ,0.95843 ,2.98171 ,29.25654 
141 ,26.6168 ,0.96027 ,2.98171 ,29.25654 
142 ,26.8090 ,0.96212 ,2.98171 ,29.25654 
143 ,27.0011 ,0.96413 ,2.95433 ,28.98792 
144 ,27.1933 ,0.96597 ,2.94749 ,28.92076 
145 ,27.3852 ,0.96790 ,2.93038 ,28.75287 
146 ,27.5771 ,0.96980 ,2.89958 ,28.45066 
147 ,27.7530 ,0.97161 ,2.89616 ,28.41709 
148 ,27.9450 ,0.97346 ,2.87905 ,28.24919 
149 ,28.1214 ,0.97531 ,2.85167 ,27.98057 
150 ,28.3298 ,0.97729 ,2.84140 ,27.87983 
151 ,28.5216 ,0.97930 ,2.82771 ,27.74552 
152 ,28.6977 ,0.98105 ,2.80034 ,27.47689 
153 ,28.8738 ,0.98282 ,2.79691 ,27.44332 
154 ,29.0500 ,0.98461 ,2.79007 ,27.37616 
155 ,29.2419 ,0.98652 ,2.77296 ,27.20827 
156 ,29.4179 ,0.98827 ,2.75243 ,27.00680 
157 ,29.5939 ,0.99004 ,2.72847 ,26.77175 
158 ,29.7702 ,0.99179 ,2.73189 ,26.80533 
159 ,29.9458 ,0.99351 ,2.72163 ,26.70459 
160 ,30.1224 ,0.99528 ,2.67029 ,26.20092 
161 ,30.3302 ,0.99735 ,2.69767 ,26.46954 
162 ,30.5226 ,0.99931 ,2.65660 ,26.06661 
163 ,30.7304 ,1.00128 ,2.65660 ,26.06661 
164 ,30.9224 ,1.00325 ,2.62581 ,25.76440 
165 ,31.0985 ,1.00509 ,2.60869 ,25.59651 
166 ,31.2908 ,1.00698 ,2.61212 ,25.63009 
167 ,31.4828 ,1.00898 ,2.57789 ,25.29430 
168 ,31.6748 ,1.01080 ,2.56078 ,25.12641 
169 ,31.8510 ,1.01259 ,2.55736 ,25.09283 
170 ,32.0591 ,1.01462 ,2.54367 ,24.95852 
171 ,32.2350 ,1.01644 ,2.52314 ,24.75705 
172 ,32.4272 ,1.01826 ,2.50603 ,24.58916 
173 ,32.6032 ,1.02011 ,2.50261 ,24.55558 
174 ,32.7793 ,1.02183 ,2.47181 ,24.25338 
175 ,32.9550 ,1.02374 ,2.46154 ,24.15264 
176 ,33.1312 ,1.02538 ,2.45127 ,24.05191 
177 ,33.3074 ,1.02717 ,2.44443 ,23.98475 
178 ,33.4995 ,1.02899 ,2.41705 ,23.71612 
179 ,33.6756 ,1.03084 ,2.39310 ,23.48108 
180 ,33.8518 ,1.03256 ,2.39652 ,23.51465 
181 ,34.0438 ,1.03454 ,2.38625 ,23.41392 
182 ,34.2198 ,1.03628 ,2.35203 ,23.07814 
183 ,34.3957 ,1.03803 ,2.35545 ,23.11171 
184 ,34.6039 ,1.04007 ,2.31781 ,22.74235 
185 ,34.7957 ,1.04192 ,2.31097 ,22.67520 
186 ,34.9719 ,1.04377 ,2.29728 ,22.54088 
187 ,35.1803 ,1.04578 ,2.28017 ,22.37299 
188 ,35.3722 ,1.04781 ,2.26306 ,22.20510 
189 ,35.5644 ,1.04970 ,2.26306 ,22.20510 
190 ,35.7561 ,1.05160 ,2.22541 ,21.83574 
191 ,35.9326 ,1.05340 ,2.23226 ,21.90290 
192 ,36.1245 ,1.05531 ,2.20830 ,21.66785 
193 ,36.3323 ,1.05730 ,2.19803 ,21.56711 
194 ,36.5247 ,1.05925 ,2.17408 ,21.33206 
195 ,36.7329 ,1.06132 ,2.17408 ,21.33206 
196 ,36.9089 ,1.06313 ,2.17066 ,21.29849 
197 ,37.0848 ,1.06489 ,2.13301 ,20.92912 
198 ,37.2611 ,1.06667 ,2.12275 ,20.82839 
199 ,37.4368 ,1.06846 ,2.10221 ,20.62692 
200 ,37.6134 ,1.07020 ,2.11248 ,20.72766 
201 ,37.8214 ,1.07219 ,2.06457 ,20.25756 
202 ,38.0134 ,1.07413 ,2.07484 ,20.35829 
203 ,38.2056 ,1.07611 ,2.06115 ,20.22398 
204 ,38.4135 ,1.07802 ,2.04746 ,20.08967 
205 ,38.5897 ,1.07995 ,2.02693 ,19.88820 
206 ,38.7655 ,1.08178 ,2.00297 ,19.65315 
207 ,38.9419 ,1.08343 ,1.98586 ,19.48526 
208 ,39.1337 ,1.08535 ,1.99270 ,19.55241 
209 ,39.3259 ,1.08726 ,1.95848 ,19.21663 
210 ,39.5337 ,1.08935 ,1.96190 ,19.25021 
211 ,39.7103 ,1.09123 ,1.93795 ,19.01516 
212 ,39.9024 ,1.09304 ,1.91399 ,18.78011 
213 ,40.0784 ,1.09489 ,1.90373 ,18.67938 
214 ,40.2705 ,1.09677 ,1.90031 ,18.64580 
215 ,40.4625 ,1.09865 ,1.87977 ,18.44433 
216 ,40.6542 ,1.10048 ,1.87635 ,18.41075 
217 ,40.8308 ,1.10239 ,1.86608 ,18.31002 
218 ,41.0227 ,1.10422 ,1.83186 ,17.97423 
219 ,41.2307 ,1.10627 ,1.83871 ,18.04139 
220 ,41.4067 ,1.10808 ,1.81133 ,17.77276 
221 ,41.5830 ,1.10987 ,1.79764 ,17.63845 
222 ,41.7749 ,1.11171 ,1.78737 ,17.53772 
223 ,41.9511 ,1.11354 ,1.78053 ,17.47056 
224 ,42.1433 ,1.11542 ,1.75657 ,17.23551 
225 ,42.3353 ,1.11746 ,1.74973 ,17.16836 
226 ,42.5114 ,1.11916 ,1.73946 ,17.06762 
227 ,42.7031 ,1.12104 ,1.71551 ,16.83257 
228 ,42.8796 ,1.12281 ,1.70182 ,16.69826 
229 ,43.0714 ,1.12477 ,1.69155 ,16.59752 
230 ,43.2475 ,1.12650 ,1.69840 ,16.66468 
231 ,43.4397 ,1.12835 ,1.66075 ,16.29532 
232 ,43.6320 ,1.13038 ,1.66075 ,16.29532 
233 ,43.8397 ,1.13230 ,1.62653 ,15.95954 
234 ,44.0321 ,1.13430 ,1.64022 ,16.09385 
235 ,44.2240 ,1.13622 ,1.60600 ,15.75807 
236 ,44.4162 ,1.13806 ,1.58204 ,15.52302 
237 ,44.6081 ,1.14003 ,1.57862 ,15.48944 
238 ,44.8000 ,1.14204 ,1.56151 ,15.32155 
239 ,44.9760 ,1.14373 ,1.55467 ,15.25439 
240 ,45.1524 ,1.14552 ,1.55124 ,15.22081 
241 ,45.3445 ,1.14745 ,1.52045 ,14.91861 
242 ,45.5366 ,1.14936 ,1.51360 ,14.85145 
243 ,45.7287 ,1.15124 ,1.49991 ,14.71714 
244 ,45.9049 ,1.15306 ,1.48622 ,14.58283 
245 ,46.0809 ,1.15484 ,1.45885 ,14.31420 
246 ,46.2570 ,1.15659 ,1.46569 ,14.38136 
247 ,46.4330 ,1.15833 ,1.44174 ,14.14631 
248 ,46.6092 ,1.16016 ,1.45200 ,14.24704 
249 ,46.8012 ,1.16204 ,1.43489 ,14.07915 
250 ,46.9773 ,1.16380 ,1.41436 ,13.87768 
251 ,47.1693 ,1.16571 ,1.40409 ,13.77695 
252 ,47.3454 ,1.16749 ,1.39383 ,13.67621 
253 ,47.5054 ,1.16919 ,1.37329 ,13.47474 
254 ,47.7132 ,1.17109 ,1.36303 ,13.37401 
255 ,47.8896 ,1.17288 ,1.36987 ,13.44116 
256 ,48.0657 ,1.17466 ,1.33223 ,13.07180 
257 ,48.2739 ,1.17668 ,1.33223 ,13.07180 
258 ,48.4816 ,1.17878 ,1.30143 ,12.76960 
259 ,48.6736 ,1.18072 ,1.30485 ,12.80318 
260 ,48.8497 ,1.18249 ,1.29116 ,12.66886 
261 ,49.0257 ,1.18422 ,1.28432 ,12.60171 
262 ,49.2018 ,1.18606 ,1.26036 ,12.36666 
263 ,49.3942 ,1.18785 ,1.25694 ,12.33308 
264 ,49.5860 ,1.18986 ,1.23983 ,12.16519 
265 ,49.7624 ,1.19164 ,1.21929 ,11.96372 
266 ,49.9546 ,1.19353 ,1.22614 ,12.03088 
267 ,50.1466 ,1.19541 ,1.20218 ,11.79583 
268 ,50.3382 ,1.19743 ,1.17138 ,11.49362 
269 ,50.5309 ,1.19923 ,1.17823 ,11.56078 
270 ,50.7389 ,1.20139 ,1.15427 ,11.32573 
271 ,50.9315 ,1.20327 ,1.16796 ,11.46004 
272 ,51.1390 ,1.20533 ,1.13374 ,11.12426 
273 ,51.3152 ,1.20715 ,1.11663 ,10.95637 
274 ,51.4912 ,1.20897 ,1.10979 ,10.88921 
275 ,51.6673 ,1.21066 ,1.10979 ,10.88921 
276 ,51.8434 ,1.21242 ,1.07214 ,10.51985 
277 ,52.0354 ,1.21436 ,1.06187 ,10.41912 
278 ,52.2272 ,1.21623 ,1.07214 ,10.51985 
279 ,52.4036 ,1.21805 ,1.04134 ,10.21765 
280 ,52.5956 ,1.21990 ,1.03450 ,10.15049 
281 ,52.7877 ,1.22180 ,1.02081 ,10.01618 
282 ,52.9639 ,1.22366 ,1.02081 ,10.01618 
283 ,53.1557 ,1.22550 ,0.99685 ,9.78113 
284 ,53.3480 ,1.22747 ,0.98317 ,9.64682 
285 ,53.5397 ,1.22940 ,0.95921 ,9.41177 
286 ,53.7323 ,1.23127 ,0.96263 ,9.44535 
287 ,53.9403 ,1.23334 ,0.93868 ,9.21030 
288 ,54.1324 ,1.23534 ,0.94210 ,9.24388 
289 ,54.3245 ,1.23717 ,0.90788 ,8.90809 
290 ,54.5166 ,1.23907 ,0.90788 ,8.90809 
291 ,54.6923 ,1.24096 ,0.89419 ,8.77378 
292 ,54.8683 ,1.24270 ,0.90103 ,8.84094 
293 ,55.0606 ,1.24453 ,0.87366 ,8.57231 
294 ,55.2687 ,1.24666 ,0.86339 ,8.47158 
295 ,55.4608 ,1.24857 ,0.82575 ,8.10221 
296 ,55.6368 ,1.25032 ,0.82917 ,8.13579 
297 ,55.8288 ,1.25219 ,0.81890 ,8.03506 
298 ,56.0211 ,1.25426 ,0.81206 ,7.96790 
299 ,56.1969 ,1.25590 ,0.78810 ,7.73285 
300 ,56.3731 ,1.25777 ,0.78468 ,7.69927 
301 ,56.5491 ,1.25946 ,0.78468 ,7.69927 
302 ,56.7413 ,1.26134 ,0.75388 ,7.39707 
303 ,56.9334 ,1.26328 ,0.75046 ,7.36349 
304 ,57.1415 ,1.26536 ,0.73335 ,7.19560 
305 ,57.3335 ,1.26727 ,0.74019 ,7.26276 
306 ,57.5261 ,1.26920 ,0.70939 ,6.96055 
307 ,57.7017 ,1.27102 ,0.69228 ,6.79266 
308 ,57.8934 ,1.27283 ,0.69570 ,6.82624 
309 ,58.0859 ,1.27476 ,0.69570 ,6.82624 
310 ,58.2619 ,1.27660 ,0.66148 ,6.49046 
311 ,58.4380 ,1.27833 ,0.65464 ,6.42330 
312 ,58.6141 ,1.28019 ,0.64779 ,6.35614 
313 ,58.7902 ,1.28189 ,0.64779 ,6.35614 
314 ,58.9659 ,1.28360 ,0.64095 ,6.28899 
315 ,59.1578 ,1.28552 ,0.60330 ,5.91962 
316 ,59.3503 ,1.28746 ,0.61357 ,6.02036 
317 ,59.5745 ,1.28970 ,0.59304 ,5.81889 
318 ,59.7665 ,1.29163 ,0.58619 ,5.75173 
319 ,59.9585 ,1.29346 ,0.56566 ,5.55026 
320 ,60.1343 ,1.29534 ,0.57251 ,5.61742 
321 ,60.3108 ,1.29708 ,0.55882 ,5.48311 
322 ,60.5029 ,1.29896 ,0.53828 ,5.28164 
323 ,60.6947 ,1.30088 ,0.53828 ,5.28164 
324 ,60.8711 ,1.30271 ,0.52802 ,5.18090 
325 ,61.0470 ,1.30448 ,0.50406 ,4.94585 
326 ,61.2229 ,1.30620 ,0.50064 ,4.91228 
327 ,61.3993 ,1.30797 ,0.48011 ,4.71081 
328 ,61.5753 ,1.30975 ,0.46642 ,4.57649 
329 ,61.7674 ,1.31161 ,0.48353 ,4.74438 
330 ,61.9753 ,1.31367 ,0.44931 ,4.40860 
331 ,62.1994 ,1.31572 ,0.44246 ,4.34144 
332 ,62.3915 ,1.31791 ,0.43904 ,4.30787 
333 ,62.6155 ,1.32008 ,0.42193 ,4.13997 
334 ,62.7917 ,1.32187 ,0.41166 ,4.03924 
335 ,62.9678 ,1.32359 ,0.41166 ,4.03924 
336 ,63.1439 ,1.32541 ,0.39113 ,3.83777 
337 ,63.3356 ,1.32729 ,0.35691 ,3.50199 
338 ,63.5280 ,1.32915 ,0.38086 ,3.73703 
339 ,63.7042 ,1.33097 ,0.35691 ,3.50199 
340 ,63.8961 ,1.33292 ,0.33980 ,3.33410 
341 ,64.0724 ,1.33468 ,0.34322 ,3.36767 
342 ,64.2803 ,1.33664 ,0.31926 ,3.13263 
343 ,64.4561 ,1.33849 ,0.30900 ,3.03189 
344 ,64.6485 ,1.34038 ,0.29189 ,2.86400 
345 ,64.8406 ,1.34235 ,0.29531 ,2.89758 
346 ,65.0164 ,1.34411 ,0.27820 ,2.72969 
347 ,65.1928 ,1.34588 ,0.27135 ,2.66253 
348 ,65.4010 ,1.34790 ,0.25082 ,2.46106 
349 ,65.6090 ,1.35009 ,0.25082 ,2.46106 
350 ,65.8328 ,1.35212 ,0.22002 ,2.15885 
351 ,66.0251 ,1.35416 ,0.22687 ,2.22601 
352 ,66.2011 ,1.35596 ,0.21660 ,2.12528 
353 ,66.3933 ,1.35787 ,0.19949 ,1.95738 
354 ,66.5849 ,1.35977 ,0.18580 ,1.82307 
355 ,66.7774 ,1.36161 ,0.18922 ,1.85665 
356 ,66.9535 ,1.36359 ,0.18922 ,1.85665 
357 ,67.1295 ,1.36521 ,0.18238 ,1.78949 
358 ,67.3377 ,1.36727 ,0.15158 ,1.48729 
359 ,67.5297 ,1.36916 ,0.16869 ,1.65518 
360 ,67.7058 ,1.37099 ,0.13105 ,1.28582 
361 ,67.8980 ,1.37290 ,0.10709 ,1.05077 
362 ,68.0740 ,1.37475 ,0.11736 ,1.15151 
363 ,68.2502 ,1.37646 ,0.11393 ,1.11793 
364 ,68.4582 ,1.37840 ,0.08998 ,0.88288 
365 ,68.6342 ,1.38026 ,0.06260 ,0.61425 
366 ,68.8103 ,1.38203 ,0.07629 ,0.74857 
367 ,69.0022 ,1.38396 ,0.05234 ,0.51352 
368 ,69.1784 ,1.38574 ,0.04549 ,0.44636 
369 ,69.3546 ,1.38755 ,0.04891 ,0.47994 
370 ,69.5306 ,1.38924 ,0.03522 ,0.34563 
371 ,69.7066 ,1.39096 ,0.03865 ,0.37920 
372 ,69.8827 ,1.39275 ,0.00785 ,0.07700 
373 ,70.0747 ,1.39465 ,0.00100 ,0.00984 
374 ,70.2509 ,1.39643 ,0.00443 ,0.04342 
375 ,70.4429 ,1.39836 ,-0.01269 ,-0.12447 
376 ,70.6512 ,1.40026 ,-0.01953 ,-0.19163 
377 ,70.8428 ,1.40242 ,-0.05375 ,-0.52741 
378 ,71.0194 ,1.40417 ,-0.04691 ,-0.46025 
379 ,71.2273 ,1.40612 ,-0.06060 ,-0.59457 
380 ,71.4035 ,1.40797 ,-0.07086 ,-0.69530 
381 ,71.6275 ,1.41019 ,-0.06060 ,-0.59457 
382 ,71.8195 ,1.41208 ,-0.10166 ,-0.99751 
383 ,72.0116 ,1.41396 ,-0.08455 ,-0.82961 
384 ,72.2038 ,1.41584 ,-0.09482 ,-0.93035 
385 ,72.3798 ,1.41771 ,-0.12219 ,-1.19898 
386 ,72.5719 ,1.41960 ,-0.11877 ,-1.16540 
387 ,72.7638 ,1.42153 ,-0.13588 ,-1.33329 
388 ,72.9560 ,1.42348 ,-0.16668 ,-1.63549 
389 ,73.1480 ,1.42537 ,-0.14957 ,-1.46760 
390 ,73.3401 ,1.42731 ,-0.16668 ,-1.63549 
391 ,73.5323 ,1.42918 ,-0.17695 ,-1.73623 
392 ,73.7243 ,1.43115 ,-0.18722 ,-1.83696 
393 ,73.9004 ,1.43291 ,-0.19406 ,-1.90412 
394 ,74.0760 ,1.43464 ,-0.20775 ,-2.03843 
395 ,74.2686 ,1.43661 ,-0.20433 ,-2.00485 
396 ,74.4763 ,1.43859 ,-0.22144 ,-2.17275 
397 ,74.6525 ,1.44044 ,-0.24197 ,-2.37422 
398 ,74.8445 ,1.44230 ,-0.24539 ,-2.40779 
399 ,75.0208 ,1.44415 ,-0.25224 ,-2.47495 
400 ,75.1965 ,1.44587 ,-0.27619 ,-2.71000 
401 ,75.3730 ,1.44762 ,-0.25908 ,-2.54211 
402 ,75.5651 ,1.44950 ,-0.27961 ,-2.74358 
403 ,75.7732 ,1.45159 ,-0.29330 ,-2.87789 
404 ,75.9652 ,1.45353 ,-0.30015 ,-2.94505 
405 ,76.1571 ,1.45540 ,-0.31726 ,-3.11294 
406 ,76.3334 ,1.45721 ,-0.32068 ,-3.14652 
407 ,76.5254 ,1.45920 ,-0.34464 ,-3.38156 
408 ,76.7016 ,1.46094 ,-0.33095 ,-3.24725 
409 ,76.8937 ,1.46283 ,-0.34121 ,-3.34799 
410 ,77.0854 ,1.46468 ,-0.35148 ,-3.44872 
411 ,77.2935 ,1.46680 ,-0.36175 ,-3.54946 
412 ,77.4857 ,1.46866 ,-0.36517 ,-3.58303 
413 ,77.6779 ,1.47059 ,-0.39939 ,-3.91882 
414 ,77.8540 ,1.47245 ,-0.38912 ,-3.81808 
415 ,78.0456 ,1.47427 ,-0.39939 ,-3.91882 
416 ,78.2218 ,1.47615 ,-0.40966 ,-4.01955 
417 ,78.4137 ,1.47796 ,-0.41992 ,-4.12029 
418 ,78.6062 ,1.47990 ,-0.41650 ,-4.08671 
419 ,78.8306 ,1.48216 ,-0.43019 ,-4.22102 
420 ,79.0064 ,1.48403 ,-0.45414 ,-4.45607 
421 ,79.1985 ,1.48589 ,-0.46099 ,-4.52323 
422 ,79.3746 ,1.48764 ,-0.47126 ,-4.62396 
423 ,79.5666 ,1.48953 ,-0.47126 ,-4.62396 
424 ,79.7425 ,1.49131 ,-0.47468 ,-4.65754 
425 ,79.9189 ,1.49305 ,-0.49521 ,-4.85901 
426 ,80.1109 ,1.49496 ,-0.48494 ,-4.75828 
427 ,80.3191 ,1.49700 ,-0.50890 ,-4.99332 
428 ,80.5108 ,1.49899 ,-0.52259 ,-5.12764 
429 ,80.7030 ,1.50086 ,-0.52601 ,-5.16121 
430 ,80.8951 ,1.50281 ,-0.54312 ,-5.32911 
431 ,81.0714 ,1.50464 ,-0.55339 ,-5.42984 
432 ,81.2633 ,1.50650 ,-0.55339 ,-5.42984 
433 ,81.4396 ,1.50829 ,-0.57734 ,-5.66489 
434 ,81.6472 ,1.51025 ,-0.56708 ,-5.56415 
435 ,81.8397 ,1.51217 ,-0.58419 ,-5.73205 
436 ,82.0319 ,1.51418 ,-0.59445 ,-5.83278 
437 ,82.2398 ,1.51621 ,-0.61156 ,-6.00067 
438 ,82.4322 ,1.51809 ,-0.61841 ,-6.06783 
439 ,82.6081 ,1.52001 ,-0.61156 ,-6.00067 
440 ,82.8000 ,1.52185 ,-0.63894 ,-6.26930 
441 ,82.9921 ,1.52376 ,-0.63210 ,-6.20214 
442 ,83.1682 ,1.52562 ,-0.64921 ,-6.37003 
443 ,83.3444 ,1.52734 ,-0.64921 ,-6.37003 
444 ,83.5524 ,1.52930 ,-0.65605 ,-6.43719 
445 ,83.7440 ,1.53129 ,-0.66632 ,-6.53793 
446 ,83.9363 ,1.53319 ,-0.69712 ,-6.84013 
447 ,84.1286 ,1.53519 ,-0.69370 ,-6.80655 
448 ,84.3047 ,1.53688 ,-0.69027 ,-6.77297 
449 ,84.4809 ,1.53873 ,-0.70054 ,-6.87371 
450 ,84.6728 ,1.54056 ,-0.71081 ,-6.97444 
451 ,84.8645 ,1.54256 ,-0.73476 ,-7.20949 
452 ,85.0411 ,1.54431 ,-0.73134 ,-7.17591 
453 ,85.2333 ,1.54622 ,-0.75187 ,-7.37738 
454 ,85.4091 ,1.54798 ,-0.74161 ,-7.27665 
455 ,85.5852 ,1.54972 ,-0.75187 ,-7.37738 
456 ,85.7610 ,1.55147 ,-0.76898 ,-7.54527 
457 ,85.9368 ,1.55326 ,-0.78267 ,-7.67959 
458 ,86.1131 ,1.55502 ,-0.79294 ,-7.78032 
459 ,86.3054 ,1.55686 ,-0.77583 ,-7.61243 
460 ,86.4812 ,1.55870 ,-0.79636 ,-7.81390 
461 ,86.7054 ,1.56078 ,-0.80663 ,-7.91464 
462 ,86.8978 ,1.56281 ,-0.84085 ,-8.25042 
463 ,87.0895 ,1.56474 ,-0.82032 ,-8.04895 
