Data stamp = , 24-04-2022 12:45:26 386

Calibration Values: 
Slope = , 26.54 , g/V 
Offset Voltage at no contact = , -0.501760 , V 

No , Time , Stage Position ,   Mass , Force 
   ,  (s) ,      (mm)      ,   (g)  , (mN)  

1 ,0.0000 ,0.69936 ,5.30194 ,52.02263 
2 ,0.2082 ,0.69945 ,5.30536 ,52.05621 
3 ,0.6567 ,0.70073 ,5.29852 ,51.98905 
4 ,0.8327 ,0.70263 ,5.29852 ,51.98905 
5 ,1.0248 ,0.70438 ,5.29852 ,51.98905 
6 ,1.2171 ,0.70622 ,5.28825 ,51.88832 
7 ,1.4251 ,0.70831 ,5.31563 ,52.15694 
8 ,1.6172 ,0.71024 ,5.30194 ,52.02263 
9 ,1.8252 ,0.71231 ,5.28825 ,51.88832 
10 ,2.0171 ,0.71423 ,5.26430 ,51.65327 
11 ,2.2094 ,0.71621 ,5.26087 ,51.61969 
12 ,2.4014 ,0.71818 ,5.23350 ,51.35107 
13 ,2.5774 ,0.71992 ,5.20612 ,51.08244 
14 ,2.7695 ,0.72177 ,5.21296 ,51.14960 
15 ,2.9616 ,0.72376 ,5.17874 ,50.81381 
16 ,3.1376 ,0.72550 ,5.14794 ,50.51161 
17 ,3.3137 ,0.72728 ,5.13425 ,50.37729 
18 ,3.5219 ,0.72933 ,5.12399 ,50.27656 
19 ,3.7138 ,0.73123 ,5.11714 ,50.20940 
20 ,3.8897 ,0.73300 ,5.09319 ,49.97436 
21 ,4.0817 ,0.73489 ,5.07265 ,49.77289 
22 ,4.2738 ,0.73687 ,5.04528 ,49.50426 
23 ,4.4659 ,0.73872 ,5.04528 ,49.50426 
24 ,4.6424 ,0.74061 ,5.00763 ,49.13490 
25 ,4.8183 ,0.74236 ,4.98026 ,48.86627 
26 ,4.9945 ,0.74408 ,4.96657 ,48.73196 
27 ,5.1703 ,0.74588 ,4.97683 ,48.83269 
28 ,5.3462 ,0.74760 ,4.94946 ,48.56407 
29 ,5.5385 ,0.74942 ,4.91181 ,48.19471 
30 ,5.7147 ,0.75130 ,4.89128 ,47.99324 
31 ,5.8908 ,0.75303 ,4.87759 ,47.85892 
32 ,6.0825 ,0.75491 ,4.87417 ,47.82534 
33 ,6.2587 ,0.75673 ,4.84679 ,47.55672 
34 ,6.4506 ,0.75864 ,4.82968 ,47.38883 
35 ,6.6272 ,0.76041 ,4.82626 ,47.35525 
36 ,6.8189 ,0.76224 ,4.80230 ,47.12020 
37 ,6.9952 ,0.76405 ,4.77835 ,46.88515 
38 ,7.1870 ,0.76593 ,4.76808 ,46.78442 
39 ,7.3794 ,0.76783 ,4.74413 ,46.54937 
40 ,7.5715 ,0.76981 ,4.72017 ,46.31432 
41 ,7.7953 ,0.77189 ,4.72017 ,46.31432 
42 ,7.9716 ,0.77383 ,4.67568 ,45.87780 
43 ,8.1476 ,0.77562 ,4.67226 ,45.84422 
44 ,8.3557 ,0.77761 ,4.62093 ,45.34055 
45 ,8.5319 ,0.77949 ,4.61751 ,45.30697 
46 ,8.7239 ,0.78135 ,4.62435 ,45.37413 
47 ,8.9158 ,0.78329 ,4.58671 ,45.00477 
48 ,9.1079 ,0.78520 ,4.57644 ,44.90403 
49 ,9.2999 ,0.78705 ,4.56275 ,44.76972 
50 ,9.4921 ,0.78900 ,4.53195 ,44.46751 
51 ,9.6678 ,0.79081 ,4.51142 ,44.26604 
52 ,9.8443 ,0.79258 ,4.50457 ,44.19889 
53 ,10.0363 ,0.79447 ,4.47720 ,43.93026 
54 ,10.2124 ,0.79626 ,4.46009 ,43.76237 
55 ,10.3880 ,0.79797 ,4.43613 ,43.52732 
56 ,10.5646 ,0.79975 ,4.42586 ,43.42659 
57 ,10.7563 ,0.80160 ,4.41218 ,43.29227 
58 ,10.9487 ,0.80357 ,4.40191 ,43.19154 
59 ,11.1568 ,0.80561 ,4.37453 ,42.92291 
60 ,11.3489 ,0.80753 ,4.36769 ,42.85576 
61 ,11.5411 ,0.80945 ,4.35742 ,42.75502 
62 ,11.7170 ,0.81126 ,4.33689 ,42.55355 
63 ,11.8930 ,0.81310 ,4.30609 ,42.25135 
64 ,12.0688 ,0.81488 ,4.29240 ,42.11703 
65 ,12.2453 ,0.81657 ,4.26502 ,41.84841 
66 ,12.4377 ,0.81846 ,4.24791 ,41.68051 
67 ,12.6455 ,0.82047 ,4.24449 ,41.64694 
68 ,12.8375 ,0.82250 ,4.23080 ,41.51262 
69 ,13.0134 ,0.82429 ,4.21027 ,41.31115 
70 ,13.1897 ,0.82598 ,4.16920 ,40.90821 
71 ,13.3817 ,0.82795 ,4.16578 ,40.87464 
72 ,13.5578 ,0.82966 ,4.15551 ,40.77390 
73 ,13.7497 ,0.83154 ,4.11103 ,40.33738 
74 ,13.9576 ,0.83365 ,4.11787 ,40.40454 
75 ,14.1500 ,0.83559 ,4.08707 ,40.10233 
76 ,14.3580 ,0.83760 ,4.07680 ,40.00160 
77 ,14.5344 ,0.83944 ,4.05285 ,39.76655 
78 ,14.7424 ,0.84149 ,4.04943 ,39.73297 
79 ,14.9343 ,0.84339 ,4.01520 ,39.39719 
80 ,15.1105 ,0.84522 ,3.99809 ,39.22930 
81 ,15.2865 ,0.84697 ,3.97414 ,38.99425 
82 ,15.4784 ,0.84885 ,3.98441 ,39.09499 
83 ,15.6548 ,0.85064 ,3.95703 ,38.82636 
84 ,15.8466 ,0.85251 ,3.93650 ,38.62489 
85 ,16.0389 ,0.85443 ,3.92281 ,38.49058 
86 ,16.2148 ,0.85630 ,3.88858 ,38.15479 
87 ,16.4070 ,0.85808 ,3.87147 ,37.98690 
88 ,16.5990 ,0.86005 ,3.88516 ,38.12122 
89 ,16.7906 ,0.86197 ,3.84752 ,37.75185 
90 ,16.9832 ,0.86394 ,3.83041 ,37.58396 
91 ,17.1749 ,0.86589 ,3.80987 ,37.38249 
92 ,17.3670 ,0.86767 ,3.78934 ,37.18102 
93 ,17.5435 ,0.86956 ,3.79276 ,37.21460 
94 ,17.7195 ,0.87125 ,3.77908 ,37.08029 
95 ,17.9276 ,0.87329 ,3.73459 ,36.64377 
96 ,18.1198 ,0.87519 ,3.73459 ,36.64377 
97 ,18.2954 ,0.87710 ,3.69352 ,36.24083 
98 ,18.4719 ,0.87885 ,3.69352 ,36.24083 
99 ,18.6640 ,0.88074 ,3.67983 ,36.10652 
100 ,18.8718 ,0.88270 ,3.65246 ,35.83789 
101 ,19.0641 ,0.88465 ,3.65588 ,35.87147 
102 ,19.2721 ,0.88673 ,3.61823 ,35.50211 
103 ,19.4638 ,0.88877 ,3.60797 ,35.40137 
104 ,19.6403 ,0.89045 ,3.58743 ,35.19990 
105 ,19.8164 ,0.89221 ,3.57717 ,35.09917 
106 ,19.9925 ,0.89401 ,3.55321 ,34.86412 
107 ,20.1845 ,0.89592 ,3.53268 ,34.66265 
108 ,20.3606 ,0.89765 ,3.52241 ,34.56192 
109 ,20.5368 ,0.89943 ,3.52241 ,34.56192 
110 ,20.7448 ,0.90148 ,3.48135 ,34.15898 
111 ,20.9368 ,0.90342 ,3.47450 ,34.09182 
112 ,21.1289 ,0.90530 ,3.45397 ,33.89035 
113 ,21.3370 ,0.90740 ,3.44370 ,33.78961 
114 ,21.5126 ,0.90921 ,3.42317 ,33.58814 
115 ,21.6891 ,0.91099 ,3.40606 ,33.42025 
116 ,21.8810 ,0.91279 ,3.39921 ,33.35310 
117 ,22.0733 ,0.91476 ,3.36157 ,32.98374 
118 ,22.2813 ,0.91679 ,3.35473 ,32.91658 
119 ,22.4575 ,0.91862 ,3.35473 ,32.91658 
120 ,22.6335 ,0.92040 ,3.32051 ,32.58080 
121 ,22.8090 ,0.92214 ,3.29655 ,32.34575 
122 ,23.0016 ,0.92402 ,3.29997 ,32.37933 
123 ,23.1775 ,0.92582 ,3.28286 ,32.21143 
124 ,23.3857 ,0.92779 ,3.26917 ,32.07712 
125 ,23.5616 ,0.92969 ,3.23495 ,31.74134 
126 ,23.7538 ,0.93166 ,3.22811 ,31.67418 
127 ,23.9459 ,0.93352 ,3.20073 ,31.40555 
128 ,24.1541 ,0.93542 ,3.19731 ,31.37198 
129 ,24.3622 ,0.93756 ,3.16993 ,31.10335 
130 ,24.5384 ,0.93944 ,3.15624 ,30.96904 
131 ,24.7140 ,0.94120 ,3.14940 ,30.90188 
132 ,24.8904 ,0.94292 ,3.13229 ,30.73399 
133 ,25.0824 ,0.94489 ,3.10833 ,30.49894 
134 ,25.2745 ,0.94684 ,3.11175 ,30.53252 
135 ,25.4667 ,0.94872 ,3.08095 ,30.23031 
136 ,25.6588 ,0.95055 ,3.08438 ,30.26389 
137 ,25.8667 ,0.95266 ,3.03989 ,29.82737 
138 ,26.0429 ,0.95448 ,3.02278 ,29.65948 
139 ,26.2346 ,0.95630 ,3.04331 ,29.86095 
140 ,26.4110 ,0.95818 ,3.00567 ,29.49159 
141 ,26.5872 ,0.95992 ,2.99198 ,29.35728 
142 ,26.7788 ,0.96180 ,2.98513 ,29.29012 
143 ,26.9552 ,0.96359 ,2.96802 ,29.12223 
144 ,27.1473 ,0.96547 ,2.93380 ,28.78645 
145 ,27.3395 ,0.96742 ,2.93380 ,28.78645 
146 ,27.5315 ,0.96938 ,2.92696 ,28.71929 
147 ,27.7075 ,0.97111 ,2.90300 ,28.48424 
148 ,27.8994 ,0.97298 ,2.89273 ,28.38351 
149 ,28.0757 ,0.97486 ,2.87220 ,28.18204 
150 ,28.2517 ,0.97656 ,2.87562 ,28.21562 
151 ,28.4279 ,0.97831 ,2.85167 ,27.98057 
152 ,28.6040 ,0.98010 ,2.81402 ,27.61121 
153 ,28.8121 ,0.98209 ,2.80034 ,27.47689 
154 ,28.9878 ,0.98388 ,2.79007 ,27.37616 
155 ,29.1642 ,0.98570 ,2.76954 ,27.17469 
156 ,29.3721 ,0.98768 ,2.76611 ,27.14111 
157 ,29.5481 ,0.98951 ,2.74900 ,26.97322 
158 ,29.7402 ,0.99146 ,2.72163 ,26.70459 
159 ,29.9326 ,0.99331 ,2.72505 ,26.73817 
160 ,30.1244 ,0.99535 ,2.68398 ,26.33523 
161 ,30.3006 ,0.99704 ,2.68056 ,26.30165 
162 ,30.4765 ,0.99878 ,2.67029 ,26.20092 
163 ,30.6849 ,1.00077 ,2.64634 ,25.96587 
164 ,30.8925 ,1.00297 ,2.65660 ,26.06661 
165 ,31.0849 ,1.00485 ,2.61554 ,25.66367 
166 ,31.2928 ,1.00691 ,2.60527 ,25.56293 
167 ,31.4852 ,1.00886 ,2.58474 ,25.36146 
168 ,31.6770 ,1.01080 ,2.58816 ,25.39504 
169 ,31.8691 ,1.01262 ,2.54710 ,24.99210 
170 ,32.0611 ,1.01460 ,2.54710 ,24.99210 
171 ,32.2533 ,1.01651 ,2.54025 ,24.92494 
172 ,32.4451 ,1.01844 ,2.49918 ,24.52200 
173 ,32.6216 ,1.02029 ,2.48207 ,24.35411 
174 ,32.8136 ,1.02214 ,2.48550 ,24.38769 
175 ,33.0058 ,1.02402 ,2.45127 ,24.05191 
176 ,33.1976 ,1.02592 ,2.46839 ,24.21980 
177 ,33.3738 ,1.02775 ,2.44443 ,23.98475 
178 ,33.5656 ,1.02959 ,2.41705 ,23.71612 
179 ,33.7576 ,1.03153 ,2.40679 ,23.61539 
180 ,33.9338 ,1.03335 ,2.39994 ,23.54823 
181 ,34.1102 ,1.03514 ,2.39310 ,23.48108 
182 ,34.3182 ,1.03718 ,2.36230 ,23.17887 
183 ,34.5104 ,1.03905 ,2.36230 ,23.17887 
184 ,34.7024 ,1.04106 ,2.33492 ,22.91024 
185 ,34.8944 ,1.04284 ,2.31439 ,22.70877 
186 ,35.0705 ,1.04475 ,2.31097 ,22.67520 
187 ,35.2467 ,1.04647 ,2.28017 ,22.37299 
188 ,35.4383 ,1.04833 ,2.26990 ,22.27226 
189 ,35.6309 ,1.05021 ,2.26648 ,22.23868 
190 ,35.8388 ,1.05234 ,2.24594 ,22.03721 
191 ,36.0312 ,1.05428 ,2.23226 ,21.90290 
192 ,36.2389 ,1.05636 ,2.21172 ,21.70143 
193 ,36.4149 ,1.05816 ,2.19803 ,21.56711 
194 ,36.5911 ,1.05991 ,2.20146 ,21.60069 
195 ,36.7832 ,1.06177 ,2.17066 ,21.29849 
196 ,36.9594 ,1.06364 ,2.15012 ,21.09702 
197 ,37.1515 ,1.06542 ,2.15012 ,21.09702 
198 ,37.3595 ,1.06753 ,2.12275 ,20.82839 
199 ,37.5512 ,1.06945 ,2.12275 ,20.82839 
200 ,37.7436 ,1.07141 ,2.09537 ,20.55976 
201 ,37.9198 ,1.07321 ,2.07826 ,20.39187 
202 ,38.1278 ,1.07521 ,2.07484 ,20.35829 
203 ,38.3199 ,1.07715 ,2.05773 ,20.19040 
204 ,38.5120 ,1.07903 ,2.06457 ,20.25756 
205 ,38.7040 ,1.08113 ,2.01666 ,19.78746 
206 ,38.8800 ,1.08276 ,1.99270 ,19.55241 
207 ,39.0560 ,1.08457 ,2.00297 ,19.65315 
208 ,39.2481 ,1.08642 ,1.98928 ,19.51884 
209 ,39.4404 ,1.08834 ,1.98928 ,19.51884 
210 ,39.6326 ,1.09025 ,1.94479 ,19.08232 
211 ,39.8245 ,1.09223 ,1.95506 ,19.18305 
212 ,40.0167 ,1.09414 ,1.92084 ,18.84727 
213 ,40.2248 ,1.09613 ,1.91742 ,18.81369 
214 ,40.4169 ,1.09812 ,1.91057 ,18.74654 
215 ,40.5925 ,1.10002 ,1.89688 ,18.61222 
216 ,40.7686 ,1.10166 ,1.88319 ,18.47791 
217 ,40.9612 ,1.10357 ,1.86266 ,18.27644 
218 ,41.1691 ,1.10566 ,1.85240 ,18.17570 
219 ,41.3612 ,1.10760 ,1.82502 ,17.90708 
220 ,41.5371 ,1.10933 ,1.80791 ,17.73919 
221 ,41.7130 ,1.11114 ,1.79422 ,17.60487 
222 ,41.8730 ,1.11284 ,1.80791 ,17.73919 
223 ,42.0813 ,1.11464 ,1.78737 ,17.53772 
224 ,42.2895 ,1.11682 ,1.77711 ,17.43698 
225 ,42.4974 ,1.11879 ,1.73604 ,17.03404 
226 ,42.6895 ,1.12080 ,1.74973 ,17.16836 
227 ,42.8816 ,1.12277 ,1.72235 ,16.89973 
228 ,43.0574 ,1.12452 ,1.68813 ,16.56395 
229 ,43.2338 ,1.12631 ,1.68813 ,16.56395 
230 ,43.4098 ,1.12809 ,1.68471 ,16.53037 
231 ,43.5856 ,1.12982 ,1.67786 ,16.46321 
232 ,43.7616 ,1.13163 ,1.65049 ,16.19458 
233 ,43.9536 ,1.13347 ,1.62995 ,15.99311 
234 ,44.1302 ,1.13533 ,1.62653 ,15.95954 
235 ,44.3385 ,1.13733 ,1.59573 ,15.65733 
236 ,44.5144 ,1.13920 ,1.61284 ,15.82522 
237 ,44.7066 ,1.14095 ,1.59573 ,15.65733 
238 ,44.8985 ,1.14299 ,1.56836 ,15.38871 
239 ,45.0745 ,1.14471 ,1.55467 ,15.25439 
240 ,45.2668 ,1.14656 ,1.56151 ,15.32155 
241 ,45.4588 ,1.14857 ,1.54782 ,15.18724 
242 ,45.6350 ,1.15036 ,1.52387 ,14.95219 
243 ,45.8270 ,1.15217 ,1.51702 ,14.88503 
244 ,46.0189 ,1.15409 ,1.48280 ,14.54925 
245 ,46.1947 ,1.15591 ,1.47938 ,14.51567 
246 ,46.3872 ,1.15777 ,1.47938 ,14.51567 
247 ,46.5789 ,1.15982 ,1.44858 ,14.21346 
248 ,46.7553 ,1.16151 ,1.43831 ,14.11273 
249 ,46.9314 ,1.16330 ,1.42462 ,13.97842 
250 ,47.1235 ,1.16520 ,1.43147 ,14.04557 
251 ,47.3150 ,1.16701 ,1.40409 ,13.77695 
252 ,47.4913 ,1.16886 ,1.38698 ,13.60906 
253 ,47.6837 ,1.17080 ,1.39725 ,13.70979 
254 ,47.8754 ,1.17268 ,1.36303 ,13.37401 
255 ,48.0517 ,1.17447 ,1.35276 ,13.27327 
256 ,48.2277 ,1.17625 ,1.33565 ,13.10538 
257 ,48.4037 ,1.17808 ,1.34249 ,13.17254 
258 ,48.5960 ,1.17979 ,1.32880 ,13.03822 
259 ,48.7723 ,1.18171 ,1.29800 ,12.73602 
260 ,48.9643 ,1.18361 ,1.30485 ,12.80318 
261 ,49.1405 ,1.18539 ,1.27405 ,12.50097 
262 ,49.3165 ,1.18714 ,1.27063 ,12.46739 
263 ,49.5082 ,1.18897 ,1.26036 ,12.36666 
264 ,49.7007 ,1.19093 ,1.24325 ,12.19877 
265 ,49.8927 ,1.19282 ,1.22272 ,11.99730 
266 ,50.0847 ,1.19469 ,1.21587 ,11.93014 
267 ,50.2765 ,1.19673 ,1.19534 ,11.72867 
268 ,50.4525 ,1.19849 ,1.16796 ,11.46004 
269 ,50.6447 ,1.20036 ,1.17138 ,11.49362 
270 ,50.8531 ,1.20240 ,1.16112 ,11.39289 
271 ,51.0611 ,1.20447 ,1.14401 ,11.22500 
272 ,51.2532 ,1.20645 ,1.13032 ,11.09068 
273 ,51.4292 ,1.20824 ,1.11663 ,10.95637 
274 ,51.6049 ,1.21005 ,1.10636 ,10.85563 
275 ,51.7815 ,1.21178 ,1.10979 ,10.88921 
276 ,51.9735 ,1.21372 ,1.07556 ,10.55343 
277 ,52.1655 ,1.21563 ,1.06530 ,10.45270 
278 ,52.3416 ,1.21737 ,1.07214 ,10.51985 
279 ,52.5339 ,1.21917 ,1.04819 ,10.28480 
280 ,52.7420 ,1.22129 ,1.04476 ,10.25123 
281 ,52.9339 ,1.22334 ,1.01396 ,9.94902 
282 ,53.1421 ,1.22525 ,1.01396 ,9.94902 
283 ,53.3338 ,1.22722 ,0.97290 ,9.54608 
284 ,53.4940 ,1.22900 ,0.97974 ,9.61324 
285 ,53.7020 ,1.23085 ,0.96948 ,9.51250 
286 ,53.8943 ,1.23286 ,0.95237 ,9.34461 
287 ,54.1024 ,1.23491 ,0.95921 ,9.41177 
288 ,54.2945 ,1.23682 ,0.92157 ,9.04241 
289 ,54.5026 ,1.23888 ,0.93183 ,9.14314 
290 ,54.6947 ,1.24085 ,0.90103 ,8.84094 
291 ,54.8866 ,1.24273 ,0.89419 ,8.77378 
292 ,55.0788 ,1.24462 ,0.89077 ,8.74020 
293 ,55.2870 ,1.24666 ,0.85997 ,8.43800 
294 ,55.4788 ,1.24872 ,0.86681 ,8.50515 
295 ,55.6711 ,1.25064 ,0.83943 ,8.23653 
296 ,55.8627 ,1.25257 ,0.83943 ,8.23653 
297 ,56.0554 ,1.25442 ,0.80521 ,7.90074 
298 ,56.2471 ,1.25646 ,0.81548 ,8.00148 
299 ,56.4234 ,1.25816 ,0.79837 ,7.83359 
300 ,56.6315 ,1.26023 ,0.77099 ,7.56496 
301 ,56.8073 ,1.26200 ,0.75730 ,7.43065 
302 ,56.9992 ,1.26392 ,0.76757 ,7.53138 
303 ,57.1757 ,1.26568 ,0.75388 ,7.39707 
304 ,57.3837 ,1.26771 ,0.75046 ,7.36349 
305 ,57.5918 ,1.26979 ,0.72308 ,7.09486 
306 ,57.7680 ,1.27163 ,0.70939 ,6.96055 
307 ,57.9599 ,1.27348 ,0.70597 ,6.92697 
308 ,58.1360 ,1.27530 ,0.68544 ,6.72550 
309 ,58.3278 ,1.27713 ,0.66148 ,6.49046 
310 ,58.5203 ,1.27908 ,0.67859 ,6.65835 
311 ,58.7124 ,1.28094 ,0.63410 ,6.22183 
312 ,58.9044 ,1.28304 ,0.64437 ,6.32256 
313 ,59.1121 ,1.28492 ,0.64437 ,6.32256 
314 ,59.3205 ,1.28696 ,0.61015 ,5.98678 
315 ,59.5287 ,1.28912 ,0.59304 ,5.81889 
316 ,59.7210 ,1.29106 ,0.59988 ,5.88605 
317 ,59.9128 ,1.29306 ,0.57935 ,5.68458 
318 ,60.1209 ,1.29510 ,0.57593 ,5.65100 
319 ,60.3129 ,1.29704 ,0.56566 ,5.55026 
320 ,60.4891 ,1.29880 ,0.55197 ,5.41595 
321 ,60.6811 ,1.30071 ,0.53486 ,5.24806 
322 ,60.8889 ,1.30275 ,0.50748 ,4.97943 
323 ,61.0809 ,1.30459 ,0.50748 ,4.97943 
324 ,61.2570 ,1.30654 ,0.51091 ,5.01301 
325 ,61.4494 ,1.30832 ,0.48353 ,4.74438 
326 ,61.6573 ,1.31042 ,0.48353 ,4.74438 
327 ,61.8492 ,1.31247 ,0.44931 ,4.40860 
328 ,62.0256 ,1.31415 ,0.45273 ,4.44218 
329 ,62.2018 ,1.31594 ,0.43904 ,4.30787 
330 ,62.3773 ,1.31773 ,0.43562 ,4.27429 
331 ,62.5537 ,1.31945 ,0.43562 ,4.27429 
332 ,62.7619 ,1.32142 ,0.40482 ,3.97208 
333 ,62.9540 ,1.32339 ,0.41851 ,4.10640 
334 ,63.1622 ,1.32546 ,0.41166 ,4.03924 
335 ,63.3703 ,1.32757 ,0.37060 ,3.63630 
336 ,63.5782 ,1.32963 ,0.37060 ,3.63630 
337 ,63.7545 ,1.33146 ,0.36718 ,3.60272 
338 ,63.9306 ,1.33324 ,0.35691 ,3.50199 
339 ,64.1224 ,1.33503 ,0.33980 ,3.33410 
340 ,64.3147 ,1.33699 ,0.34322 ,3.36767 
341 ,64.5063 ,1.33894 ,0.32269 ,3.16620 
342 ,64.6828 ,1.34073 ,0.30558 ,2.99831 
343 ,64.8745 ,1.34269 ,0.28504 ,2.79684 
344 ,65.0510 ,1.34444 ,0.28847 ,2.83042 
345 ,65.2586 ,1.34640 ,0.27478 ,2.69611 
346 ,65.4351 ,1.34825 ,0.26109 ,2.56179 
347 ,65.6271 ,1.35018 ,0.24055 ,2.36032 
348 ,65.8193 ,1.35206 ,0.25082 ,2.46106 
349 ,66.0113 ,1.35394 ,0.23029 ,2.25959 
350 ,66.2035 ,1.35588 ,0.21660 ,2.12528 
351 ,66.3954 ,1.35780 ,0.22687 ,2.22601 
352 ,66.5716 ,1.35958 ,0.20633 ,2.02454 
353 ,66.7637 ,1.36147 ,0.17896 ,1.75592 
354 ,66.9557 ,1.36340 ,0.17896 ,1.75592 
355 ,67.1315 ,1.36522 ,0.18238 ,1.78949 
356 ,67.3076 ,1.36694 ,0.15842 ,1.55445 
357 ,67.5000 ,1.36885 ,0.15500 ,1.52087 
358 ,67.6918 ,1.37079 ,0.14473 ,1.42013 
359 ,67.8997 ,1.37277 ,0.11051 ,1.08435 
360 ,68.0759 ,1.37464 ,0.12762 ,1.25224 
361 ,68.2841 ,1.37666 ,0.09340 ,0.91646 
362 ,68.4760 ,1.37867 ,0.09682 ,0.95004 
363 ,68.6524 ,1.38042 ,0.09682 ,0.95004 
364 ,68.8446 ,1.38238 ,0.07287 ,0.71499 
365 ,69.0206 ,1.38408 ,0.06945 ,0.68141 
366 ,69.2127 ,1.38593 ,0.05918 ,0.58067 
367 ,69.4047 ,1.38780 ,0.05576 ,0.54710 
368 ,69.5968 ,1.38981 ,0.03522 ,0.34563 
369 ,69.7886 ,1.39170 ,0.02496 ,0.24489 
370 ,69.9969 ,1.39374 ,0.01811 ,0.17773 
371 ,70.1729 ,1.39560 ,0.01127 ,0.11058 
372 ,70.3647 ,1.39750 ,-0.00584 ,-0.05731 
373 ,70.5567 ,1.39936 ,-0.02637 ,-0.25878 
374 ,70.7328 ,1.40128 ,-0.02980 ,-0.29236 
375 ,70.9248 ,1.40307 ,-0.03664 ,-0.35952 
376 ,71.1333 ,1.40510 ,-0.05375 ,-0.52741 
377 ,71.3417 ,1.40728 ,-0.06744 ,-0.66172 
378 ,71.5495 ,1.40928 ,-0.06402 ,-0.62814 
379 ,71.7416 ,1.41131 ,-0.08797 ,-0.86319 
380 ,71.9177 ,1.41301 ,-0.10166 ,-0.99751 
381 ,72.0938 ,1.41488 ,-0.09824 ,-0.96393 
382 ,72.2699 ,1.41653 ,-0.08797 ,-0.86319 
383 ,72.4620 ,1.41852 ,-0.13931 ,-1.36687 
384 ,72.6541 ,1.42043 ,-0.12562 ,-1.23255 
385 ,72.8461 ,1.42225 ,-0.14273 ,-1.40045 
386 ,73.0223 ,1.42412 ,-0.15299 ,-1.50118 
387 ,73.2141 ,1.42597 ,-0.17011 ,-1.66907 
388 ,73.4063 ,1.42785 ,-0.18379 ,-1.80338 
389 ,73.5822 ,1.42969 ,-0.18379 ,-1.80338 
390 ,73.7746 ,1.43155 ,-0.18722 ,-1.83696 
391 ,73.9665 ,1.43352 ,-0.18379 ,-1.80338 
392 ,74.1743 ,1.43553 ,-0.21117 ,-2.07201 
393 ,74.3669 ,1.43746 ,-0.21802 ,-2.13917 
394 ,74.5588 ,1.43944 ,-0.24539 ,-2.40779 
395 ,74.7351 ,1.44123 ,-0.23170 ,-2.27348 
396 ,74.9271 ,1.44313 ,-0.24881 ,-2.44137 
397 ,75.1030 ,1.44489 ,-0.25908 ,-2.54211 
398 ,75.2627 ,1.44661 ,-0.27961 ,-2.74358 
399 ,75.4392 ,1.44826 ,-0.27277 ,-2.67642 
400 ,75.6472 ,1.45027 ,-0.28304 ,-2.77716 
401 ,75.8549 ,1.45232 ,-0.28304 ,-2.77716 
402 ,76.0473 ,1.45420 ,-0.28304 ,-2.77716 
403 ,76.2397 ,1.45629 ,-0.31384 ,-3.07936 
404 ,76.4472 ,1.45824 ,-0.30357 ,-2.97863 
405 ,76.6397 ,1.46022 ,-0.34806 ,-3.41514 
406 ,76.8316 ,1.46207 ,-0.34806 ,-3.41514 
407 ,77.0075 ,1.46403 ,-0.35832 ,-3.51588 
408 ,77.1999 ,1.46588 ,-0.35148 ,-3.44872 
409 ,77.3916 ,1.46774 ,-0.38228 ,-3.75093 
410 ,77.5840 ,1.46965 ,-0.38570 ,-3.78450 
411 ,77.7758 ,1.47164 ,-0.39597 ,-3.88524 
412 ,77.9521 ,1.47337 ,-0.39597 ,-3.88524 
413 ,78.1281 ,1.47513 ,-0.38912 ,-3.81808 
414 ,78.3044 ,1.47691 ,-0.39939 ,-3.91882 
415 ,78.4800 ,1.47869 ,-0.43361 ,-4.25460 
416 ,78.6882 ,1.48054 ,-0.41992 ,-4.12029 
417 ,78.8805 ,1.48264 ,-0.45414 ,-4.45607 
418 ,79.0567 ,1.48440 ,-0.46441 ,-4.55681 
419 ,79.2487 ,1.48633 ,-0.44730 ,-4.38891 
420 ,79.4404 ,1.48816 ,-0.47810 ,-4.69112 
421 ,79.6165 ,1.49000 ,-0.48837 ,-4.79185 
422 ,79.7929 ,1.49176 ,-0.49179 ,-4.82543 
423 ,79.9689 ,1.49350 ,-0.49179 ,-4.82543 
424 ,80.1611 ,1.49535 ,-0.49521 ,-4.85901 
425 ,80.3689 ,1.49745 ,-0.50206 ,-4.92617 
426 ,80.5613 ,1.49937 ,-0.51232 ,-5.02690 
427 ,80.7694 ,1.50147 ,-0.52601 ,-5.16121 
428 ,80.9615 ,1.50347 ,-0.53970 ,-5.29553 
429 ,81.1376 ,1.50519 ,-0.55339 ,-5.42984 
430 ,81.3295 ,1.50704 ,-0.55339 ,-5.42984 
431 ,81.5058 ,1.50891 ,-0.54997 ,-5.39626 
432 ,81.6976 ,1.51082 ,-0.58077 ,-5.69847 
433 ,81.9059 ,1.51283 ,-0.57050 ,-5.59773 
434 ,82.0980 ,1.51472 ,-0.60814 ,-5.96709 
435 ,82.2738 ,1.51663 ,-0.60130 ,-5.89994 
436 ,82.4501 ,1.51832 ,-0.60814 ,-5.96709 
437 ,82.6580 ,1.52036 ,-0.62868 ,-6.16856 
438 ,82.8339 ,1.52218 ,-0.63894 ,-6.26930 
439 ,83.0265 ,1.52405 ,-0.62868 ,-6.16856 
440 ,83.2345 ,1.52615 ,-0.65263 ,-6.40361 
441 ,83.4266 ,1.52801 ,-0.64579 ,-6.33646 
442 ,83.6348 ,1.53014 ,-0.66632 ,-6.53793 
443 ,83.8267 ,1.53205 ,-0.66974 ,-6.57150 
444 ,84.0028 ,1.53383 ,-0.68001 ,-6.67224 
445 ,84.1786 ,1.53558 ,-0.69712 ,-6.84013 
446 ,84.3547 ,1.53739 ,-0.71423 ,-7.00802 
447 ,84.5470 ,1.53928 ,-0.70396 ,-6.90729 
448 ,84.7231 ,1.54103 ,-0.72107 ,-7.07518 
449 ,84.9309 ,1.54316 ,-0.73818 ,-7.24307 
450 ,85.1071 ,1.54491 ,-0.73134 ,-7.17591 
451 ,85.3151 ,1.54693 ,-0.76556 ,-7.51170 
452 ,85.5073 ,1.54881 ,-0.74161 ,-7.27665 
453 ,85.6833 ,1.55062 ,-0.76214 ,-7.47812 
454 ,85.8753 ,1.55253 ,-0.77583 ,-7.61243 
455 ,86.0514 ,1.55435 ,-0.78610 ,-7.71317 
456 ,86.2596 ,1.55632 ,-0.78267 ,-7.67959 
457 ,86.4675 ,1.55842 ,-0.78267 ,-7.67959 
458 ,86.6598 ,1.56031 ,-0.79978 ,-7.84748 
459 ,86.8676 ,1.56243 ,-0.82374 ,-8.08253 
460 ,87.0600 ,1.56432 ,-0.83401 ,-8.18326 
461 ,87.2518 ,1.56630 ,-0.85112 ,-8.35115 
462 ,87.4281 ,1.56810 ,-0.84427 ,-8.28400 
463 ,87.6202 ,1.56993 ,-0.84769 ,-8.31758 
