Data stamp = , 24-04-2022 23:42:38 587

Calibration Values: 
Slope = , 26.54 , g/V 
Offset Voltage at no contact = , -0.501760 , V 

No , Time , Stage Position ,   Mass , Force 
   ,  (s) ,      (mm)      ,   (g)  , (mN)  

1 ,0.0000 ,0.69948 ,5.31563 ,52.15694 
2 ,0.3110 ,0.69973 ,5.28483 ,51.85474 
3 ,0.6312 ,0.70087 ,5.29510 ,51.95548 
4 ,0.8233 ,0.70250 ,5.29167 ,51.92190 
5 ,0.9994 ,0.70425 ,5.30536 ,52.05621 
6 ,1.1915 ,0.70617 ,5.30194 ,52.02263 
7 ,1.3834 ,0.70795 ,5.31905 ,52.19052 
8 ,1.5596 ,0.70979 ,5.30194 ,52.02263 
9 ,1.7518 ,0.71167 ,5.27456 ,51.75401 
10 ,1.9438 ,0.71366 ,5.27114 ,51.72043 
11 ,2.1521 ,0.71579 ,5.23350 ,51.35107 
12 ,2.3439 ,0.71770 ,5.22665 ,51.28391 
13 ,2.5360 ,0.71949 ,5.21296 ,51.14960 
14 ,2.7281 ,0.72155 ,5.18559 ,50.88097 
15 ,2.9037 ,0.72324 ,5.16505 ,50.67950 
16 ,3.0960 ,0.72515 ,5.14110 ,50.44445 
17 ,3.3045 ,0.72719 ,5.12741 ,50.31014 
18 ,3.4963 ,0.72911 ,5.10688 ,50.10867 
19 ,3.6885 ,0.73110 ,5.08977 ,49.94078 
20 ,3.8805 ,0.73296 ,5.07608 ,49.80646 
21 ,4.0563 ,0.73478 ,5.05897 ,49.63857 
22 ,4.2328 ,0.73656 ,5.04528 ,49.50426 
23 ,4.4408 ,0.73850 ,5.02474 ,49.30279 
24 ,4.6488 ,0.74060 ,4.99394 ,49.00058 
25 ,4.8248 ,0.74245 ,4.96999 ,48.76554 
26 ,5.0010 ,0.74423 ,4.97683 ,48.83269 
27 ,5.1931 ,0.74612 ,4.94261 ,48.49691 
28 ,5.4013 ,0.74812 ,4.91523 ,48.22828 
29 ,5.5933 ,0.75023 ,4.88786 ,47.95966 
30 ,5.7693 ,0.75191 ,4.88101 ,47.89250 
31 ,5.9615 ,0.75383 ,4.86732 ,47.75819 
32 ,6.1532 ,0.75576 ,4.85021 ,47.59030 
33 ,6.3297 ,0.75754 ,4.82284 ,47.32167 
34 ,6.5377 ,0.75947 ,4.81941 ,47.28809 
35 ,6.7137 ,0.76133 ,4.79888 ,47.08662 
36 ,6.8899 ,0.76315 ,4.77493 ,46.85157 
37 ,7.0982 ,0.76513 ,4.75782 ,46.68368 
38 ,7.2899 ,0.76716 ,4.72702 ,46.38148 
39 ,7.4658 ,0.76895 ,4.72359 ,46.34790 
40 ,7.6423 ,0.77065 ,4.69964 ,46.11285 
41 ,7.8342 ,0.77250 ,4.69622 ,46.07927 
42 ,8.0104 ,0.77428 ,4.65857 ,45.70991 
43 ,8.2024 ,0.77619 ,4.63804 ,45.50844 
44 ,8.3944 ,0.77822 ,4.62435 ,45.37413 
45 ,8.5866 ,0.78007 ,4.60040 ,45.13908 
46 ,8.7787 ,0.78194 ,4.60040 ,45.13908 
47 ,8.9707 ,0.78389 ,4.56275 ,44.76972 
48 ,9.1467 ,0.78571 ,4.54906 ,44.63541 
49 ,9.3225 ,0.78744 ,4.52853 ,44.43394 
50 ,9.4991 ,0.78924 ,4.52511 ,44.40036 
51 ,9.6910 ,0.79107 ,4.49773 ,44.13173 
52 ,9.8831 ,0.79301 ,4.47720 ,43.93026 
53 ,10.0752 ,0.79497 ,4.47378 ,43.89668 
54 ,10.2513 ,0.79671 ,4.46693 ,43.82953 
55 ,10.4430 ,0.79858 ,4.42244 ,43.39301 
56 ,10.6195 ,0.80043 ,4.42244 ,43.39301 
57 ,10.8274 ,0.80243 ,4.38822 ,43.05723 
58 ,11.0196 ,0.80429 ,4.36769 ,42.85576 
59 ,11.2276 ,0.80642 ,4.36427 ,42.82218 
60 ,11.4037 ,0.80824 ,4.33347 ,42.51997 
61 ,11.5799 ,0.80999 ,4.31978 ,42.38566 
62 ,11.7719 ,0.81184 ,4.29924 ,42.18419 
63 ,11.9640 ,0.81381 ,4.29240 ,42.11703 
64 ,12.1402 ,0.81563 ,4.25476 ,41.74767 
65 ,12.3321 ,0.81744 ,4.25133 ,41.71409 
66 ,12.5082 ,0.81932 ,4.24791 ,41.68051 
67 ,12.7003 ,0.82120 ,4.20342 ,41.24400 
68 ,12.8923 ,0.82305 ,4.20342 ,41.24400 
69 ,13.0685 ,0.82490 ,4.18974 ,41.10968 
70 ,13.2604 ,0.82680 ,4.15551 ,40.77390 
71 ,13.4365 ,0.82861 ,4.13840 ,40.60601 
72 ,13.6123 ,0.83037 ,4.12471 ,40.47170 
73 ,13.8047 ,0.83218 ,4.09734 ,40.20307 
74 ,14.0127 ,0.83428 ,4.09734 ,40.20307 
75 ,14.1890 ,0.83605 ,4.08365 ,40.06876 
76 ,14.3968 ,0.83817 ,4.06312 ,39.86729 
77 ,14.5891 ,0.84009 ,4.05285 ,39.76655 
78 ,14.7809 ,0.84200 ,4.00836 ,39.33003 
79 ,14.9572 ,0.84372 ,4.00152 ,39.26288 
80 ,15.1330 ,0.84554 ,3.99809 ,39.22930 
81 ,15.3252 ,0.84736 ,3.95703 ,38.82636 
82 ,15.5493 ,0.84954 ,3.95703 ,38.82636 
83 ,15.7573 ,0.85168 ,3.93992 ,38.65847 
84 ,15.9496 ,0.85365 ,3.91938 ,38.45700 
85 ,16.1416 ,0.85566 ,3.88516 ,38.12122 
86 ,16.3177 ,0.85741 ,3.86805 ,37.95332 
87 ,16.5099 ,0.85919 ,3.86463 ,37.91975 
88 ,16.7018 ,0.86117 ,3.84410 ,37.71828 
89 ,16.8938 ,0.86316 ,3.83383 ,37.61754 
90 ,17.0700 ,0.86486 ,3.82356 ,37.51681 
91 ,17.2461 ,0.86666 ,3.79276 ,37.21460 
92 ,17.4384 ,0.86859 ,3.77908 ,37.08029 
93 ,17.6304 ,0.87045 ,3.76881 ,36.97955 
94 ,17.8384 ,0.87242 ,3.72090 ,36.50946 
95 ,18.0625 ,0.87472 ,3.71063 ,36.40872 
96 ,18.2543 ,0.87671 ,3.69694 ,36.27441 
97 ,18.4463 ,0.87860 ,3.69694 ,36.27441 
98 ,18.6385 ,0.88045 ,3.66272 ,35.93863 
99 ,18.8309 ,0.88245 ,3.66272 ,35.93863 
100 ,19.0227 ,0.88433 ,3.61481 ,35.46853 
101 ,19.1986 ,0.88615 ,3.59770 ,35.30064 
102 ,19.3750 ,0.88791 ,3.59086 ,35.23348 
103 ,19.5832 ,0.88997 ,3.56690 ,34.99843 
104 ,19.7752 ,0.89189 ,3.57032 ,35.03201 
105 ,19.9672 ,0.89383 ,3.55321 ,34.86412 
106 ,20.1594 ,0.89573 ,3.51899 ,34.52834 
107 ,20.3674 ,0.89784 ,3.52584 ,34.59549 
108 ,20.5752 ,0.89984 ,3.49504 ,34.29329 
109 ,20.7517 ,0.90167 ,3.47450 ,34.09182 
110 ,20.9277 ,0.90344 ,3.46424 ,33.99108 
111 ,21.1353 ,0.90542 ,3.45055 ,33.85677 
112 ,21.3114 ,0.90730 ,3.43001 ,33.65530 
113 ,21.4874 ,0.90909 ,3.40948 ,33.45383 
114 ,21.6637 ,0.91078 ,3.39579 ,33.31952 
115 ,21.8395 ,0.91260 ,3.37868 ,33.15163 
116 ,22.0322 ,0.91446 ,3.36499 ,33.01731 
117 ,22.2400 ,0.91657 ,3.33077 ,32.68153 
118 ,22.4162 ,0.91826 ,3.32735 ,32.64795 
119 ,22.6082 ,0.92016 ,3.32051 ,32.58080 
120 ,22.7844 ,0.92205 ,3.29655 ,32.34575 
121 ,22.9765 ,0.92384 ,3.28286 ,32.21143 
122 ,23.1528 ,0.92572 ,3.25548 ,31.94281 
123 ,23.3447 ,0.92768 ,3.24522 ,31.84207 
124 ,23.5368 ,0.92944 ,3.23153 ,31.70776 
125 ,23.7288 ,0.93138 ,3.23153 ,31.70776 
126 ,23.9048 ,0.93317 ,3.21442 ,31.53987 
127 ,24.1130 ,0.93521 ,3.19046 ,31.30482 
128 ,24.3047 ,0.93716 ,3.17335 ,31.13693 
129 ,24.4812 ,0.93899 ,3.15282 ,30.93546 
130 ,24.6891 ,0.94107 ,3.14940 ,30.90188 
131 ,24.8811 ,0.94297 ,3.12886 ,30.70041 
132 ,25.0575 ,0.94474 ,3.10491 ,30.46536 
133 ,25.2334 ,0.94655 ,3.11518 ,30.56610 
134 ,25.4091 ,0.94821 ,3.08095 ,30.23031 
135 ,25.5854 ,0.95006 ,3.07069 ,30.12958 
136 ,25.7936 ,0.95205 ,3.05358 ,29.96169 
137 ,25.9695 ,0.95387 ,3.02962 ,29.72664 
138 ,26.1619 ,0.95573 ,3.01593 ,29.59233 
139 ,26.3699 ,0.95775 ,3.01593 ,29.59233 
140 ,26.5459 ,0.95965 ,2.98171 ,29.25654 
141 ,26.8819 ,0.96219 ,2.99198 ,29.35728 
142 ,27.0581 ,0.96476 ,2.94749 ,28.92076 
143 ,27.2505 ,0.96661 ,2.92696 ,28.71929 
144 ,27.4584 ,0.96863 ,2.91327 ,28.58498 
145 ,27.6345 ,0.97046 ,2.89616 ,28.41709 
146 ,27.8105 ,0.97225 ,2.86878 ,28.14846 
147 ,28.0027 ,0.97413 ,2.86878 ,28.14846 
148 ,28.1946 ,0.97604 ,2.83114 ,27.77910 
149 ,28.3708 ,0.97787 ,2.83456 ,27.81268 
150 ,28.5467 ,0.97962 ,2.83456 ,27.81268 
151 ,28.7710 ,0.98169 ,2.80376 ,27.51047 
152 ,28.9788 ,0.98384 ,2.77980 ,27.27542 
153 ,29.1711 ,0.98585 ,2.76269 ,27.10753 
154 ,29.3792 ,0.98783 ,2.73874 ,26.87248 
155 ,29.5552 ,0.98968 ,2.73531 ,26.83891 
156 ,29.7472 ,0.99165 ,2.71136 ,26.60386 
157 ,29.9235 ,0.99335 ,2.71478 ,26.63744 
158 ,30.1152 ,0.99528 ,2.68740 ,26.36881 
159 ,30.2915 ,0.99704 ,2.67029 ,26.20092 
160 ,30.4678 ,0.99880 ,2.66003 ,26.10018 
161 ,30.6601 ,1.00061 ,2.64292 ,25.93229 
162 ,30.8357 ,1.00243 ,2.63607 ,25.86514 
163 ,31.0117 ,1.00423 ,2.60527 ,25.56293 
164 ,31.2039 ,1.00617 ,2.60527 ,25.56293 
165 ,31.3959 ,1.00800 ,2.58816 ,25.39504 
166 ,31.5882 ,1.00997 ,2.57447 ,25.26073 
167 ,31.7963 ,1.01201 ,2.55394 ,25.05926 
168 ,31.9884 ,1.01402 ,2.53341 ,24.85779 
169 ,32.1964 ,1.01605 ,2.51287 ,24.65632 
170 ,32.3726 ,1.01787 ,2.49576 ,24.48842 
171 ,32.5807 ,1.01982 ,2.49234 ,24.45485 
172 ,32.7886 ,1.02198 ,2.47523 ,24.28696 
173 ,32.9805 ,1.02390 ,2.46496 ,24.18622 
174 ,33.1729 ,1.02587 ,2.44101 ,23.95117 
175 ,33.3651 ,1.02780 ,2.42732 ,23.81686 
176 ,33.5571 ,1.02959 ,2.42732 ,23.81686 
177 ,33.7492 ,1.03156 ,2.39652 ,23.51465 
178 ,33.9567 ,1.03358 ,2.40336 ,23.58181 
179 ,34.1332 ,1.03545 ,2.36230 ,23.17887 
180 ,34.3251 ,1.03742 ,2.36230 ,23.17887 
181 ,34.5173 ,1.03919 ,2.33150 ,22.87667 
182 ,34.7096 ,1.04110 ,2.32123 ,22.77593 
183 ,34.9015 ,1.04313 ,2.30754 ,22.64162 
184 ,35.0932 ,1.04508 ,2.28359 ,22.40657 
185 ,35.2697 ,1.04682 ,2.27674 ,22.33941 
186 ,35.4618 ,1.04874 ,2.28017 ,22.37299 
187 ,35.6374 ,1.05043 ,2.26306 ,22.20510 
188 ,35.8460 ,1.05244 ,2.23226 ,21.90290 
189 ,36.0542 ,1.05457 ,2.22199 ,21.80216 
190 ,36.2301 ,1.05641 ,2.19803 ,21.56711 
191 ,36.4222 ,1.05829 ,2.20488 ,21.63427 
192 ,36.6143 ,1.06017 ,2.17408 ,21.33206 
193 ,36.8223 ,1.06228 ,2.17408 ,21.33206 
194 ,36.9983 ,1.06412 ,2.16723 ,21.26491 
195 ,37.1901 ,1.06601 ,2.11932 ,20.79481 
196 ,37.3827 ,1.06786 ,2.11932 ,20.79481 
197 ,37.5745 ,1.06985 ,2.10906 ,20.69408 
198 ,37.7507 ,1.07164 ,2.08510 ,20.45903 
199 ,37.9268 ,1.07339 ,2.06115 ,20.22398 
200 ,38.1349 ,1.07538 ,2.05773 ,20.19040 
201 ,38.2945 ,1.07715 ,2.04746 ,20.08967 
202 ,38.4710 ,1.07882 ,2.03035 ,19.92178 
203 ,38.6631 ,1.08075 ,2.01324 ,19.75388 
204 ,38.8392 ,1.08253 ,2.00982 ,19.72031 
205 ,39.0469 ,1.08452 ,1.99270 ,19.55241 
206 ,39.2233 ,1.08633 ,1.97559 ,19.38452 
207 ,39.4154 ,1.08823 ,1.96875 ,19.31737 
208 ,39.6074 ,1.09005 ,1.95506 ,19.18305 
209 ,39.7997 ,1.09199 ,1.93453 ,18.98158 
210 ,39.9916 ,1.09406 ,1.91399 ,18.78011 
211 ,40.1675 ,1.09576 ,1.89688 ,18.61222 
212 ,40.3437 ,1.09757 ,1.91742 ,18.81369 
213 ,40.5198 ,1.09929 ,1.88662 ,18.51149 
214 ,40.6957 ,1.10113 ,1.86608 ,18.31002 
215 ,40.8720 ,1.10283 ,1.85924 ,18.24286 
216 ,41.0640 ,1.10467 ,1.84213 ,18.07497 
217 ,41.2401 ,1.10647 ,1.83186 ,17.97423 
218 ,41.4483 ,1.10854 ,1.80106 ,17.67203 
219 ,41.6404 ,1.11050 ,1.78737 ,17.53772 
220 ,41.8485 ,1.11251 ,1.80106 ,17.67203 
221 ,42.0562 ,1.11458 ,1.79080 ,17.57129 
222 ,42.2325 ,1.11642 ,1.77026 ,17.36983 
223 ,42.4086 ,1.11815 ,1.73262 ,17.00046 
224 ,42.5842 ,1.11999 ,1.71893 ,16.86615 
225 ,42.7767 ,1.12179 ,1.71893 ,16.86615 
226 ,42.9849 ,1.12383 ,1.69155 ,16.59752 
227 ,43.1609 ,1.12574 ,1.68813 ,16.56395 
228 ,43.3529 ,1.12758 ,1.67786 ,16.46321 
229 ,43.5611 ,1.12965 ,1.66418 ,16.32890 
230 ,43.7530 ,1.13157 ,1.65049 ,16.19458 
231 ,43.9291 ,1.13338 ,1.62653 ,15.95954 
232 ,44.1052 ,1.13514 ,1.61627 ,15.85880 
233 ,44.2975 ,1.13708 ,1.59573 ,15.65733 
234 ,44.4893 ,1.13893 ,1.57520 ,15.45586 
235 ,44.6975 ,1.14102 ,1.57520 ,15.45586 
236 ,44.9377 ,1.14331 ,1.55467 ,15.25439 
237 ,45.1457 ,1.14543 ,1.53071 ,15.01934 
238 ,45.3376 ,1.14737 ,1.54440 ,15.15366 
239 ,45.5300 ,1.14938 ,1.52729 ,14.98577 
240 ,45.7381 ,1.15145 ,1.52045 ,14.91861 
241 ,45.9141 ,1.15325 ,1.48622 ,14.58283 
242 ,46.0900 ,1.15494 ,1.48280 ,14.54925 
243 ,46.2823 ,1.15683 ,1.45885 ,14.31420 
244 ,46.4744 ,1.15877 ,1.47253 ,14.44851 
245 ,46.6824 ,1.16080 ,1.43831 ,14.11273 
246 ,46.8744 ,1.16278 ,1.42120 ,13.94484 
247 ,47.0665 ,1.16465 ,1.39040 ,13.64263 
248 ,47.2586 ,1.16657 ,1.39725 ,13.70979 
249 ,47.4348 ,1.16842 ,1.38014 ,13.54190 
250 ,47.6266 ,1.17026 ,1.36303 ,13.37401 
251 ,47.8028 ,1.17204 ,1.33907 ,13.13896 
252 ,47.9944 ,1.17400 ,1.34249 ,13.17254 
253 ,48.1712 ,1.17580 ,1.34249 ,13.17254 
254 ,48.3628 ,1.17768 ,1.31854 ,12.93749 
255 ,48.5392 ,1.17943 ,1.28774 ,12.63528 
256 ,48.7152 ,1.18128 ,1.30485 ,12.80318 
257 ,48.8912 ,1.18301 ,1.28774 ,12.63528 
258 ,49.0669 ,1.18479 ,1.25352 ,12.29950 
259 ,49.2436 ,1.18649 ,1.25009 ,12.26592 
260 ,49.4517 ,1.18852 ,1.24667 ,12.23235 
261 ,49.6436 ,1.19040 ,1.21245 ,11.89656 
262 ,49.8519 ,1.19244 ,1.21587 ,11.93014 
263 ,50.0439 ,1.19447 ,1.19876 ,11.76225 
264 ,50.2357 ,1.19632 ,1.17823 ,11.56078 
265 ,50.4440 ,1.19842 ,1.16454 ,11.42647 
266 ,50.6195 ,1.20031 ,1.15427 ,11.32573 
267 ,50.7956 ,1.20203 ,1.15085 ,11.29215 
268 ,50.9880 ,1.20385 ,1.14401 ,11.22500 
269 ,51.1959 ,1.20598 ,1.11321 ,10.92279 
270 ,51.3725 ,1.20777 ,1.10636 ,10.85563 
271 ,51.5643 ,1.20970 ,1.10979 ,10.88921 
272 ,51.7567 ,1.21154 ,1.09267 ,10.72132 
273 ,51.9489 ,1.21349 ,1.08241 ,10.62059 
274 ,52.1567 ,1.21556 ,1.04819 ,10.28480 
275 ,52.3324 ,1.21735 ,1.05161 ,10.31838 
276 ,52.5089 ,1.21911 ,1.02765 ,10.08333 
277 ,52.7010 ,1.22099 ,1.01396 ,9.94902 
278 ,52.8770 ,1.22283 ,0.99343 ,9.74755 
279 ,53.0693 ,1.22474 ,1.00712 ,9.88186 
280 ,53.2451 ,1.22650 ,0.97290 ,9.54608 
281 ,53.4211 ,1.22822 ,0.95921 ,9.41177 
282 ,53.5972 ,1.23000 ,0.94894 ,9.31103 
283 ,53.7731 ,1.23175 ,0.94894 ,9.31103 
284 ,53.9495 ,1.23354 ,0.93868 ,9.21030 
285 ,54.1253 ,1.23526 ,0.93183 ,9.14314 
286 ,54.3018 ,1.23706 ,0.91814 ,9.00883 
287 ,54.4778 ,1.23889 ,0.90446 ,8.87451 
288 ,54.6538 ,1.24056 ,0.88392 ,8.67305 
289 ,54.8299 ,1.24235 ,0.87708 ,8.60589 
290 ,55.0381 ,1.24434 ,0.85312 ,8.37084 
291 ,55.2141 ,1.24624 ,0.85997 ,8.43800 
292 ,55.4057 ,1.24800 ,0.83943 ,8.23653 
293 ,55.5822 ,1.24983 ,0.83601 ,8.20295 
294 ,55.7583 ,1.25165 ,0.81548 ,8.00148 
295 ,55.9344 ,1.25337 ,0.79837 ,7.83359 
296 ,56.1265 ,1.25520 ,0.80179 ,7.86717 
297 ,56.3021 ,1.25703 ,0.79152 ,7.76643 
298 ,56.4784 ,1.25880 ,0.76757 ,7.53138 
299 ,56.6707 ,1.26073 ,0.75730 ,7.43065 
300 ,56.8786 ,1.26281 ,0.75046 ,7.36349 
301 ,57.0708 ,1.26478 ,0.72308 ,7.09486 
302 ,57.2627 ,1.26662 ,0.71966 ,7.06129 
303 ,57.4711 ,1.26864 ,0.72650 ,7.12844 
304 ,57.6626 ,1.27058 ,0.69570 ,6.82624 
305 ,57.8553 ,1.27250 ,0.68544 ,6.72550 
306 ,58.0470 ,1.27441 ,0.68201 ,6.69193 
307 ,58.2234 ,1.27622 ,0.66490 ,6.52403 
308 ,58.3992 ,1.27801 ,0.64779 ,6.35614 
309 ,58.5752 ,1.27978 ,0.63068 ,6.18825 
310 ,58.7511 ,1.28163 ,0.63753 ,6.25541 
311 ,58.9276 ,1.28333 ,0.61699 ,6.05394 
312 ,59.1198 ,1.28513 ,0.60673 ,5.95320 
313 ,59.3117 ,1.28714 ,0.58277 ,5.71815 
314 ,59.4877 ,1.28887 ,0.59988 ,5.88605 
315 ,59.6957 ,1.29099 ,0.57593 ,5.65100 
316 ,59.9199 ,1.29313 ,0.55539 ,5.44953 
317 ,60.1281 ,1.29523 ,0.55539 ,5.44953 
318 ,60.3201 ,1.29712 ,0.54513 ,5.34879 
319 ,60.5123 ,1.29912 ,0.52802 ,5.18090 
320 ,60.7041 ,1.30100 ,0.53144 ,5.21448 
321 ,60.8960 ,1.30294 ,0.50064 ,4.91228 
322 ,61.0883 ,1.30480 ,0.49722 ,4.87870 
323 ,61.2963 ,1.30690 ,0.48353 ,4.74438 
324 ,61.4725 ,1.30875 ,0.45615 ,4.47576 
325 ,61.6647 ,1.31063 ,0.47326 ,4.64365 
326 ,61.8569 ,1.31250 ,0.44588 ,4.37502 
327 ,62.0328 ,1.31438 ,0.43562 ,4.27429 
328 ,62.2090 ,1.31610 ,0.41509 ,4.07282 
329 ,62.4011 ,1.31792 ,0.42535 ,4.17355 
330 ,62.5927 ,1.31995 ,0.41166 ,4.03924 
331 ,62.7532 ,1.32164 ,0.39113 ,3.83777 
332 ,62.9293 ,1.32332 ,0.39113 ,3.83777 
333 ,63.1371 ,1.32531 ,0.37402 ,3.66988 
334 ,63.3134 ,1.32713 ,0.36375 ,3.56914 
335 ,63.5054 ,1.32896 ,0.36375 ,3.56914 
336 ,63.7136 ,1.33107 ,0.33980 ,3.33410 
337 ,63.9056 ,1.33298 ,0.33638 ,3.30052 
338 ,64.0974 ,1.33493 ,0.31584 ,3.09905 
339 ,64.2896 ,1.33683 ,0.31926 ,3.13263 
340 ,64.4818 ,1.33882 ,0.31242 ,3.06547 
341 ,64.6738 ,1.34065 ,0.29531 ,2.89758 
342 ,64.8660 ,1.34258 ,0.28504 ,2.79684 
343 ,65.0423 ,1.34442 ,0.28847 ,2.83042 
344 ,65.2343 ,1.34627 ,0.26109 ,2.56179 
345 ,65.4104 ,1.34809 ,0.23713 ,2.32675 
346 ,65.6021 ,1.34993 ,0.25767 ,2.52822 
347 ,65.7784 ,1.35178 ,0.24740 ,2.42748 
348 ,65.9548 ,1.35356 ,0.22344 ,2.19243 
349 ,66.1465 ,1.35537 ,0.20976 ,2.05812 
350 ,66.3387 ,1.35742 ,0.21660 ,2.12528 
351 ,66.5469 ,1.35943 ,0.18922 ,1.85665 
352 ,66.7549 ,1.36147 ,0.16185 ,1.58802 
353 ,66.9309 ,1.36330 ,0.17896 ,1.75592 
354 ,67.1070 ,1.36502 ,0.15158 ,1.48729 
355 ,67.2987 ,1.36700 ,0.15842 ,1.55445 
356 ,67.4749 ,1.36873 ,0.15500 ,1.52087 
357 ,67.6670 ,1.37071 ,0.14131 ,1.38655 
358 ,67.8434 ,1.37241 ,0.11393 ,1.11793 
359 ,68.0512 ,1.37439 ,0.12078 ,1.18508 
360 ,68.2435 ,1.37643 ,0.08314 ,0.81572 
361 ,68.4351 ,1.37828 ,0.09682 ,0.95004 
362 ,68.6111 ,1.38010 ,0.06945 ,0.68141 
363 ,68.7876 ,1.38188 ,0.05576 ,0.54710 
364 ,68.9638 ,1.38363 ,0.04891 ,0.47994 
365 ,69.1554 ,1.38552 ,0.06945 ,0.68141 
366 ,69.3320 ,1.38730 ,0.03865 ,0.37920 
367 ,69.5558 ,1.38947 ,0.03180 ,0.31205 
368 ,69.7642 ,1.39154 ,0.02496 ,0.24489 
369 ,69.9562 ,1.39351 ,0.01811 ,0.17773 
370 ,70.1644 ,1.39558 ,-0.00926 ,-0.09089 
371 ,70.3565 ,1.39758 ,-0.00584 ,-0.05731 
372 ,70.5481 ,1.39949 ,-0.02980 ,-0.29236 
373 ,70.7405 ,1.40132 ,-0.02637 ,-0.25878 
374 ,70.9486 ,1.40338 ,-0.05375 ,-0.52741 
375 ,71.1567 ,1.40543 ,-0.06744 ,-0.66172 
376 ,71.3488 ,1.40746 ,-0.07428 ,-0.72888 
377 ,71.5407 ,1.40928 ,-0.06402 ,-0.62814 
378 ,71.7326 ,1.41123 ,-0.08113 ,-0.79604 
379 ,71.9411 ,1.41333 ,-0.09140 ,-0.89677 
380 ,72.1490 ,1.41540 ,-0.11535 ,-1.13182 
381 ,72.3251 ,1.41720 ,-0.13246 ,-1.29971 
382 ,72.5012 ,1.41895 ,-0.12904 ,-1.26613 
383 ,72.7091 ,1.42103 ,-0.15299 ,-1.50118 
384 ,72.9014 ,1.42291 ,-0.15299 ,-1.50118 
385 ,73.1095 ,1.42497 ,-0.17011 ,-1.66907 
386 ,73.2854 ,1.42679 ,-0.17011 ,-1.66907 
387 ,73.4616 ,1.42859 ,-0.18037 ,-1.76981 
388 ,73.6539 ,1.43045 ,-0.18722 ,-1.83696 
389 ,73.8617 ,1.43250 ,-0.19748 ,-1.93770 
390 ,74.0540 ,1.43453 ,-0.21117 ,-2.07201 
391 ,74.2621 ,1.43654 ,-0.22144 ,-2.17275 
392 ,74.4543 ,1.43846 ,-0.23513 ,-2.30706 
393 ,74.6457 ,1.44034 ,-0.24881 ,-2.44137 
394 ,74.8219 ,1.44216 ,-0.25908 ,-2.54211 
395 ,74.9981 ,1.44393 ,-0.26593 ,-2.60926 
396 ,75.1903 ,1.44584 ,-0.26593 ,-2.60926 
397 ,75.3663 ,1.44760 ,-0.28988 ,-2.84431 
398 ,75.5424 ,1.44938 ,-0.27619 ,-2.71000 
399 ,75.7184 ,1.45116 ,-0.29330 ,-2.87789 
400 ,75.8945 ,1.45289 ,-0.28646 ,-2.81073 
401 ,76.1027 ,1.45495 ,-0.32410 ,-3.18010 
402 ,76.2944 ,1.45687 ,-0.30699 ,-3.01220 
403 ,76.4709 ,1.45865 ,-0.32068 ,-3.14652 
404 ,76.6627 ,1.46053 ,-0.34121 ,-3.34799 
405 ,76.8390 ,1.46235 ,-0.35148 ,-3.44872 
406 ,77.0307 ,1.46420 ,-0.35490 ,-3.48230 
407 ,77.2232 ,1.46616 ,-0.36517 ,-3.58303 
408 ,77.4313 ,1.46818 ,-0.37544 ,-3.68377 
409 ,77.6234 ,1.47013 ,-0.40281 ,-3.95240 
410 ,77.8150 ,1.47200 ,-0.38228 ,-3.75093 
411 ,77.9915 ,1.47384 ,-0.38570 ,-3.78450 
412 ,78.1833 ,1.47569 ,-0.43019 ,-4.22102 
413 ,78.3597 ,1.47752 ,-0.42677 ,-4.18744 
414 ,78.5355 ,1.47930 ,-0.43703 ,-4.28818 
415 ,78.7437 ,1.48136 ,-0.46099 ,-4.52323 
416 ,78.9196 ,1.48314 ,-0.45072 ,-4.42249 
417 ,79.0958 ,1.48489 ,-0.46099 ,-4.52323 
418 ,79.2879 ,1.48678 ,-0.46441 ,-4.55681 
419 ,79.4800 ,1.48876 ,-0.48837 ,-4.79185 
420 ,79.6721 ,1.49058 ,-0.48494 ,-4.75828 
421 ,79.8642 ,1.49261 ,-0.49521 ,-4.85901 
422 ,80.0563 ,1.49449 ,-0.51232 ,-5.02690 
423 ,80.2323 ,1.49625 ,-0.51232 ,-5.02690 
424 ,80.4080 ,1.49802 ,-0.51232 ,-5.02690 
425 ,80.6165 ,1.50007 ,-0.52259 ,-5.12764 
426 ,80.7922 ,1.50195 ,-0.53628 ,-5.26195 
427 ,80.9686 ,1.50357 ,-0.53628 ,-5.26195 
428 ,81.1606 ,1.50548 ,-0.56365 ,-5.53058 
429 ,81.3364 ,1.50726 ,-0.57734 ,-5.66489 
430 ,81.5286 ,1.50915 ,-0.57392 ,-5.63131 
431 ,81.6886 ,1.51090 ,-0.58077 ,-5.69847 
432 ,81.8651 ,1.51256 ,-0.58761 ,-5.76562 
433 ,82.0731 ,1.51460 ,-0.59445 ,-5.83278 
434 ,82.2489 ,1.51644 ,-0.60130 ,-5.89994 
435 ,82.4409 ,1.51828 ,-0.62525 ,-6.13499 
436 ,82.6494 ,1.52026 ,-0.62868 ,-6.16856 
437 ,82.8414 ,1.52233 ,-0.64236 ,-6.30288 
438 ,83.0176 ,1.52408 ,-0.64921 ,-6.37003 
439 ,83.1936 ,1.52592 ,-0.65263 ,-6.40361 
440 ,83.3697 ,1.52761 ,-0.65263 ,-6.40361 
441 ,83.5614 ,1.52952 ,-0.68001 ,-6.67224 
442 ,83.7376 ,1.53128 ,-0.68685 ,-6.73940 
443 ,83.9459 ,1.53331 ,-0.69027 ,-6.77297 
444 ,84.1380 ,1.53530 ,-0.69712 ,-6.84013 
445 ,84.3140 ,1.53704 ,-0.71423 ,-7.00802 
446 ,84.5059 ,1.53899 ,-0.69027 ,-6.77297 
447 ,84.6982 ,1.54083 ,-0.73818 ,-7.24307 
448 ,84.8899 ,1.54281 ,-0.73134 ,-7.17591 
449 ,85.0664 ,1.54457 ,-0.74161 ,-7.27665 
450 ,85.2744 ,1.54650 ,-0.76556 ,-7.51170 
451 ,85.4666 ,1.54855 ,-0.75872 ,-7.44454 
452 ,85.6742 ,1.55058 ,-0.76898 ,-7.54527 
453 ,85.8508 ,1.55241 ,-0.78267 ,-7.67959 
454 ,86.0428 ,1.55434 ,-0.78267 ,-7.67959 
455 ,86.2348 ,1.55632 ,-0.78610 ,-7.71317 
456 ,86.4109 ,1.55804 ,-0.79294 ,-7.78032 
457 ,86.6030 ,1.55993 ,-0.81347 ,-7.98179 
458 ,86.7947 ,1.56180 ,-0.82374 ,-8.08253 
459 ,86.9711 ,1.56359 ,-0.82032 ,-8.04895 
460 ,87.1627 ,1.56556 ,-0.81689 ,-8.01537 
461 ,87.3391 ,1.56730 ,-0.85796 ,-8.41831 
462 ,87.5150 ,1.56902 ,-0.85112 ,-8.35115 
463 ,87.7073 ,1.57095 ,-0.87849 ,-8.61978 
