Data stamp = , 24-04-2022 05:35:58 051

Calibration Values: 
Slope = , 26.54 , g/V 
Offset Voltage at no contact = , -0.501760 , V 

No , Time , Stage Position ,   Mass , Force 
   ,  (s) ,      (mm)      ,   (g)  , (mN)  

1 ,0.0000 ,0.69939 ,5.30536 ,52.05621 
2 ,0.1979 ,0.69947 ,5.29167 ,51.92190 
3 ,0.6303 ,0.70087 ,5.29167 ,51.92190 
4 ,0.8382 ,0.70266 ,5.29167 ,51.92190 
5 ,1.0301 ,0.70448 ,5.28825 ,51.88832 
6 ,1.2227 ,0.70635 ,5.29510 ,51.95548 
7 ,1.4146 ,0.70831 ,5.29852 ,51.98905 
8 ,1.5907 ,0.71005 ,5.30194 ,52.02263 
9 ,1.7824 ,0.71186 ,5.29167 ,51.92190 
10 ,1.9745 ,0.71385 ,5.25061 ,51.51896 
11 ,2.1664 ,0.71573 ,5.25745 ,51.58611 
12 ,2.3428 ,0.71763 ,5.24034 ,51.41822 
13 ,2.5350 ,0.71958 ,5.20270 ,51.04886 
14 ,2.7433 ,0.72150 ,5.19927 ,51.01528 
15 ,2.9192 ,0.72340 ,5.15821 ,50.61234 
16 ,3.3036 ,0.72707 ,5.13425 ,50.37729 
17 ,3.5116 ,0.72917 ,5.11714 ,50.20940 
18 ,3.6875 ,0.73108 ,5.08977 ,49.94078 
19 ,3.8792 ,0.73295 ,5.07950 ,49.84004 
20 ,4.0557 ,0.73474 ,5.04870 ,49.53784 
21 ,4.2475 ,0.73663 ,5.04870 ,49.53784 
22 ,4.4399 ,0.73856 ,5.01106 ,49.16848 
23 ,4.6317 ,0.74051 ,5.00421 ,49.10132 
24 ,4.8240 ,0.74233 ,4.98368 ,48.89985 
25 ,5.0001 ,0.74413 ,4.97683 ,48.83269 
26 ,5.1762 ,0.74593 ,4.93235 ,48.39618 
27 ,5.3683 ,0.74777 ,4.93577 ,48.42975 
28 ,5.5604 ,0.74974 ,4.91866 ,48.26186 
29 ,5.7683 ,0.75179 ,4.90155 ,48.09397 
30 ,5.9600 ,0.75369 ,4.87075 ,47.79177 
31 ,6.1526 ,0.75560 ,4.84337 ,47.52314 
32 ,6.3447 ,0.75762 ,4.83995 ,47.48956 
33 ,6.5207 ,0.75937 ,4.82284 ,47.32167 
34 ,6.6968 ,0.76111 ,4.80915 ,47.18736 
35 ,6.8888 ,0.76296 ,4.79546 ,47.05304 
36 ,7.0650 ,0.76477 ,4.76466 ,46.75084 
37 ,7.2412 ,0.76651 ,4.74413 ,46.54937 
38 ,7.4330 ,0.76850 ,4.70648 ,46.18001 
39 ,7.6093 ,0.77029 ,4.69622 ,46.07927 
40 ,7.8174 ,0.77226 ,4.68253 ,45.94496 
41 ,8.0095 ,0.77414 ,4.64831 ,45.60918 
42 ,8.2015 ,0.77618 ,4.65515 ,45.67633 
43 ,8.3775 ,0.77791 ,4.63462 ,45.47486 
44 ,8.5532 ,0.77969 ,4.59013 ,45.03835 
45 ,8.7298 ,0.78150 ,4.59013 ,45.03835 
46 ,8.9219 ,0.78339 ,4.59013 ,45.03835 
47 ,9.1299 ,0.78545 ,4.55249 ,44.66898 
48 ,9.3219 ,0.78736 ,4.54906 ,44.63541 
49 ,9.4978 ,0.78911 ,4.53195 ,44.46751 
50 ,9.6898 ,0.79106 ,4.49089 ,44.06457 
51 ,9.8661 ,0.79276 ,4.49089 ,44.06457 
52 ,10.0420 ,0.79454 ,4.47035 ,43.86310 
53 ,10.2341 ,0.79645 ,4.44640 ,43.62806 
54 ,10.4423 ,0.79851 ,4.44298 ,43.59448 
55 ,10.6345 ,0.80050 ,4.41560 ,43.32585 
56 ,10.8264 ,0.80243 ,4.40191 ,43.19154 
57 ,11.0188 ,0.80428 ,4.38822 ,43.05723 
58 ,11.1946 ,0.80615 ,4.34716 ,42.65429 
59 ,11.3707 ,0.80788 ,4.33004 ,42.48639 
60 ,11.5466 ,0.80957 ,4.33689 ,42.55355 
61 ,11.7227 ,0.81138 ,4.31293 ,42.31850 
62 ,11.9151 ,0.81317 ,4.27871 ,41.98272 
63 ,12.1391 ,0.81552 ,4.28898 ,42.08345 
64 ,12.3629 ,0.81760 ,4.25818 ,41.78125 
65 ,12.5552 ,0.81966 ,4.23422 ,41.54620 
66 ,12.7312 ,0.82145 ,4.20685 ,41.27758 
67 ,12.8909 ,0.82315 ,4.19658 ,41.17684 
68 ,13.0670 ,0.82486 ,4.19658 ,41.17684 
69 ,13.2429 ,0.82665 ,4.17262 ,40.94179 
70 ,13.4191 ,0.82836 ,4.16920 ,40.90821 
71 ,13.6116 ,0.83021 ,4.12814 ,40.50527 
72 ,13.8198 ,0.83229 ,4.12129 ,40.43812 
73 ,13.9959 ,0.83413 ,4.10076 ,40.23665 
74 ,14.1878 ,0.83591 ,4.08365 ,40.06876 
75 ,14.3640 ,0.83779 ,4.07338 ,39.96802 
76 ,14.5560 ,0.83965 ,4.04600 ,39.69940 
77 ,14.7321 ,0.84143 ,4.02547 ,39.49793 
78 ,14.9081 ,0.84324 ,4.00152 ,39.26288 
79 ,15.1164 ,0.84524 ,3.99125 ,39.16214 
80 ,15.3244 ,0.84732 ,3.98441 ,39.09499 
81 ,15.5165 ,0.84923 ,3.96045 ,38.85994 
82 ,15.7085 ,0.85118 ,3.93307 ,38.59131 
83 ,15.9006 ,0.85312 ,3.92623 ,38.52415 
84 ,16.0762 ,0.85493 ,3.90227 ,38.28911 
85 ,16.2528 ,0.85666 ,3.86805 ,37.95332 
86 ,16.4606 ,0.85863 ,3.87832 ,38.05406 
87 ,16.6366 ,0.86047 ,3.86463 ,37.91975 
88 ,16.8129 ,0.86225 ,3.83725 ,37.65112 
89 ,16.9888 ,0.86400 ,3.81330 ,37.41607 
90 ,17.1646 ,0.86582 ,3.81672 ,37.44965 
91 ,17.3412 ,0.86754 ,3.79276 ,37.21460 
92 ,17.5332 ,0.86945 ,3.77565 ,37.04671 
93 ,17.7093 ,0.87124 ,3.74828 ,36.77808 
94 ,17.9015 ,0.87312 ,3.75170 ,36.81166 
95 ,18.1095 ,0.87516 ,3.71405 ,36.44230 
96 ,18.2856 ,0.87701 ,3.71748 ,36.47588 
97 ,18.4616 ,0.87882 ,3.68668 ,36.17367 
98 ,18.6377 ,0.88047 ,3.67983 ,36.10652 
99 ,18.8458 ,0.88249 ,3.66614 ,35.97220 
100 ,19.0539 ,0.88455 ,3.64219 ,35.73716 
101 ,19.2455 ,0.88663 ,3.61823 ,35.50211 
102 ,19.4222 ,0.88834 ,3.60112 ,35.33422 
103 ,19.6302 ,0.89041 ,3.58059 ,35.13275 
104 ,19.8222 ,0.89233 ,3.56690 ,34.99843 
105 ,19.9981 ,0.89405 ,3.55663 ,34.89770 
106 ,20.1742 ,0.89584 ,3.53268 ,34.66265 
107 ,20.3501 ,0.89765 ,3.50872 ,34.42760 
108 ,20.5585 ,0.89956 ,3.49504 ,34.29329 
109 ,20.7662 ,0.90172 ,3.47108 ,34.05824 
110 ,20.9427 ,0.90355 ,3.47108 ,34.05824 
111 ,21.1347 ,0.90540 ,3.43686 ,33.72246 
112 ,21.3108 ,0.90723 ,3.43001 ,33.65530 
113 ,21.4868 ,0.90893 ,3.39921 ,33.35310 
114 ,21.6629 ,0.91074 ,3.40264 ,33.38667 
115 ,21.8390 ,0.91250 ,3.39237 ,33.28594 
116 ,22.0311 ,0.91440 ,3.35130 ,32.88300 
117 ,22.2070 ,0.91619 ,3.34788 ,32.84942 
118 ,22.3828 ,0.91794 ,3.32393 ,32.61437 
119 ,22.5431 ,0.91964 ,3.33762 ,32.74869 
120 ,22.7193 ,0.92129 ,3.32051 ,32.58080 
121 ,22.8954 ,0.92301 ,3.31024 ,32.48006 
122 ,23.0713 ,0.92480 ,3.26575 ,32.04354 
123 ,23.2795 ,0.92686 ,3.26575 ,32.04354 
124 ,23.4718 ,0.92878 ,3.24180 ,31.80849 
125 ,23.6637 ,0.93071 ,3.23837 ,31.77492 
126 ,23.8558 ,0.93259 ,3.21442 ,31.53987 
127 ,24.0319 ,0.93441 ,3.20073 ,31.40555 
128 ,24.2238 ,0.93635 ,3.16993 ,31.10335 
129 ,24.4162 ,0.93821 ,3.16309 ,31.03619 
130 ,24.6238 ,0.94024 ,3.15282 ,30.93546 
131 ,24.8163 ,0.94216 ,3.13229 ,30.73399 
132 ,24.9922 ,0.94404 ,3.11860 ,30.59968 
133 ,25.1683 ,0.94574 ,3.09122 ,30.33105 
134 ,25.3445 ,0.94750 ,3.08095 ,30.23031 
135 ,25.5524 ,0.94958 ,3.06042 ,30.02884 
136 ,25.7282 ,0.95132 ,3.04673 ,29.89453 
137 ,25.9046 ,0.95315 ,3.02962 ,29.72664 
138 ,26.0964 ,0.95503 ,3.03647 ,29.79380 
139 ,26.2885 ,0.95694 ,3.00909 ,29.52517 
140 ,26.4808 ,0.95885 ,2.99198 ,29.35728 
141 ,26.6569 ,0.96068 ,2.98171 ,29.25654 
142 ,26.8649 ,0.96264 ,2.95433 ,28.98792 
143 ,27.0729 ,0.96464 ,2.95091 ,28.95434 
144 ,27.2492 ,0.96653 ,2.92353 ,28.68571 
145 ,27.4414 ,0.96852 ,2.90300 ,28.48424 
146 ,27.6173 ,0.97024 ,2.90300 ,28.48424 
147 ,27.7933 ,0.97200 ,2.88247 ,28.28277 
148 ,27.9695 ,0.97372 ,2.85167 ,27.98057 
149 ,28.1773 ,0.97579 ,2.86193 ,28.08130 
150 ,28.3696 ,0.97776 ,2.81745 ,27.64479 
151 ,28.5456 ,0.97957 ,2.83114 ,27.77910 
152 ,28.7219 ,0.98130 ,2.81745 ,27.64479 
153 ,28.8975 ,0.98305 ,2.79007 ,27.37616 
154 ,29.0739 ,0.98480 ,2.79349 ,27.40974 
155 ,29.2660 ,0.98678 ,2.74558 ,26.93964 
156 ,29.4421 ,0.98847 ,2.74900 ,26.97322 
157 ,29.6503 ,0.99045 ,2.72163 ,26.70459 
158 ,29.8423 ,0.99249 ,2.70452 ,26.53670 
159 ,30.0340 ,0.99432 ,2.70452 ,26.53670 
160 ,30.2105 ,0.99618 ,2.67372 ,26.23450 
161 ,30.4187 ,0.99815 ,2.65660 ,26.06661 
162 ,30.6102 ,1.00013 ,2.64292 ,25.93229 
163 ,30.7867 ,1.00192 ,2.62581 ,25.76440 
164 ,30.9786 ,1.00375 ,2.64292 ,25.93229 
165 ,31.1706 ,1.00574 ,2.61554 ,25.66367 
166 ,31.3627 ,1.00765 ,2.58816 ,25.39504 
167 ,31.5390 ,1.00942 ,2.57105 ,25.22715 
168 ,31.7151 ,1.01121 ,2.56078 ,25.12641 
169 ,31.9233 ,1.01310 ,2.55394 ,25.05926 
170 ,32.1310 ,1.01520 ,2.53341 ,24.85779 
171 ,32.3234 ,1.01732 ,2.50945 ,24.62274 
172 ,32.5314 ,1.01928 ,2.47865 ,24.32053 
173 ,32.7234 ,1.02124 ,2.48207 ,24.35411 
174 ,32.8996 ,1.02301 ,2.46496 ,24.18622 
175 ,33.1235 ,1.02506 ,2.44443 ,23.98475 
176 ,33.2997 ,1.02713 ,2.43759 ,23.91759 
177 ,33.4757 ,1.02882 ,2.42390 ,23.78328 
178 ,33.6519 ,1.03058 ,2.41021 ,23.64897 
179 ,33.8439 ,1.03250 ,2.37941 ,23.34676 
180 ,34.0359 ,1.03451 ,2.36230 ,23.17887 
181 ,34.2119 ,1.03616 ,2.37599 ,23.31318 
182 ,34.3880 ,1.03794 ,2.34177 ,22.97740 
183 ,34.5641 ,1.03966 ,2.31439 ,22.70877 
184 ,34.7400 ,1.04147 ,2.31781 ,22.74235 
185 ,34.9483 ,1.04345 ,2.29385 ,22.50731 
186 ,35.1565 ,1.04562 ,2.29728 ,22.54088 
187 ,35.3326 ,1.04741 ,2.27674 ,22.33941 
188 ,35.5242 ,1.04935 ,2.25621 ,22.13794 
189 ,35.7327 ,1.05123 ,2.25963 ,22.17152 
190 ,35.9248 ,1.05329 ,2.21857 ,21.76858 
191 ,36.1328 ,1.05530 ,2.21515 ,21.73500 
192 ,36.3408 ,1.05735 ,2.19461 ,21.53353 
193 ,36.5168 ,1.05922 ,2.19803 ,21.56711 
194 ,36.7091 ,1.06112 ,2.16039 ,21.19775 
195 ,36.9011 ,1.06300 ,2.15697 ,21.16417 
196 ,37.0772 ,1.06480 ,2.14670 ,21.06344 
197 ,37.2534 ,1.06658 ,2.12959 ,20.89555 
198 ,37.4452 ,1.06851 ,2.10221 ,20.62692 
199 ,37.6372 ,1.07034 ,2.10906 ,20.69408 
200 ,37.8292 ,1.07224 ,2.07141 ,20.32472 
201 ,38.0218 ,1.07415 ,2.05773 ,20.19040 
202 ,38.2295 ,1.07624 ,2.04404 ,20.05609 
203 ,38.4217 ,1.07824 ,2.03035 ,19.92178 
204 ,38.5975 ,1.08001 ,2.02350 ,19.85462 
205 ,38.7739 ,1.08180 ,2.02350 ,19.85462 
206 ,38.9816 ,1.08381 ,1.99270 ,19.55241 
207 ,39.1901 ,1.08591 ,1.98244 ,19.45168 
208 ,39.3982 ,1.08796 ,1.96875 ,19.31737 
209 ,39.5900 ,1.08989 ,1.94822 ,19.11590 
210 ,39.7659 ,1.09174 ,1.93453 ,18.98158 
211 ,39.9424 ,1.09346 ,1.91742 ,18.81369 
212 ,40.1342 ,1.09538 ,1.90715 ,18.71296 
213 ,40.3267 ,1.09728 ,1.88662 ,18.51149 
214 ,40.5342 ,1.09932 ,1.87635 ,18.41075 
215 ,40.7108 ,1.10114 ,1.86266 ,18.27644 
216 ,40.9027 ,1.10301 ,1.83871 ,18.04139 
217 ,41.0948 ,1.10499 ,1.83871 ,18.04139 
218 ,41.2867 ,1.10684 ,1.81133 ,17.77276 
219 ,41.4948 ,1.10894 ,1.81133 ,17.77276 
220 ,41.6706 ,1.11073 ,1.81133 ,17.77276 
221 ,41.8467 ,1.11245 ,1.77369 ,17.40340 
222 ,42.0390 ,1.11440 ,1.76342 ,17.30267 
223 ,42.2154 ,1.11617 ,1.75315 ,17.20193 
224 ,42.4072 ,1.11808 ,1.73946 ,17.06762 
225 ,42.5994 ,1.11997 ,1.72920 ,16.96689 
226 ,42.7756 ,1.12179 ,1.70524 ,16.73184 
227 ,42.9677 ,1.12357 ,1.69498 ,16.63110 
228 ,43.1591 ,1.12563 ,1.68813 ,16.56395 
229 ,43.3352 ,1.12738 ,1.67102 ,16.39605 
230 ,43.5276 ,1.12921 ,1.64022 ,16.09385 
231 ,43.7359 ,1.13133 ,1.64707 ,16.16101 
232 ,43.9279 ,1.13325 ,1.61969 ,15.89238 
233 ,44.1360 ,1.13532 ,1.61627 ,15.85880 
234 ,44.3441 ,1.13743 ,1.58889 ,15.59018 
235 ,44.5204 ,1.13923 ,1.58204 ,15.52302 
236 ,44.7123 ,1.14108 ,1.57178 ,15.42228 
237 ,44.9206 ,1.14316 ,1.55467 ,15.25439 
238 ,45.0961 ,1.14501 ,1.54782 ,15.18724 
239 ,45.2725 ,1.14673 ,1.53756 ,15.08650 
240 ,45.4647 ,1.14864 ,1.50676 ,14.78430 
241 ,45.6728 ,1.15068 ,1.51360 ,14.85145 
242 ,45.8488 ,1.15250 ,1.50333 ,14.75072 
243 ,46.0250 ,1.15428 ,1.46569 ,14.38136 
244 ,46.2171 ,1.15610 ,1.46569 ,14.38136 
245 ,46.3930 ,1.15794 ,1.45885 ,14.31420 
246 ,46.5852 ,1.15984 ,1.42805 ,14.01199 
247 ,46.7771 ,1.16172 ,1.43489 ,14.07915 
248 ,46.9692 ,1.16365 ,1.41094 ,13.84410 
249 ,47.1455 ,1.16543 ,1.38698 ,13.60906 
250 ,47.3374 ,1.16736 ,1.37671 ,13.50832 
251 ,47.5296 ,1.16932 ,1.38014 ,13.54190 
252 ,47.7053 ,1.17107 ,1.35960 ,13.34043 
253 ,47.8976 ,1.17291 ,1.34591 ,13.20612 
254 ,48.0738 ,1.17473 ,1.35276 ,13.27327 
255 ,48.2654 ,1.17661 ,1.31512 ,12.90391 
256 ,48.4579 ,1.17848 ,1.30827 ,12.83675 
257 ,48.6499 ,1.18042 ,1.29800 ,12.73602 
258 ,48.8422 ,1.18238 ,1.27063 ,12.46739 
259 ,49.0338 ,1.18431 ,1.27405 ,12.50097 
260 ,49.2104 ,1.18612 ,1.25694 ,12.33308 
261 ,49.3859 ,1.18789 ,1.24325 ,12.19877 
262 ,49.5625 ,1.18963 ,1.20561 ,11.82941 
263 ,49.7544 ,1.19154 ,1.21587 ,11.93014 
264 ,49.9465 ,1.19336 ,1.18507 ,11.62794 
265 ,50.1387 ,1.19527 ,1.17481 ,11.52720 
266 ,50.3307 ,1.19732 ,1.17481 ,11.52720 
267 ,50.5228 ,1.19913 ,1.15770 ,11.35931 
268 ,50.6989 ,1.20095 ,1.13716 ,11.15784 
269 ,50.8911 ,1.20282 ,1.14058 ,11.19142 
270 ,51.0670 ,1.20473 ,1.11321 ,10.92279 
271 ,51.2592 ,1.20649 ,1.09952 ,10.78848 
272 ,51.4672 ,1.20855 ,1.08925 ,10.68774 
273 ,51.6593 ,1.21054 ,1.07556 ,10.55343 
274 ,51.8514 ,1.21251 ,1.06187 ,10.41912 
275 ,52.0435 ,1.21433 ,1.04476 ,10.25123 
276 ,52.2197 ,1.21614 ,1.03108 ,10.11691 
277 ,52.4277 ,1.21812 ,1.02081 ,10.01618 
278 ,52.6193 ,1.22018 ,1.01739 ,9.98260 
279 ,52.7955 ,1.22194 ,0.99685 ,9.78113 
280 ,52.9719 ,1.22371 ,1.00028 ,9.81471 
281 ,53.1638 ,1.22560 ,0.97974 ,9.61324 
282 ,53.3401 ,1.22741 ,0.96263 ,9.44535 
283 ,53.5479 ,1.22938 ,0.95579 ,9.37819 
284 ,53.7242 ,1.23126 ,0.93868 ,9.21030 
285 ,53.9003 ,1.23300 ,0.91472 ,8.97525 
286 ,54.0919 ,1.23484 ,0.92499 ,9.07598 
287 ,54.2684 ,1.23665 ,0.91130 ,8.94167 
288 ,54.4766 ,1.23870 ,0.89761 ,8.80736 
289 ,54.6686 ,1.24058 ,0.89077 ,8.74020 
290 ,54.8447 ,1.24248 ,0.86339 ,8.47158 
291 ,55.0366 ,1.24432 ,0.84286 ,8.27011 
292 ,55.2126 ,1.24609 ,0.85997 ,8.43800 
293 ,55.4048 ,1.24800 ,0.84628 ,8.30368 
294 ,55.5807 ,1.24978 ,0.81548 ,8.00148 
295 ,55.7731 ,1.25171 ,0.82575 ,8.10221 
296 ,55.9649 ,1.25359 ,0.78810 ,7.73285 
297 ,56.1729 ,1.25566 ,0.79495 ,7.80001 
298 ,56.3650 ,1.25761 ,0.77441 ,7.59854 
299 ,56.5414 ,1.25940 ,0.76072 ,7.46423 
300 ,56.7330 ,1.26122 ,0.75388 ,7.39707 
301 ,56.9091 ,1.26306 ,0.74704 ,7.32991 
302 ,57.1014 ,1.26490 ,0.71624 ,7.02771 
303 ,57.2935 ,1.26688 ,0.71624 ,7.02771 
304 ,57.4856 ,1.26880 ,0.71624 ,7.02771 
305 ,57.6936 ,1.27077 ,0.68201 ,6.69193 
306 ,57.9015 ,1.27288 ,0.65464 ,6.42330 
307 ,58.0938 ,1.27485 ,0.67175 ,6.59119 
308 ,58.3018 ,1.27694 ,0.64095 ,6.28899 
309 ,58.4940 ,1.27886 ,0.65121 ,6.38972 
310 ,58.6857 ,1.28073 ,0.63068 ,6.18825 
311 ,58.8620 ,1.28259 ,0.62726 ,6.15467 
312 ,59.0540 ,1.28450 ,0.60330 ,5.91962 
313 ,59.2305 ,1.28623 ,0.59646 ,5.85247 
314 ,59.4227 ,1.28822 ,0.58277 ,5.71815 
315 ,59.6147 ,1.29005 ,0.56224 ,5.51668 
316 ,59.8064 ,1.29193 ,0.55882 ,5.48311 
317 ,59.9827 ,1.29378 ,0.54171 ,5.31522 
318 ,60.1908 ,1.29578 ,0.53486 ,5.24806 
319 ,60.3830 ,1.29781 ,0.50748 ,4.97943 
320 ,60.5909 ,1.29983 ,0.51775 ,5.08017 
321 ,60.7671 ,1.30160 ,0.50406 ,4.94585 
322 ,60.9588 ,1.30352 ,0.47668 ,4.67723 
323 ,61.1352 ,1.30529 ,0.46984 ,4.61007 
324 ,61.2951 ,1.30702 ,0.48011 ,4.71081 
325 ,61.4871 ,1.30877 ,0.44588 ,4.37502 
326 ,61.6792 ,1.31065 ,0.43904 ,4.30787 
327 ,61.8551 ,1.31246 ,0.42193 ,4.13997 
328 ,62.0311 ,1.31423 ,0.42877 ,4.20713 
329 ,62.1913 ,1.31598 ,0.41851 ,4.10640 
330 ,62.3676 ,1.31760 ,0.42193 ,4.13997 
331 ,62.5758 ,1.31961 ,0.40140 ,3.93850 
332 ,62.7519 ,1.32143 ,0.39797 ,3.90493 
333 ,62.9441 ,1.32340 ,0.36033 ,3.53557 
334 ,63.1200 ,1.32515 ,0.34664 ,3.40125 
335 ,63.2959 ,1.32689 ,0.34664 ,3.40125 
336 ,63.4722 ,1.32865 ,0.33980 ,3.33410 
337 ,63.6642 ,1.33053 ,0.32269 ,3.16620 
338 ,63.8404 ,1.33240 ,0.31584 ,3.09905 
339 ,64.0324 ,1.33429 ,0.31242 ,3.06547 
340 ,64.2246 ,1.33613 ,0.28847 ,2.83042 
341 ,64.4163 ,1.33804 ,0.29189 ,2.86400 
342 ,64.5927 ,1.33987 ,0.27478 ,2.69611 
343 ,64.8008 ,1.34183 ,0.26451 ,2.59537 
344 ,64.9929 ,1.34379 ,0.27135 ,2.66253 
345 ,65.2009 ,1.34586 ,0.23371 ,2.29317 
346 ,65.3768 ,1.34769 ,0.23029 ,2.25959 
347 ,65.5689 ,1.34967 ,0.22002 ,2.15885 
348 ,65.7453 ,1.35136 ,0.21318 ,2.09170 
349 ,65.9369 ,1.35325 ,0.19264 ,1.89023 
350 ,66.1130 ,1.35516 ,0.19949 ,1.95738 
351 ,66.2893 ,1.35682 ,0.18580 ,1.82307 
352 ,66.4814 ,1.35862 ,0.17211 ,1.68876 
353 ,66.6895 ,1.36077 ,0.16527 ,1.62160 
354 ,66.8974 ,1.36287 ,0.14131 ,1.38655 
355 ,67.0895 ,1.36472 ,0.14473 ,1.42013 
356 ,67.2816 ,1.36669 ,0.12078 ,1.18508 
357 ,67.4578 ,1.36853 ,0.11051 ,1.08435 
358 ,67.6336 ,1.37031 ,0.10367 ,1.01719 
359 ,67.8099 ,1.37206 ,0.10367 ,1.01719 
360 ,67.9859 ,1.37373 ,0.09340 ,0.91646 
361 ,68.1620 ,1.37554 ,0.07629 ,0.74857 
362 ,68.3378 ,1.37724 ,0.05234 ,0.51352 
363 ,68.5302 ,1.37917 ,0.06260 ,0.61425 
364 ,68.7061 ,1.38098 ,0.04207 ,0.41278 
365 ,68.8982 ,1.38287 ,0.02496 ,0.24489 
366 ,69.0903 ,1.38485 ,0.02496 ,0.24489 
367 ,69.2665 ,1.38657 ,0.01469 ,0.14416 
368 ,69.4586 ,1.38853 ,0.01127 ,0.11058 
369 ,69.6508 ,1.39044 ,0.00100 ,0.00984 
370 ,69.8425 ,1.39230 ,-0.01953 ,-0.19163 
371 ,70.0185 ,1.39414 ,-0.03322 ,-0.32594 
372 ,70.1950 ,1.39586 ,-0.04348 ,-0.42667 
373 ,70.3868 ,1.39769 ,-0.04691 ,-0.46025 
374 ,70.5631 ,1.39955 ,-0.06402 ,-0.62814 
375 ,70.7552 ,1.40147 ,-0.04691 ,-0.46025 
376 ,70.9311 ,1.40328 ,-0.07086 ,-0.69530 
377 ,71.1074 ,1.40495 ,-0.07428 ,-0.72888 
378 ,71.3314 ,1.40704 ,-0.07771 ,-0.76246 
379 ,71.5237 ,1.40914 ,-0.12219 ,-1.19898 
380 ,71.6995 ,1.41089 ,-0.11535 ,-1.13182 
381 ,71.8916 ,1.41278 ,-0.11877 ,-1.16540 
382 ,72.0837 ,1.41469 ,-0.13588 ,-1.33329 
383 ,72.2759 ,1.41666 ,-0.14615 ,-1.43402 
384 ,72.4677 ,1.41849 ,-0.14615 ,-1.43402 
385 ,72.6600 ,1.42040 ,-0.15642 ,-1.53476 
386 ,72.8520 ,1.42240 ,-0.17011 ,-1.66907 
387 ,73.0117 ,1.42412 ,-0.17353 ,-1.70265 
388 ,73.1882 ,1.42578 ,-0.17353 ,-1.70265 
389 ,73.3803 ,1.42772 ,-0.21117 ,-2.07201 
390 ,73.5723 ,1.42960 ,-0.20775 ,-2.03843 
391 ,73.7645 ,1.43147 ,-0.22828 ,-2.23990 
392 ,73.9406 ,1.43333 ,-0.24197 ,-2.37422 
393 ,74.1321 ,1.43515 ,-0.21802 ,-2.13917 
394 ,74.3086 ,1.43695 ,-0.24539 ,-2.40779 
395 ,74.5005 ,1.43887 ,-0.25566 ,-2.50853 
396 ,74.7247 ,1.44098 ,-0.26935 ,-2.64284 
397 ,74.9006 ,1.44288 ,-0.28988 ,-2.84431 
398 ,75.0768 ,1.44461 ,-0.29330 ,-2.87789 
399 ,75.2530 ,1.44642 ,-0.29330 ,-2.87789 
400 ,75.4292 ,1.44820 ,-0.28988 ,-2.84431 
401 ,75.6213 ,1.45006 ,-0.31384 ,-3.07936 
402 ,75.7971 ,1.45190 ,-0.33779 ,-3.31441 
403 ,76.0053 ,1.45387 ,-0.35490 ,-3.48230 
404 ,76.1815 ,1.45566 ,-0.34121 ,-3.34799 
405 ,76.3895 ,1.45759 ,-0.34121 ,-3.34799 
406 ,76.5973 ,1.45980 ,-0.35148 ,-3.44872 
407 ,76.7735 ,1.46162 ,-0.35832 ,-3.51588 
408 ,76.9657 ,1.46352 ,-0.37886 ,-3.71735 
409 ,77.1738 ,1.46544 ,-0.38228 ,-3.75093 
410 ,77.3658 ,1.46750 ,-0.39255 ,-3.85166 
411 ,77.5419 ,1.46926 ,-0.42677 ,-4.18744 
412 ,77.7500 ,1.47132 ,-0.41308 ,-4.05313 
413 ,77.9421 ,1.47333 ,-0.41992 ,-4.12029 
414 ,78.1342 ,1.47515 ,-0.42677 ,-4.18744 
415 ,78.3262 ,1.47709 ,-0.45072 ,-4.42249 
416 ,78.5023 ,1.47888 ,-0.46099 ,-4.52323 
417 ,78.6943 ,1.48085 ,-0.45072 ,-4.42249 
418 ,78.8706 ,1.48260 ,-0.47126 ,-4.62396 
419 ,79.0625 ,1.48443 ,-0.49179 ,-4.82543 
420 ,79.2387 ,1.48630 ,-0.49521 ,-4.85901 
421 ,79.4305 ,1.48819 ,-0.49521 ,-4.85901 
422 ,79.6229 ,1.49004 ,-0.50890 ,-4.99332 
423 ,79.8309 ,1.49213 ,-0.50206 ,-4.92617 
424 ,80.0070 ,1.49395 ,-0.52259 ,-5.12764 
425 ,80.1991 ,1.49577 ,-0.53628 ,-5.26195 
426 ,80.3912 ,1.49768 ,-0.53970 ,-5.29553 
427 ,80.5668 ,1.49959 ,-0.57050 ,-5.59773 
428 ,80.7593 ,1.50140 ,-0.56708 ,-5.56415 
429 ,80.9354 ,1.50321 ,-0.56708 ,-5.56415 
430 ,81.1435 ,1.50516 ,-0.58419 ,-5.73205 
431 ,81.3357 ,1.50719 ,-0.58077 ,-5.69847 
432 ,81.5275 ,1.50912 ,-0.58761 ,-5.76562 
433 ,81.7038 ,1.51086 ,-0.61499 ,-6.03425 
434 ,81.8956 ,1.51286 ,-0.62183 ,-6.10141 
435 ,82.1039 ,1.51472 ,-0.62868 ,-6.16856 
436 ,82.2959 ,1.51676 ,-0.62525 ,-6.13499 
437 ,82.5038 ,1.51883 ,-0.66290 ,-6.50435 
438 ,82.6799 ,1.52062 ,-0.65947 ,-6.47077 
439 ,82.8722 ,1.52258 ,-0.64236 ,-6.30288 
440 ,83.0802 ,1.52460 ,-0.67316 ,-6.60508 
441 ,83.2564 ,1.52640 ,-0.68001 ,-6.67224 
442 ,83.4644 ,1.52847 ,-0.70396 ,-6.90729 
443 ,83.6566 ,1.53033 ,-0.70739 ,-6.94086 
444 ,83.8486 ,1.53230 ,-0.72450 ,-7.10876 
445 ,84.0406 ,1.53412 ,-0.71765 ,-7.04160 
446 ,84.2488 ,1.53628 ,-0.72107 ,-7.07518 
447 ,84.4410 ,1.53828 ,-0.74503 ,-7.31023 
448 ,84.6331 ,1.54023 ,-0.74161 ,-7.27665 
449 ,84.8412 ,1.54224 ,-0.75872 ,-7.44454 
450 ,85.0332 ,1.54415 ,-0.75530 ,-7.41096 
451 ,85.2413 ,1.54623 ,-0.78952 ,-7.74674 
452 ,85.4171 ,1.54807 ,-0.76214 ,-7.47812 
453 ,85.6094 ,1.54982 ,-0.78267 ,-7.67959 
454 ,85.8173 ,1.55195 ,-0.80321 ,-7.88106 
455 ,85.9930 ,1.55384 ,-0.81347 ,-7.98179 
456 ,86.1696 ,1.55558 ,-0.81005 ,-7.94821 
457 ,86.3616 ,1.55740 ,-0.83401 ,-8.18326 
458 ,86.5537 ,1.55940 ,-0.82374 ,-8.08253 
459 ,86.7459 ,1.56128 ,-0.83401 ,-8.18326 
460 ,86.9379 ,1.56313 ,-0.84769 ,-8.31758 
461 ,87.0978 ,1.56493 ,-0.86138 ,-8.45189 
462 ,87.2741 ,1.56660 ,-0.86138 ,-8.45189 
463 ,87.4502 ,1.56832 ,-0.86823 ,-8.51904 
