Data stamp = , 24-04-2022 01:35:16 200

Calibration Values: 
Slope = , 26.54 , g/V 
Offset Voltage at no contact = , -0.501760 , V 

No , Time , Stage Position ,   Mass , Force 
   ,  (s) ,      (mm)      ,   (g)  , (mN)  

1 ,0.0000 ,0.69936 ,5.28483 ,51.85474 
2 ,0.2036 ,0.69944 ,5.29167 ,51.92190 
3 ,0.6524 ,0.70088 ,5.30194 ,52.02263 
4 ,0.8603 ,0.70278 ,5.29510 ,51.95548 
5 ,1.0523 ,0.70457 ,5.29510 ,51.95548 
6 ,1.2606 ,0.70662 ,5.30878 ,52.08979 
7 ,1.4363 ,0.70849 ,5.28825 ,51.88832 
8 ,1.6127 ,0.71027 ,5.28483 ,51.85474 
9 ,1.8047 ,0.71209 ,5.29510 ,51.95548 
10 ,1.9810 ,0.71397 ,5.27114 ,51.72043 
11 ,2.1885 ,0.71598 ,5.24718 ,51.48538 
12 ,2.3650 ,0.71779 ,5.23692 ,51.38464 
13 ,2.5732 ,0.71977 ,5.21639 ,51.18317 
14 ,2.7652 ,0.72180 ,5.18559 ,50.88097 
15 ,2.9572 ,0.72366 ,5.17190 ,50.74666 
16 ,3.1333 ,0.72553 ,5.15479 ,50.57876 
17 ,3.2930 ,0.72717 ,5.14110 ,50.44445 
18 ,3.4690 ,0.72881 ,5.13083 ,50.34372 
19 ,3.6455 ,0.73057 ,5.11714 ,50.20940 
20 ,3.8215 ,0.73236 ,5.10345 ,50.07509 
21 ,4.0296 ,0.73440 ,5.06923 ,49.73931 
22 ,4.2058 ,0.73618 ,5.05212 ,49.57142 
23 ,4.3977 ,0.73802 ,5.04185 ,49.47068 
24 ,4.5741 ,0.73987 ,5.01790 ,49.23563 
25 ,4.7661 ,0.74178 ,5.01106 ,49.16848 
26 ,4.9580 ,0.74367 ,5.00079 ,49.06774 
27 ,5.1502 ,0.74554 ,4.95972 ,48.66480 
28 ,5.3422 ,0.74748 ,4.95630 ,48.63122 
29 ,5.5182 ,0.74924 ,4.92892 ,48.36260 
30 ,5.7104 ,0.75124 ,4.90497 ,48.12755 
31 ,5.9026 ,0.75313 ,4.90155 ,48.09397 
32 ,6.1103 ,0.75513 ,4.86390 ,47.72461 
33 ,6.2866 ,0.75707 ,4.86048 ,47.69103 
34 ,6.4784 ,0.75883 ,4.84337 ,47.52314 
35 ,6.6708 ,0.76080 ,4.79888 ,47.08662 
36 ,6.8463 ,0.76258 ,4.79888 ,47.08662 
37 ,7.0389 ,0.76447 ,4.78519 ,46.95231 
38 ,7.2150 ,0.76640 ,4.75439 ,46.65010 
39 ,7.3911 ,0.76803 ,4.73044 ,46.41506 
40 ,7.5669 ,0.76978 ,4.72359 ,46.34790 
41 ,7.7433 ,0.77157 ,4.70990 ,46.21359 
42 ,7.9350 ,0.77347 ,4.70306 ,46.14643 
43 ,8.1113 ,0.77523 ,4.66542 ,45.77707 
44 ,8.3193 ,0.77724 ,4.66199 ,45.74349 
45 ,8.4955 ,0.77914 ,4.62093 ,45.34055 
46 ,8.6872 ,0.78100 ,4.61066 ,45.23981 
47 ,8.8797 ,0.78284 ,4.60724 ,45.20624 
48 ,9.0717 ,0.78486 ,4.59013 ,45.03835 
49 ,9.2477 ,0.78656 ,4.56960 ,44.83688 
50 ,9.4238 ,0.78833 ,4.54906 ,44.63541 
51 ,9.6318 ,0.79027 ,4.54906 ,44.63541 
52 ,9.8238 ,0.79234 ,4.51484 ,44.29962 
53 ,10.0322 ,0.79435 ,4.49089 ,44.06457 
54 ,10.2241 ,0.79635 ,4.46693 ,43.82953 
55 ,10.4003 ,0.79810 ,4.46351 ,43.79595 
56 ,10.5923 ,0.79999 ,4.43613 ,43.52732 
57 ,10.7846 ,0.80185 ,4.40875 ,43.25870 
58 ,10.9766 ,0.80384 ,4.42244 ,43.39301 
59 ,11.1844 ,0.80588 ,4.38480 ,43.02365 
60 ,11.3607 ,0.80766 ,4.37795 ,42.95649 
61 ,11.5367 ,0.80947 ,4.35058 ,42.68786 
62 ,11.7127 ,0.81125 ,4.34031 ,42.58713 
63 ,11.9046 ,0.81305 ,4.31293 ,42.31850 
64 ,12.0966 ,0.81502 ,4.29582 ,42.15061 
65 ,12.2732 ,0.81689 ,4.28556 ,42.04988 
66 ,12.4489 ,0.81859 ,4.26160 ,41.81483 
67 ,12.6409 ,0.82041 ,4.25476 ,41.74767 
68 ,12.8171 ,0.82227 ,4.24107 ,41.61336 
69 ,12.9930 ,0.82404 ,4.22053 ,41.41189 
70 ,13.1693 ,0.82584 ,4.19316 ,41.14326 
71 ,13.3617 ,0.82775 ,4.18289 ,41.04253 
72 ,13.5373 ,0.82951 ,4.16578 ,40.87464 
73 ,13.7135 ,0.83123 ,4.14867 ,40.70674 
74 ,13.9378 ,0.83330 ,4.13840 ,40.60601 
75 ,14.1138 ,0.83524 ,4.11103 ,40.33738 
76 ,14.2900 ,0.83700 ,4.08365 ,40.06876 
77 ,14.4976 ,0.83900 ,4.08365 ,40.06876 
78 ,14.6741 ,0.84083 ,4.08023 ,40.03518 
79 ,14.8502 ,0.84260 ,4.03916 ,39.63224 
80 ,15.0422 ,0.84455 ,4.03574 ,39.59866 
81 ,15.2182 ,0.84633 ,4.01520 ,39.39719 
82 ,15.3946 ,0.84805 ,4.00152 ,39.26288 
83 ,15.5866 ,0.84994 ,3.96729 ,38.92709 
84 ,15.7785 ,0.85185 ,3.96045 ,38.85994 
85 ,15.9548 ,0.85363 ,3.93992 ,38.65847 
86 ,16.1786 ,0.85579 ,3.91596 ,38.42342 
87 ,16.3711 ,0.85777 ,3.90912 ,38.35626 
88 ,16.5468 ,0.85955 ,3.88516 ,38.12122 
89 ,16.7550 ,0.86158 ,3.87147 ,37.98690 
90 ,16.9472 ,0.86350 ,3.83725 ,37.65112 
91 ,17.1392 ,0.86554 ,3.83383 ,37.61754 
92 ,17.3313 ,0.86735 ,3.80645 ,37.34891 
93 ,17.5394 ,0.86940 ,3.81330 ,37.41607 
94 ,17.7315 ,0.87130 ,3.77223 ,37.01313 
95 ,17.9235 ,0.87328 ,3.76539 ,36.94597 
96 ,18.1311 ,0.87531 ,3.73117 ,36.61019 
97 ,18.3075 ,0.87714 ,3.71748 ,36.47588 
98 ,18.5159 ,0.87918 ,3.72090 ,36.50946 
99 ,18.7237 ,0.88131 ,3.67641 ,36.07294 
100 ,18.9478 ,0.88350 ,3.66272 ,35.93863 
101 ,19.1239 ,0.88532 ,3.63534 ,35.67000 
102 ,19.3160 ,0.88717 ,3.62508 ,35.56926 
103 ,19.4918 ,0.88899 ,3.62166 ,35.53569 
104 ,19.6680 ,0.89076 ,3.59086 ,35.23348 
105 ,19.8603 ,0.89267 ,3.57032 ,35.03201 
106 ,20.0524 ,0.89455 ,3.55663 ,34.89770 
107 ,20.2604 ,0.89659 ,3.54979 ,34.83054 
108 ,20.4525 ,0.89860 ,3.53952 ,34.72981 
109 ,20.6446 ,0.90045 ,3.49161 ,34.25971 
110 ,20.8528 ,0.90255 ,3.50188 ,34.36045 
111 ,21.0447 ,0.90446 ,3.48135 ,34.15898 
112 ,21.2211 ,0.90624 ,3.47108 ,34.05824 
113 ,21.4285 ,0.90826 ,3.44713 ,33.82319 
114 ,21.6047 ,0.91013 ,3.41975 ,33.55457 
115 ,21.7810 ,0.91188 ,3.40264 ,33.38667 
116 ,21.9734 ,0.91377 ,3.40606 ,33.42025 
117 ,22.1652 ,0.91580 ,3.37868 ,33.15163 
118 ,22.3413 ,0.91747 ,3.35815 ,32.95016 
119 ,22.5173 ,0.91928 ,3.34788 ,32.84942 
120 ,22.6930 ,0.92100 ,3.33419 ,32.71511 
121 ,22.8697 ,0.92279 ,3.32051 ,32.58080 
122 ,23.0775 ,0.92476 ,3.30339 ,32.41290 
123 ,23.2537 ,0.92661 ,3.29313 ,32.31217 
124 ,23.4453 ,0.92858 ,3.25891 ,31.97639 
125 ,23.6218 ,0.93026 ,3.23153 ,31.70776 
126 ,23.8138 ,0.93221 ,3.25548 ,31.94281 
127 ,24.0058 ,0.93419 ,3.22126 ,31.60702 
128 ,24.1820 ,0.93585 ,3.20415 ,31.43913 
129 ,24.3579 ,0.93763 ,3.18362 ,31.23766 
130 ,24.5340 ,0.93944 ,3.16651 ,31.06977 
131 ,24.7263 ,0.94128 ,3.13913 ,30.80115 
132 ,24.9019 ,0.94317 ,3.15624 ,30.96904 
133 ,25.0782 ,0.94482 ,3.13229 ,30.73399 
134 ,25.2705 ,0.94683 ,3.10833 ,30.49894 
135 ,25.4462 ,0.94852 ,3.08780 ,30.29747 
136 ,25.6384 ,0.95033 ,3.06384 ,30.06242 
137 ,25.8307 ,0.95235 ,3.06726 ,30.09600 
138 ,26.0068 ,0.95417 ,3.03989 ,29.82737 
139 ,26.1828 ,0.95598 ,3.02620 ,29.69306 
140 ,26.3590 ,0.95764 ,3.00567 ,29.49159 
141 ,26.5511 ,0.95952 ,2.99198 ,29.35728 
142 ,26.7432 ,0.96151 ,2.96460 ,29.08865 
143 ,26.9352 ,0.96337 ,2.97487 ,29.18939 
144 ,27.1431 ,0.96531 ,2.93380 ,28.78645 
145 ,27.3354 ,0.96741 ,2.93038 ,28.75287 
146 ,27.5113 ,0.96917 ,2.92696 ,28.71929 
147 ,27.6874 ,0.97091 ,2.88247 ,28.28277 
148 ,27.8633 ,0.97269 ,2.87220 ,28.18204 
149 ,28.0712 ,0.97473 ,2.86878 ,28.14846 
150 ,28.2471 ,0.97653 ,2.84140 ,27.87983 
151 ,28.4237 ,0.97827 ,2.82429 ,27.71194 
152 ,28.6478 ,0.98051 ,2.81402 ,27.61121 
153 ,28.8559 ,0.98252 ,2.80718 ,27.54405 
154 ,29.0321 ,0.98436 ,2.77980 ,27.27542 
155 ,29.1921 ,0.98607 ,2.76269 ,27.10753 
156 ,29.3682 ,0.98771 ,2.75585 ,27.04038 
157 ,29.5438 ,0.98952 ,2.74216 ,26.90606 
158 ,29.7203 ,0.99128 ,2.71820 ,26.67101 
159 ,29.9122 ,0.99312 ,2.72163 ,26.70459 
160 ,30.1364 ,0.99520 ,2.69425 ,26.43597 
161 ,30.3123 ,0.99717 ,2.69083 ,26.40239 
162 ,30.5046 ,0.99914 ,2.66687 ,26.16734 
163 ,30.6806 ,1.00080 ,2.63949 ,25.89871 
164 ,30.8887 ,1.00287 ,2.64292 ,25.93229 
165 ,31.0648 ,1.00464 ,2.61554 ,25.66367 
166 ,31.2565 ,1.00656 ,2.60527 ,25.56293 
167 ,31.4488 ,1.00845 ,2.59501 ,25.46220 
168 ,31.6409 ,1.01044 ,2.55394 ,25.05926 
169 ,31.8489 ,1.01249 ,2.54367 ,24.95852 
170 ,32.0413 ,1.01449 ,2.51630 ,24.68989 
171 ,32.2331 ,1.01628 ,2.53341 ,24.85779 
172 ,32.4253 ,1.01835 ,2.49576 ,24.48842 
173 ,32.6013 ,1.02009 ,2.47865 ,24.32053 
174 ,32.7931 ,1.02197 ,2.48207 ,24.35411 
175 ,32.9697 ,1.02370 ,2.46496 ,24.18622 
176 ,33.1613 ,1.02561 ,2.44443 ,23.98475 
177 ,33.3534 ,1.02749 ,2.44443 ,23.98475 
178 ,33.5298 ,1.02933 ,2.43074 ,23.85044 
179 ,33.7378 ,1.03129 ,2.37941 ,23.34676 
180 ,33.9141 ,1.03314 ,2.38283 ,23.38034 
181 ,34.0900 ,1.03492 ,2.38283 ,23.38034 
182 ,34.2663 ,1.03669 ,2.34519 ,23.01098 
183 ,34.4578 ,1.03855 ,2.34519 ,23.01098 
184 ,34.6504 ,1.04043 ,2.32465 ,22.80951 
185 ,34.8424 ,1.04237 ,2.30070 ,22.57446 
186 ,35.0505 ,1.04446 ,2.29043 ,22.47373 
187 ,35.2266 ,1.04626 ,2.28359 ,22.40657 
188 ,35.4186 ,1.04814 ,2.26306 ,22.20510 
189 ,35.6424 ,1.05029 ,2.25963 ,22.17152 
190 ,35.8348 ,1.05231 ,2.23910 ,21.97005 
191 ,36.0267 ,1.05419 ,2.20488 ,21.63427 
192 ,36.2029 ,1.05604 ,2.19461 ,21.53353 
193 ,36.3951 ,1.05791 ,2.19461 ,21.53353 
194 ,36.5870 ,1.05986 ,2.18092 ,21.39922 
195 ,36.7791 ,1.06170 ,2.16723 ,21.26491 
196 ,36.9870 ,1.06386 ,2.14670 ,21.06344 
197 ,37.1953 ,1.06588 ,2.13301 ,20.92912 
198 ,37.3873 ,1.06781 ,2.10221 ,20.62692 
199 ,37.5795 ,1.06971 ,2.10221 ,20.62692 
200 ,37.7714 ,1.07162 ,2.09195 ,20.52619 
201 ,37.9474 ,1.07346 ,2.06457 ,20.25756 
202 ,38.1396 ,1.07531 ,2.04746 ,20.08967 
203 ,38.3317 ,1.07724 ,2.04061 ,20.02251 
204 ,38.5075 ,1.07904 ,2.04404 ,20.05609 
205 ,38.6840 ,1.08085 ,2.00982 ,19.72031 
206 ,38.8763 ,1.08270 ,2.00639 ,19.68673 
207 ,39.0522 ,1.08455 ,1.97902 ,19.41810 
208 ,39.2602 ,1.08654 ,1.96190 ,19.25021 
209 ,39.4683 ,1.08862 ,1.94822 ,19.11590 
210 ,39.6603 ,1.09063 ,1.95164 ,19.14948 
211 ,39.8359 ,1.09248 ,1.94137 ,19.04874 
212 ,40.0122 ,1.09414 ,1.92084 ,18.84727 
213 ,40.2045 ,1.09599 ,1.88319 ,18.47791 
214 ,40.3967 ,1.09789 ,1.89346 ,18.57864 
215 ,40.5887 ,1.09977 ,1.87293 ,18.37717 
216 ,40.7805 ,1.10177 ,1.84555 ,18.10855 
217 ,40.9569 ,1.10353 ,1.83528 ,18.00781 
218 ,41.1489 ,1.10535 ,1.83871 ,18.04139 
219 ,41.3250 ,1.10728 ,1.82502 ,17.90708 
220 ,41.5173 ,1.10910 ,1.81133 ,17.77276 
221 ,41.6932 ,1.11093 ,1.78737 ,17.53772 
222 ,41.8532 ,1.11264 ,1.78395 ,17.50414 
223 ,42.0290 ,1.11435 ,1.75315 ,17.20193 
224 ,42.2053 ,1.11602 ,1.75657 ,17.23551 
225 ,42.3973 ,1.11787 ,1.72920 ,16.96689 
226 ,42.5738 ,1.11971 ,1.72578 ,16.93331 
227 ,42.7496 ,1.12150 ,1.71551 ,16.83257 
228 ,42.9576 ,1.12347 ,1.69155 ,16.59752 
229 ,43.1497 ,1.12551 ,1.68129 ,16.49679 
230 ,43.3418 ,1.12738 ,1.65733 ,16.26174 
231 ,43.5177 ,1.12917 ,1.65391 ,16.22816 
232 ,43.6936 ,1.13096 ,1.64022 ,16.09385 
233 ,43.8537 ,1.13267 ,1.62311 ,15.92596 
234 ,44.0138 ,1.13424 ,1.62995 ,15.99311 
235 ,44.1899 ,1.13584 ,1.61627 ,15.85880 
236 ,44.3823 ,1.13770 ,1.58547 ,15.55660 
237 ,44.5741 ,1.13966 ,1.58547 ,15.55660 
238 ,44.7504 ,1.14150 ,1.57862 ,15.48944 
239 ,44.9424 ,1.14331 ,1.56151 ,15.32155 
240 ,45.1346 ,1.14525 ,1.54782 ,15.18724 
241 ,45.3266 ,1.14721 ,1.53071 ,15.01934 
242 ,45.5347 ,1.14921 ,1.52045 ,14.91861 
243 ,45.7107 ,1.15109 ,1.51360 ,14.85145 
244 ,45.8868 ,1.15288 ,1.47253 ,14.44851 
245 ,46.0630 ,1.15457 ,1.46227 ,14.34778 
246 ,46.2546 ,1.15647 ,1.45542 ,14.28062 
247 ,46.4469 ,1.15838 ,1.45542 ,14.28062 
248 ,46.6553 ,1.16051 ,1.43147 ,14.04557 
249 ,46.8472 ,1.16246 ,1.42462 ,13.97842 
250 ,47.0390 ,1.16428 ,1.39725 ,13.70979 
251 ,47.2153 ,1.16612 ,1.38014 ,13.54190 
252 ,47.3913 ,1.16787 ,1.38356 ,13.57548 
253 ,47.5672 ,1.16964 ,1.37671 ,13.50832 
254 ,47.7597 ,1.17145 ,1.35276 ,13.27327 
255 ,47.9518 ,1.17349 ,1.35618 ,13.30685 
256 ,48.1599 ,1.17556 ,1.31169 ,12.87033 
257 ,48.3520 ,1.17752 ,1.31854 ,12.93749 
258 ,48.5441 ,1.17937 ,1.29800 ,12.73602 
259 ,48.7361 ,1.18135 ,1.28774 ,12.63528 
260 ,49.0398 ,1.18387 ,1.28089 ,12.56813 
261 ,49.2320 ,1.18616 ,1.24325 ,12.19877 
262 ,49.4243 ,1.18821 ,1.24667 ,12.23235 
263 ,49.6003 ,1.18999 ,1.21587 ,11.93014 
264 ,49.7924 ,1.19187 ,1.21929 ,11.96372 
265 ,49.9842 ,1.19380 ,1.20903 ,11.86298 
266 ,50.1606 ,1.19552 ,1.18165 ,11.59436 
267 ,50.3367 ,1.19732 ,1.17481 ,11.52720 
268 ,50.5127 ,1.19915 ,1.16454 ,11.42647 
269 ,50.6889 ,1.20081 ,1.16112 ,11.39289 
270 ,50.8809 ,1.20280 ,1.14058 ,11.19142 
271 ,51.0571 ,1.20451 ,1.11321 ,10.92279 
272 ,51.2326 ,1.20636 ,1.12347 ,11.02353 
273 ,51.4252 ,1.20817 ,1.09610 ,10.75490 
274 ,51.6169 ,1.21009 ,1.07214 ,10.51985 
275 ,51.8093 ,1.21203 ,1.08241 ,10.62059 
276 ,52.0173 ,1.21406 ,1.04819 ,10.28480 
277 ,52.2253 ,1.21613 ,1.04819 ,10.28480 
278 ,52.4016 ,1.21801 ,1.04819 ,10.28480 
279 ,52.5937 ,1.21983 ,1.02765 ,10.08333 
280 ,52.7857 ,1.22172 ,1.01396 ,9.94902 
281 ,52.9777 ,1.22371 ,0.97974 ,9.61324 
282 ,53.1536 ,1.22547 ,0.98659 ,9.68039 
283 ,53.3300 ,1.22726 ,0.98317 ,9.64682 
284 ,53.5380 ,1.22929 ,0.96263 ,9.44535 
285 ,53.7300 ,1.23118 ,0.94552 ,9.27745 
286 ,53.9220 ,1.23308 ,0.94894 ,9.31103 
287 ,54.1145 ,1.23506 ,0.91472 ,8.97525 
288 ,54.2903 ,1.23684 ,0.91814 ,9.00883 
289 ,54.4663 ,1.23867 ,0.89077 ,8.74020 
290 ,54.6425 ,1.24038 ,0.89077 ,8.74020 
291 ,54.8185 ,1.24213 ,0.88050 ,8.63947 
292 ,55.0105 ,1.24402 ,0.85997 ,8.43800 
293 ,55.2027 ,1.24593 ,0.85997 ,8.43800 
294 ,55.3947 ,1.24786 ,0.84970 ,8.33726 
295 ,55.5869 ,1.24977 ,0.83259 ,8.16937 
296 ,55.7629 ,1.25156 ,0.82917 ,8.13579 
297 ,55.9388 ,1.25329 ,0.79495 ,7.80001 
298 ,56.1310 ,1.25523 ,0.79495 ,7.80001 
299 ,56.3231 ,1.25713 ,0.78810 ,7.73285 
300 ,56.4992 ,1.25891 ,0.76757 ,7.53138 
301 ,56.6914 ,1.26080 ,0.75730 ,7.43065 
302 ,56.8994 ,1.26284 ,0.72992 ,7.16202 
303 ,57.0750 ,1.26465 ,0.73335 ,7.19560 
304 ,57.2514 ,1.26644 ,0.71281 ,6.99413 
305 ,57.4437 ,1.26841 ,0.72650 ,7.12844 
306 ,57.6354 ,1.27020 ,0.68886 ,6.75908 
307 ,57.8119 ,1.27207 ,0.68544 ,6.72550 
308 ,57.9878 ,1.27376 ,0.69228 ,6.79266 
309 ,58.1636 ,1.27558 ,0.66490 ,6.52403 
310 ,58.3401 ,1.27737 ,0.66490 ,6.52403 
311 ,58.5321 ,1.27925 ,0.63068 ,6.18825 
312 ,58.7242 ,1.28108 ,0.63753 ,6.25541 
313 ,58.9163 ,1.28306 ,0.61357 ,6.02036 
314 ,59.1082 ,1.28497 ,0.61357 ,6.02036 
315 ,59.2845 ,1.28682 ,0.58277 ,5.71815 
316 ,59.4605 ,1.28851 ,0.59304 ,5.81889 
317 ,59.6524 ,1.29040 ,0.56566 ,5.55026 
318 ,59.8607 ,1.29236 ,0.57251 ,5.61742 
319 ,60.0527 ,1.29435 ,0.55197 ,5.41595 
320 ,60.2444 ,1.29629 ,0.54513 ,5.34879 
321 ,60.4206 ,1.29814 ,0.53828 ,5.28164 
322 ,60.6289 ,1.30013 ,0.52459 ,5.14732 
323 ,60.8209 ,1.30206 ,0.49722 ,4.87870 
324 ,61.0130 ,1.30400 ,0.49037 ,4.81154 
325 ,61.1889 ,1.30582 ,0.48695 ,4.77796 
326 ,61.3648 ,1.30762 ,0.48353 ,4.74438 
327 ,61.5413 ,1.30935 ,0.47326 ,4.64365 
328 ,61.7174 ,1.31109 ,0.45615 ,4.47576 
329 ,61.9094 ,1.31297 ,0.44931 ,4.40860 
330 ,62.0851 ,1.31474 ,0.44588 ,4.37502 
331 ,62.2617 ,1.31652 ,0.43220 ,4.24071 
332 ,62.4534 ,1.31842 ,0.40482 ,3.97208 
333 ,62.6296 ,1.32018 ,0.40140 ,3.93850 
334 ,62.8376 ,1.32216 ,0.39797 ,3.90493 
335 ,62.9978 ,1.32400 ,0.37744 ,3.70346 
336 ,63.1900 ,1.32572 ,0.37402 ,3.66988 
337 ,63.3661 ,1.32757 ,0.37402 ,3.66988 
338 ,63.5581 ,1.32955 ,0.34322 ,3.36767 
339 ,63.7502 ,1.33132 ,0.33638 ,3.30052 
340 ,63.9262 ,1.33314 ,0.33295 ,3.26694 
341 ,64.1181 ,1.33499 ,0.30900 ,3.03189 
342 ,64.3105 ,1.33699 ,0.30558 ,2.99831 
343 ,64.5026 ,1.33884 ,0.31242 ,3.06547 
344 ,64.6946 ,1.34078 ,0.27135 ,2.66253 
345 ,64.8863 ,1.34280 ,0.27820 ,2.72969 
346 ,65.0628 ,1.34449 ,0.27820 ,2.72969 
347 ,65.2549 ,1.34636 ,0.24055 ,2.36032 
348 ,65.4469 ,1.34831 ,0.25424 ,2.49464 
349 ,65.6225 ,1.35025 ,0.24740 ,2.42748 
350 ,65.7989 ,1.35193 ,0.22687 ,2.22601 
351 ,65.9911 ,1.35382 ,0.21318 ,2.09170 
352 ,66.1672 ,1.35556 ,0.22002 ,2.15885 
353 ,66.3753 ,1.35758 ,0.18238 ,1.78949 
354 ,66.5513 ,1.35943 ,0.17211 ,1.68876 
355 ,66.7434 ,1.36140 ,0.17553 ,1.72234 
356 ,66.9031 ,1.36302 ,0.16869 ,1.65518 
357 ,67.0798 ,1.36468 ,0.16185 ,1.58802 
358 ,67.2718 ,1.36662 ,0.12420 ,1.21866 
359 ,67.4477 ,1.36841 ,0.14131 ,1.38655 
360 ,67.6238 ,1.37013 ,0.12762 ,1.25224 
361 ,67.8159 ,1.37200 ,0.10709 ,1.05077 
362 ,68.0080 ,1.37394 ,0.10709 ,1.05077 
363 ,68.2000 ,1.37579 ,0.08998 ,0.88288 
364 ,68.3763 ,1.37765 ,0.07629 ,0.74857 
365 ,68.5682 ,1.37949 ,0.07629 ,0.74857 
366 ,68.7603 ,1.38150 ,0.06602 ,0.64783 
367 ,68.9523 ,1.38338 ,0.04549 ,0.44636 
368 ,69.1604 ,1.38544 ,0.05234 ,0.51352 
369 ,69.3365 ,1.38723 ,0.03180 ,0.31205 
370 ,69.5285 ,1.38908 ,0.01811 ,0.17773 
371 ,69.7047 ,1.39092 ,0.01811 ,0.17773 
372 ,69.8803 ,1.39265 ,0.02838 ,0.27847 
373 ,70.0888 ,1.39478 ,-0.01953 ,-0.19163 
374 ,70.2809 ,1.39669 ,-0.00926 ,-0.09089 
375 ,70.4567 ,1.39848 ,-0.05375 ,-0.52741 
376 ,70.6332 ,1.40022 ,-0.05375 ,-0.52741 
377 ,70.8409 ,1.40211 ,-0.04006 ,-0.39310 
378 ,71.0330 ,1.40411 ,-0.06060 ,-0.59457 
379 ,71.2091 ,1.40594 ,-0.08455 ,-0.82961 
380 ,71.4012 ,1.40793 ,-0.07771 ,-0.76246 
381 ,71.5933 ,1.40973 ,-0.09482 ,-0.93035 
382 ,71.7856 ,1.41174 ,-0.09482 ,-0.93035 
383 ,71.9616 ,1.41352 ,-0.07771 ,-0.76246 
384 ,72.1537 ,1.41536 ,-0.12219 ,-1.19898 
385 ,72.3458 ,1.41728 ,-0.12904 ,-1.26613 
386 ,72.5375 ,1.41918 ,-0.13246 ,-1.29971 
387 ,72.7139 ,1.42099 ,-0.14615 ,-1.43402 
388 ,72.9219 ,1.42294 ,-0.15984 ,-1.56834 
389 ,73.0979 ,1.42482 ,-0.16326 ,-1.60191 
390 ,73.3063 ,1.42685 ,-0.17353 ,-1.70265 
391 ,73.4981 ,1.42881 ,-0.18379 ,-1.80338 
392 ,73.6744 ,1.43062 ,-0.19748 ,-1.93770 
393 ,73.8665 ,1.43254 ,-0.20090 ,-1.97128 
394 ,74.0583 ,1.43435 ,-0.21802 ,-2.13917 
395 ,74.2341 ,1.43620 ,-0.22486 ,-2.20632 
396 ,74.4104 ,1.43800 ,-0.24197 ,-2.37422 
397 ,74.6027 ,1.43989 ,-0.22828 ,-2.23990 
398 ,74.7948 ,1.44177 ,-0.24539 ,-2.40779 
399 ,74.9869 ,1.44375 ,-0.26250 ,-2.57569 
400 ,75.1790 ,1.44563 ,-0.27277 ,-2.67642 
401 ,75.3550 ,1.44737 ,-0.27277 ,-2.67642 
402 ,75.5151 ,1.44910 ,-0.30357 ,-2.97863 
403 ,75.6912 ,1.45079 ,-0.31041 ,-3.04578 
404 ,75.8829 ,1.45266 ,-0.30015 ,-2.94505 
405 ,76.1071 ,1.45477 ,-0.32410 ,-3.18010 
406 ,76.3154 ,1.45693 ,-0.32068 ,-3.14652 
407 ,76.5073 ,1.45882 ,-0.35148 ,-3.44872 
408 ,76.6995 ,1.46089 ,-0.33779 ,-3.31441 
409 ,76.8917 ,1.46267 ,-0.36175 ,-3.54946 
410 ,77.0838 ,1.46471 ,-0.35832 ,-3.51588 
411 ,77.2760 ,1.46653 ,-0.36517 ,-3.58303 
412 ,77.4514 ,1.46839 ,-0.37544 ,-3.68377 
413 ,77.6278 ,1.47016 ,-0.39597 ,-3.88524 
414 ,77.8200 ,1.47207 ,-0.39597 ,-3.88524 
415 ,77.9962 ,1.47381 ,-0.39597 ,-3.88524 
416 ,78.1881 ,1.47567 ,-0.42335 ,-4.15387 
417 ,78.3642 ,1.47747 ,-0.43703 ,-4.28818 
418 ,78.5238 ,1.47920 ,-0.42677 ,-4.18744 
419 ,78.7003 ,1.48086 ,-0.43019 ,-4.22102 
420 ,78.8767 ,1.48261 ,-0.45414 ,-4.45607 
421 ,79.0684 ,1.48449 ,-0.46783 ,-4.59038 
422 ,79.2607 ,1.48643 ,-0.46783 ,-4.59038 
423 ,79.4528 ,1.48840 ,-0.47126 ,-4.62396 
424 ,79.6607 ,1.49037 ,-0.49179 ,-4.82543 
425 ,79.8365 ,1.49217 ,-0.47810 ,-4.69112 
426 ,80.0289 ,1.49402 ,-0.51232 ,-5.02690 
427 ,80.2210 ,1.49605 ,-0.50206 ,-4.92617 
428 ,80.3967 ,1.49778 ,-0.51574 ,-5.06048 
429 ,80.5731 ,1.49955 ,-0.52601 ,-5.16121 
430 ,80.7652 ,1.50152 ,-0.54312 ,-5.32911 
431 ,80.9734 ,1.50348 ,-0.56365 ,-5.53058 
432 ,81.1652 ,1.50545 ,-0.55681 ,-5.46342 
433 ,81.3414 ,1.50727 ,-0.57734 ,-5.66489 
434 ,81.5335 ,1.50905 ,-0.57734 ,-5.66489 
435 ,81.7414 ,1.51118 ,-0.59103 ,-5.79920 
436 ,81.9336 ,1.51312 ,-0.59103 ,-5.79920 
437 ,82.1096 ,1.51490 ,-0.60130 ,-5.89994 
438 ,82.2858 ,1.51670 ,-0.61841 ,-6.06783 
439 ,82.4776 ,1.51860 ,-0.61841 ,-6.06783 
440 ,82.6858 ,1.52051 ,-0.63552 ,-6.23572 
441 ,82.8458 ,1.52239 ,-0.64921 ,-6.37003 
442 ,83.0221 ,1.52408 ,-0.64579 ,-6.33646 
443 ,83.2141 ,1.52597 ,-0.65947 ,-6.47077 
444 ,83.4060 ,1.52791 ,-0.68001 ,-6.67224 
445 ,83.5821 ,1.52962 ,-0.68001 ,-6.67224 
446 ,83.7745 ,1.53147 ,-0.67316 ,-6.60508 
447 ,83.9661 ,1.53342 ,-0.70739 ,-6.94086 
448 ,84.1587 ,1.53530 ,-0.69370 ,-6.80655 
449 ,84.3668 ,1.53749 ,-0.71423 ,-7.00802 
450 ,84.5428 ,1.53927 ,-0.73134 ,-7.17591 
451 ,84.7347 ,1.54110 ,-0.73134 ,-7.17591 
452 ,84.9266 ,1.54306 ,-0.75187 ,-7.37738 
453 ,85.1027 ,1.54485 ,-0.73476 ,-7.20949 
454 ,85.3270 ,1.54692 ,-0.73818 ,-7.24307 
455 ,85.5027 ,1.54883 ,-0.77241 ,-7.57885 
456 ,85.6632 ,1.55055 ,-0.75872 ,-7.44454 
457 ,85.8393 ,1.55222 ,-0.76898 ,-7.54527 
458 ,86.0310 ,1.55409 ,-0.78267 ,-7.67959 
459 ,86.2074 ,1.55588 ,-0.79978 ,-7.84748 
460 ,86.3995 ,1.55772 ,-0.80663 ,-7.91464 
461 ,86.5758 ,1.55956 ,-0.79978 ,-7.84748 
462 ,86.7518 ,1.56136 ,-0.80663 ,-7.91464 
463 ,86.9438 ,1.56324 ,-0.84769 ,-8.31758 
