Data stamp = , 24-04-2022 23:55:39 336

Calibration Values: 
Slope = , 26.54 , g/V 
Offset Voltage at no contact = , -0.501760 , V 

No , Time , Stage Position ,   Mass , Force 
   ,  (s) ,      (mm)      ,   (g)  , (mN)  

1 ,0.0000 ,0.69936 ,5.30536 ,52.05621 
2 ,0.2124 ,0.69945 ,5.30878 ,52.08979 
3 ,0.6930 ,0.70084 ,5.32247 ,52.22410 
4 ,0.8849 ,0.70302 ,5.30878 ,52.08979 
5 ,1.1093 ,0.70508 ,5.30536 ,52.05621 
6 ,1.3333 ,0.70740 ,5.31221 ,52.12337 
7 ,1.5414 ,0.70944 ,5.31905 ,52.19052 
8 ,1.7334 ,0.71139 ,5.27798 ,51.78758 
9 ,1.9095 ,0.71324 ,5.26772 ,51.68685 
10 ,2.1015 ,0.71521 ,5.26087 ,51.61969 
11 ,2.3097 ,0.71720 ,5.21639 ,51.18317 
12 ,2.5018 ,0.71917 ,5.20612 ,51.08244 
13 ,2.6939 ,0.72105 ,5.18216 ,50.84739 
14 ,2.9016 ,0.72305 ,5.17190 ,50.74666 
15 ,3.0776 ,0.72489 ,5.17532 ,50.78023 
16 ,3.2541 ,0.72671 ,5.14452 ,50.47803 
17 ,3.4622 ,0.72872 ,5.12741 ,50.31014 
18 ,3.6381 ,0.73053 ,5.12056 ,50.24298 
19 ,3.8143 ,0.73233 ,5.07265 ,49.77289 
20 ,4.0064 ,0.73421 ,5.05897 ,49.63857 
21 ,4.1981 ,0.73604 ,5.05212 ,49.57142 
22 ,4.3746 ,0.73790 ,5.03501 ,49.40352 
23 ,4.5826 ,0.73999 ,5.00421 ,49.10132 
24 ,4.7748 ,0.74188 ,4.99052 ,48.96701 
25 ,4.9829 ,0.74381 ,4.96657 ,48.73196 
26 ,5.1909 ,0.74589 ,4.94261 ,48.49691 
27 ,5.3990 ,0.74803 ,4.92550 ,48.32902 
28 ,5.6071 ,0.75020 ,4.88786 ,47.95966 
29 ,5.7990 ,0.75213 ,4.87759 ,47.85892 
30 ,5.9909 ,0.75404 ,4.86390 ,47.72461 
31 ,6.1832 ,0.75595 ,4.82968 ,47.38883 
32 ,6.3589 ,0.75774 ,4.82626 ,47.35525 
33 ,6.5353 ,0.75950 ,4.80573 ,47.15378 
34 ,6.7273 ,0.76143 ,4.77835 ,46.88515 
35 ,6.9035 ,0.76315 ,4.76466 ,46.75084 
36 ,7.0796 ,0.76497 ,4.75097 ,46.61653 
37 ,7.2556 ,0.76670 ,4.73044 ,46.41506 
38 ,7.4314 ,0.76844 ,4.72702 ,46.38148 
39 ,7.6240 ,0.77026 ,4.71333 ,46.24716 
40 ,7.8321 ,0.77240 ,4.68937 ,46.01212 
41 ,8.0241 ,0.77431 ,4.66199 ,45.74349 
42 ,8.2322 ,0.77637 ,4.63804 ,45.50844 
43 ,8.4402 ,0.77847 ,4.62435 ,45.37413 
44 ,8.6320 ,0.78038 ,4.60382 ,45.17266 
45 ,8.8244 ,0.78236 ,4.57986 ,44.93761 
46 ,9.0004 ,0.78412 ,4.55933 ,44.73614 
47 ,9.1765 ,0.78589 ,4.56275 ,44.76972 
48 ,9.3845 ,0.78791 ,4.52853 ,44.43394 
49 ,9.5604 ,0.78975 ,4.51484 ,44.29962 
50 ,9.7528 ,0.79158 ,4.49431 ,44.09815 
51 ,9.9448 ,0.79355 ,4.46693 ,43.82953 
52 ,10.1367 ,0.79539 ,4.46351 ,43.79595 
53 ,10.3129 ,0.79724 ,4.44640 ,43.62806 
54 ,10.5050 ,0.79918 ,4.41218 ,43.29227 
55 ,10.6806 ,0.80093 ,4.39507 ,43.12438 
56 ,10.8892 ,0.80288 ,4.40191 ,43.19154 
57 ,11.1133 ,0.80508 ,4.37111 ,42.88933 
58 ,11.3054 ,0.80717 ,4.33689 ,42.55355 
59 ,11.4973 ,0.80907 ,4.31978 ,42.38566 
60 ,11.7216 ,0.81116 ,4.29240 ,42.11703 
61 ,11.9297 ,0.81336 ,4.29582 ,42.15061 
62 ,12.1376 ,0.81544 ,4.26502 ,41.84841 
63 ,12.3138 ,0.81725 ,4.26160 ,41.81483 
64 ,12.5058 ,0.81907 ,4.23080 ,41.51262 
65 ,12.6978 ,0.82109 ,4.22053 ,41.41189 
66 ,12.8736 ,0.82297 ,4.19658 ,41.17684 
67 ,13.0660 ,0.82470 ,4.16920 ,40.90821 
68 ,13.2422 ,0.82657 ,4.15894 ,40.80748 
69 ,13.4345 ,0.82846 ,4.15551 ,40.77390 
70 ,13.6263 ,0.83033 ,4.13156 ,40.53885 
71 ,13.8182 ,0.83225 ,4.11103 ,40.33738 
72 ,14.0264 ,0.83432 ,4.08365 ,40.06876 
73 ,14.2028 ,0.83611 ,4.05627 ,39.80013 
74 ,14.4106 ,0.83815 ,4.05285 ,39.76655 
75 ,14.5866 ,0.84002 ,4.02889 ,39.53150 
76 ,14.7627 ,0.84174 ,4.00494 ,39.29646 
77 ,14.9387 ,0.84347 ,3.99125 ,39.16214 
78 ,15.1308 ,0.84534 ,3.99125 ,39.16214 
79 ,15.3230 ,0.84734 ,3.96387 ,38.89352 
80 ,15.4987 ,0.84907 ,3.94676 ,38.72562 
81 ,15.6751 ,0.85083 ,3.92965 ,38.55773 
82 ,15.8672 ,0.85280 ,3.90570 ,38.32268 
83 ,16.0429 ,0.85452 ,3.89885 ,38.25553 
84 ,16.2189 ,0.85628 ,3.87490 ,38.02048 
85 ,16.3953 ,0.85803 ,3.87490 ,38.02048 
86 ,16.5716 ,0.85981 ,3.85779 ,37.85259 
87 ,16.7796 ,0.86181 ,3.83725 ,37.65112 
88 ,16.9716 ,0.86378 ,3.80987 ,37.38249 
89 ,17.1633 ,0.86572 ,3.79276 ,37.21460 
90 ,17.3398 ,0.86752 ,3.78592 ,37.14744 
91 ,17.5319 ,0.86945 ,3.75854 ,36.87882 
92 ,17.7238 ,0.87131 ,3.75512 ,36.84524 
93 ,17.9161 ,0.87325 ,3.72432 ,36.54303 
94 ,18.0919 ,0.87507 ,3.72090 ,36.50946 
95 ,18.2838 ,0.87685 ,3.69694 ,36.27441 
96 ,18.4603 ,0.87867 ,3.66614 ,35.97220 
97 ,18.6524 ,0.88057 ,3.67299 ,36.03936 
98 ,18.8444 ,0.88246 ,3.63534 ,35.67000 
99 ,19.0367 ,0.88443 ,3.61823 ,35.50211 
100 ,19.2286 ,0.88634 ,3.62166 ,35.53569 
101 ,19.4047 ,0.88818 ,3.57375 ,35.06559 
102 ,19.5806 ,0.88991 ,3.57375 ,35.06559 
103 ,19.7728 ,0.89183 ,3.55663 ,34.89770 
104 ,19.9650 ,0.89373 ,3.54979 ,34.83054 
105 ,20.1571 ,0.89554 ,3.52241 ,34.56192 
106 ,20.3651 ,0.89768 ,3.51215 ,34.46118 
107 ,20.5408 ,0.89946 ,3.50530 ,34.39402 
108 ,20.7168 ,0.90118 ,3.46081 ,33.95751 
109 ,20.8930 ,0.90300 ,3.46081 ,33.95751 
110 ,21.0851 ,0.90485 ,3.45397 ,33.89035 
111 ,21.2935 ,0.90694 ,3.43686 ,33.72246 
112 ,21.4694 ,0.90883 ,3.42317 ,33.58814 
113 ,21.6617 ,0.91071 ,3.40264 ,33.38667 
114 ,21.8539 ,0.91262 ,3.36842 ,33.05089 
115 ,22.0458 ,0.91451 ,3.37184 ,33.08447 
116 ,22.2377 ,0.91641 ,3.33419 ,32.71511 
117 ,22.4139 ,0.91820 ,3.31708 ,32.54722 
118 ,22.5736 ,0.91991 ,3.31708 ,32.54722 
119 ,22.7501 ,0.92155 ,3.29997 ,32.37933 
120 ,22.9417 ,0.92359 ,3.28628 ,32.24501 
121 ,23.1182 ,0.92527 ,3.25548 ,31.94281 
122 ,23.3261 ,0.92724 ,3.26233 ,32.00996 
123 ,23.5182 ,0.92922 ,3.22126 ,31.60702 
124 ,23.7100 ,0.93117 ,3.21100 ,31.50629 
125 ,23.9025 ,0.93298 ,3.21100 ,31.50629 
126 ,24.0946 ,0.93496 ,3.18020 ,31.20409 
127 ,24.2865 ,0.93686 ,3.18362 ,31.23766 
128 ,24.4628 ,0.93871 ,3.17335 ,31.13693 
129 ,24.6548 ,0.94058 ,3.13571 ,30.76757 
130 ,24.8630 ,0.94262 ,3.13571 ,30.76757 
131 ,25.0551 ,0.94457 ,3.10833 ,30.49894 
132 ,25.2468 ,0.94643 ,3.10149 ,30.43178 
133 ,25.4393 ,0.94834 ,3.09122 ,30.33105 
134 ,25.6315 ,0.95040 ,3.06042 ,30.02884 
135 ,25.8230 ,0.95229 ,3.05700 ,29.99527 
136 ,26.0154 ,0.95413 ,3.00909 ,29.52517 
137 ,26.2236 ,0.95624 ,3.02278 ,29.65948 
138 ,26.4155 ,0.95815 ,2.99198 ,29.35728 
139 ,26.5917 ,0.95993 ,2.95776 ,29.02150 
140 ,26.7998 ,0.96194 ,2.95091 ,28.95434 
141 ,26.9759 ,0.96384 ,2.94407 ,28.88718 
142 ,27.1519 ,0.96559 ,2.92011 ,28.65213 
143 ,27.3440 ,0.96753 ,2.93380 ,28.78645 
144 ,27.5359 ,0.96944 ,2.90642 ,28.51782 
145 ,27.7121 ,0.97115 ,2.87905 ,28.24919 
146 ,27.8881 ,0.97298 ,2.86878 ,28.14846 
147 ,28.0643 ,0.97474 ,2.85509 ,28.01415 
148 ,28.2403 ,0.97645 ,2.86193 ,28.08130 
149 ,28.4163 ,0.97819 ,2.83114 ,27.77910 
150 ,28.5924 ,0.98000 ,2.80718 ,27.54405 
151 ,28.8006 ,0.98193 ,2.81060 ,27.57763 
152 ,28.9927 ,0.98391 ,2.77980 ,27.27542 
153 ,29.1683 ,0.98576 ,2.78665 ,27.34258 
154 ,29.3449 ,0.98752 ,2.75243 ,27.00680 
155 ,29.5368 ,0.98942 ,2.74558 ,26.93964 
156 ,29.7450 ,0.99136 ,2.72163 ,26.70459 
157 ,29.9369 ,0.99346 ,2.70794 ,26.57028 
158 ,30.1127 ,0.99515 ,2.69083 ,26.40239 
159 ,30.3051 ,0.99703 ,2.68398 ,26.33523 
160 ,30.4972 ,0.99901 ,2.65660 ,26.06661 
161 ,30.6893 ,1.00085 ,2.64976 ,25.99945 
162 ,30.8973 ,1.00293 ,2.62238 ,25.73082 
163 ,31.0734 ,1.00481 ,2.60869 ,25.59651 
164 ,31.2651 ,1.00669 ,2.60869 ,25.59651 
165 ,31.4574 ,1.00856 ,2.57789 ,25.29430 
166 ,31.6657 ,1.01065 ,2.58132 ,25.32788 
167 ,31.8576 ,1.01249 ,2.56078 ,25.12641 
168 ,32.0658 ,1.01465 ,2.53683 ,24.89136 
169 ,32.2417 ,1.01641 ,2.53341 ,24.85779 
170 ,32.4343 ,1.01831 ,2.49234 ,24.45485 
171 ,32.6418 ,1.02043 ,2.49576 ,24.48842 
172 ,32.8181 ,1.02220 ,2.47865 ,24.32053 
173 ,32.9942 ,1.02402 ,2.45470 ,24.08549 
174 ,33.4099 ,1.02696 ,2.45470 ,24.08549 
175 ,33.5865 ,1.02991 ,2.40679 ,23.61539 
176 ,33.7945 ,1.03189 ,2.38283 ,23.38034 
177 ,33.9707 ,1.03370 ,2.36572 ,23.21245 
178 ,34.1466 ,1.03555 ,2.36914 ,23.24603 
179 ,34.3388 ,1.03740 ,2.35203 ,23.07814 
180 ,34.5146 ,1.03915 ,2.34177 ,22.97740 
181 ,34.6909 ,1.04096 ,2.32808 ,22.84309 
182 ,34.8670 ,1.04268 ,2.30070 ,22.57446 
183 ,35.0431 ,1.04446 ,2.32123 ,22.77593 
184 ,35.2192 ,1.04623 ,2.30754 ,22.64162 
185 ,35.4273 ,1.04817 ,2.25963 ,22.17152 
186 ,35.6353 ,1.05026 ,2.24594 ,22.03721 
187 ,35.8273 ,1.05228 ,2.24594 ,22.03721 
188 ,36.0195 ,1.05416 ,2.23226 ,21.90290 
189 ,36.2116 ,1.05617 ,2.21515 ,21.73500 
190 ,36.4038 ,1.05804 ,2.19119 ,21.49996 
191 ,36.5957 ,1.05992 ,2.18435 ,21.43280 
192 ,36.7877 ,1.06181 ,2.17066 ,21.29849 
193 ,36.9800 ,1.06386 ,2.16039 ,21.19775 
194 ,37.1560 ,1.06562 ,2.12959 ,20.89555 
195 ,37.3321 ,1.06732 ,2.12275 ,20.82839 
196 ,37.5401 ,1.06931 ,2.11932 ,20.79481 
197 ,37.7158 ,1.07120 ,2.09537 ,20.55976 
198 ,37.9082 ,1.07301 ,2.06457 ,20.25756 
199 ,38.1003 ,1.07493 ,2.08168 ,20.42545 
200 ,38.2924 ,1.07690 ,2.05430 ,20.15682 
201 ,38.4846 ,1.07874 ,2.04061 ,20.02251 
202 ,38.6766 ,1.08075 ,2.04061 ,20.02251 
203 ,38.8686 ,1.08273 ,2.02008 ,19.82104 
204 ,39.0457 ,1.08445 ,1.98928 ,19.51884 
205 ,39.2529 ,1.08643 ,1.98928 ,19.51884 
206 ,39.4448 ,1.08846 ,1.96190 ,19.25021 
207 ,39.6210 ,1.09021 ,1.95164 ,19.14948 
208 ,39.8131 ,1.09216 ,1.96190 ,19.25021 
209 ,40.0051 ,1.09401 ,1.91742 ,18.81369 
210 ,40.1970 ,1.09594 ,1.91742 ,18.81369 
211 ,40.3732 ,1.09773 ,1.91057 ,18.74654 
212 ,40.5493 ,1.09943 ,1.86951 ,18.34360 
213 ,40.7413 ,1.10134 ,1.87635 ,18.41075 
214 ,40.9491 ,1.10331 ,1.85924 ,18.24286 
215 ,41.1414 ,1.10531 ,1.85582 ,18.20928 
216 ,41.3175 ,1.10716 ,1.83871 ,18.04139 
217 ,41.5257 ,1.10917 ,1.80791 ,17.73919 
218 ,41.7018 ,1.11102 ,1.79080 ,17.57129 
219 ,41.8936 ,1.11295 ,1.80791 ,17.73919 
220 ,42.0695 ,1.11474 ,1.76342 ,17.30267 
221 ,42.2778 ,1.11659 ,1.77711 ,17.43698 
222 ,42.4701 ,1.11862 ,1.74289 ,17.10120 
223 ,42.6777 ,1.12070 ,1.72920 ,16.96689 
224 ,42.8543 ,1.12251 ,1.71893 ,16.86615 
225 ,43.0460 ,1.12449 ,1.70182 ,16.69826 
226 ,43.2383 ,1.12636 ,1.70866 ,16.76542 
227 ,43.4464 ,1.12843 ,1.66075 ,16.29532 
228 ,43.6385 ,1.13036 ,1.67444 ,16.42963 
229 ,43.8302 ,1.13226 ,1.65391 ,16.22816 
230 ,44.0066 ,1.13405 ,1.63680 ,16.06027 
231 ,44.1984 ,1.13598 ,1.63338 ,16.02669 
232 ,44.3908 ,1.13778 ,1.59573 ,15.65733 
233 ,44.5987 ,1.13988 ,1.59231 ,15.62375 
234 ,44.7907 ,1.14179 ,1.58889 ,15.59018 
235 ,44.9669 ,1.14363 ,1.56493 ,15.35513 
236 ,45.1431 ,1.14543 ,1.56836 ,15.38871 
237 ,45.3188 ,1.14720 ,1.54782 ,15.18724 
238 ,45.4952 ,1.14899 ,1.52729 ,14.98577 
239 ,45.6714 ,1.15070 ,1.52045 ,14.91861 
240 ,45.8634 ,1.15258 ,1.49649 ,14.68356 
241 ,46.0556 ,1.15449 ,1.49649 ,14.68356 
242 ,46.2475 ,1.15645 ,1.47596 ,14.48209 
243 ,46.4234 ,1.15826 ,1.46911 ,14.41493 
244 ,46.5997 ,1.15997 ,1.44858 ,14.21346 
245 ,46.8076 ,1.16204 ,1.43831 ,14.11273 
246 ,46.9998 ,1.16396 ,1.41436 ,13.87768 
247 ,47.1759 ,1.16575 ,1.42120 ,13.94484 
248 ,47.3679 ,1.16756 ,1.39725 ,13.70979 
249 ,47.5441 ,1.16943 ,1.37329 ,13.47474 
250 ,47.7361 ,1.17131 ,1.38356 ,13.57548 
251 ,47.9281 ,1.17326 ,1.36645 ,13.40759 
252 ,48.1200 ,1.17511 ,1.35276 ,13.27327 
253 ,48.2960 ,1.17687 ,1.32880 ,13.03822 
254 ,48.4724 ,1.17868 ,1.31169 ,12.87033 
255 ,48.6804 ,1.18078 ,1.31169 ,12.87033 
256 ,48.8727 ,1.18266 ,1.29800 ,12.73602 
257 ,49.0647 ,1.18454 ,1.26378 ,12.40024 
258 ,49.2404 ,1.18638 ,1.27063 ,12.46739 
259 ,49.4169 ,1.18811 ,1.25352 ,12.29950 
260 ,49.6085 ,1.19005 ,1.26378 ,12.40024 
261 ,49.8009 ,1.19187 ,1.23298 ,12.09803 
262 ,49.9928 ,1.19378 ,1.21929 ,11.96372 
263 ,50.1851 ,1.19575 ,1.18507 ,11.62794 
264 ,50.3771 ,1.19766 ,1.17823 ,11.56078 
265 ,50.5533 ,1.19951 ,1.17823 ,11.56078 
266 ,50.7290 ,1.20132 ,1.15427 ,11.32573 
267 ,50.9212 ,1.20308 ,1.15427 ,11.32573 
268 ,51.0970 ,1.20490 ,1.15427 ,11.32573 
269 ,51.2895 ,1.20677 ,1.13032 ,11.09068 
270 ,51.4656 ,1.20865 ,1.11663 ,10.95637 
271 ,51.6576 ,1.21044 ,1.11321 ,10.92279 
272 ,51.8333 ,1.21234 ,1.10294 ,10.82206 
273 ,52.0259 ,1.21417 ,1.06187 ,10.41912 
274 ,52.2339 ,1.21620 ,1.07214 ,10.51985 
275 ,52.4257 ,1.21817 ,1.06530 ,10.45270 
276 ,52.6021 ,1.21999 ,1.04134 ,10.21765 
277 ,52.7941 ,1.22187 ,1.04476 ,10.25123 
278 ,52.9701 ,1.22366 ,1.03450 ,10.15049 
279 ,53.1463 ,1.22540 ,1.01054 ,9.91544 
280 ,53.3544 ,1.22741 ,1.00370 ,9.84829 
281 ,53.5466 ,1.22932 ,0.96605 ,9.47892 
282 ,53.7385 ,1.23126 ,0.96605 ,9.47892 
283 ,53.9147 ,1.23309 ,0.96948 ,9.51250 
284 ,54.1066 ,1.23491 ,0.93868 ,9.21030 
285 ,54.2828 ,1.23678 ,0.92841 ,9.10956 
286 ,54.4748 ,1.23870 ,0.92157 ,9.04241 
287 ,54.6509 ,1.24044 ,0.91472 ,8.97525 
288 ,54.8268 ,1.24220 ,0.89761 ,8.80736 
289 ,55.0030 ,1.24395 ,0.87708 ,8.60589 
290 ,55.1951 ,1.24583 ,0.87023 ,8.53873 
291 ,55.3871 ,1.24781 ,0.87366 ,8.57231 
292 ,55.5632 ,1.24964 ,0.83601 ,8.20295 
293 ,55.7394 ,1.25133 ,0.83943 ,8.23653 
294 ,55.9313 ,1.25319 ,0.82575 ,8.10221 
295 ,56.1074 ,1.25500 ,0.82917 ,8.13579 
296 ,56.2990 ,1.25691 ,0.80521 ,7.90074 
297 ,56.4751 ,1.25872 ,0.80521 ,7.90074 
298 ,56.6512 ,1.26054 ,0.78126 ,7.66570 
299 ,56.8437 ,1.26232 ,0.75046 ,7.36349 
300 ,57.0519 ,1.26443 ,0.75046 ,7.36349 
301 ,57.2436 ,1.26640 ,0.72308 ,7.09486 
302 ,57.4362 ,1.26822 ,0.72308 ,7.09486 
303 ,57.6441 ,1.27036 ,0.72992 ,7.16202 
304 ,57.8201 ,1.27214 ,0.69913 ,6.85982 
305 ,57.9963 ,1.27387 ,0.67859 ,6.65835 
306 ,58.2043 ,1.27593 ,0.67859 ,6.65835 
307 ,58.3965 ,1.27781 ,0.66490 ,6.52403 
308 ,58.5725 ,1.27965 ,0.64437 ,6.32256 
309 ,58.7647 ,1.28154 ,0.64779 ,6.35614 
310 ,58.9568 ,1.28351 ,0.62726 ,6.15467 
311 ,59.1488 ,1.28545 ,0.63068 ,6.18825 
312 ,59.3410 ,1.28739 ,0.61699 ,6.05394 
313 ,59.5329 ,1.28919 ,0.60330 ,5.91962 
314 ,59.7248 ,1.29113 ,0.58962 ,5.78531 
315 ,59.9169 ,1.29301 ,0.57251 ,5.61742 
316 ,60.1091 ,1.29498 ,0.56224 ,5.51668 
317 ,60.2852 ,1.29679 ,0.56566 ,5.55026 
318 ,60.4929 ,1.29881 ,0.54513 ,5.34879 
319 ,60.6854 ,1.30072 ,0.53144 ,5.21448 
320 ,60.8774 ,1.30265 ,0.51091 ,5.01301 
321 ,61.0692 ,1.30460 ,0.51775 ,5.08017 
322 ,61.2456 ,1.30635 ,0.51433 ,5.04659 
323 ,61.4381 ,1.30827 ,0.47326 ,4.64365 
324 ,61.6133 ,1.31011 ,0.48695 ,4.77796 
325 ,61.7896 ,1.31180 ,0.46984 ,4.61007 
326 ,61.9657 ,1.31358 ,0.46984 ,4.61007 
327 ,62.1579 ,1.31552 ,0.44931 ,4.40860 
328 ,62.3341 ,1.31725 ,0.42535 ,4.17355 
329 ,62.5261 ,1.31918 ,0.42877 ,4.20713 
330 ,62.7019 ,1.32104 ,0.41509 ,4.07282 
331 ,62.9104 ,1.32291 ,0.40140 ,3.93850 
332 ,63.1179 ,1.32508 ,0.38429 ,3.77061 
333 ,63.2941 ,1.32690 ,0.37402 ,3.66988 
334 ,63.4701 ,1.32864 ,0.35349 ,3.46841 
335 ,63.6467 ,1.33036 ,0.35349 ,3.46841 
336 ,63.8546 ,1.33229 ,0.33638 ,3.30052 
337 ,64.0467 ,1.33432 ,0.34664 ,3.40125 
338 ,64.2228 ,1.33611 ,0.33638 ,3.30052 
339 ,64.4150 ,1.33798 ,0.30558 ,2.99831 
340 ,64.6066 ,1.33987 ,0.30215 ,2.96473 
341 ,64.7832 ,1.34174 ,0.30900 ,3.03189 
342 ,64.9752 ,1.34363 ,0.27135 ,2.66253 
343 ,65.1833 ,1.34557 ,0.28504 ,2.79684 
344 ,65.3753 ,1.34764 ,0.24398 ,2.39390 
345 ,65.5834 ,1.34957 ,0.26109 ,2.56179 
346 ,65.7753 ,1.35161 ,0.22687 ,2.22601 
347 ,65.9512 ,1.35352 ,0.22687 ,2.22601 
348 ,66.1274 ,1.35519 ,0.21318 ,2.09170 
349 ,66.3036 ,1.35691 ,0.22002 ,2.15885 
350 ,66.4797 ,1.35869 ,0.20976 ,2.05812 
351 ,66.6559 ,1.36047 ,0.17553 ,1.72234 
352 ,66.8319 ,1.36223 ,0.17553 ,1.72234 
353 ,67.0076 ,1.36398 ,0.17211 ,1.68876 
354 ,67.2001 ,1.36589 ,0.17553 ,1.72234 
355 ,67.3922 ,1.36784 ,0.14131 ,1.38655 
356 ,67.5841 ,1.36972 ,0.14473 ,1.42013 
357 ,67.7602 ,1.37152 ,0.12762 ,1.25224 
358 ,67.9364 ,1.37329 ,0.12762 ,1.25224 
359 ,68.1444 ,1.37525 ,0.11393 ,1.11793 
360 ,68.3363 ,1.37723 ,0.10025 ,0.98361 
361 ,68.5124 ,1.37902 ,0.07971 ,0.78214 
362 ,68.7047 ,1.38092 ,0.07971 ,0.78214 
363 ,68.9125 ,1.38291 ,0.06260 ,0.61425 
364 ,69.1044 ,1.38494 ,0.06260 ,0.61425 
365 ,69.2808 ,1.38670 ,0.05234 ,0.51352 
366 ,69.4889 ,1.38872 ,0.03180 ,0.31205 
367 ,69.6649 ,1.39049 ,0.01469 ,0.14416 
368 ,69.8413 ,1.39230 ,0.02154 ,0.21131 
369 ,70.0490 ,1.39434 ,-0.00242 ,-0.02373 
370 ,70.2409 ,1.39627 ,-0.00242 ,-0.02373 
371 ,70.4335 ,1.39816 ,-0.01953 ,-0.19163 
372 ,70.6415 ,1.40020 ,-0.02637 ,-0.25878 
373 ,70.8494 ,1.40227 ,-0.05033 ,-0.49383 
374 ,71.0416 ,1.40433 ,-0.04348 ,-0.42667 
375 ,71.2497 ,1.40622 ,-0.06060 ,-0.59457 
376 ,71.4421 ,1.40831 ,-0.07086 ,-0.69530 
377 ,71.6496 ,1.41039 ,-0.10508 ,-1.03108 
378 ,71.8575 ,1.41237 ,-0.09824 ,-0.96393 
379 ,72.0339 ,1.41419 ,-0.09824 ,-0.96393 
380 ,72.2098 ,1.41599 ,-0.12219 ,-1.19898 
381 ,72.3857 ,1.41772 ,-0.12562 ,-1.23255 
382 ,72.5781 ,1.41960 ,-0.12562 ,-1.23255 
383 ,72.7861 ,1.42167 ,-0.13588 ,-1.33329 
384 ,72.9624 ,1.42352 ,-0.14273 ,-1.40045 
385 ,73.1543 ,1.42536 ,-0.16668 ,-1.63549 
386 ,73.3466 ,1.42731 ,-0.17011 ,-1.66907 
387 ,73.5382 ,1.42926 ,-0.16668 ,-1.63549 
388 ,73.7147 ,1.43101 ,-0.17695 ,-1.73623 
389 ,73.8905 ,1.43288 ,-0.20090 ,-1.97128 
390 ,74.0826 ,1.43466 ,-0.19406 ,-1.90412 
391 ,74.2748 ,1.43663 ,-0.21459 ,-2.10559 
392 ,74.4665 ,1.43846 ,-0.22828 ,-2.23990 
393 ,74.6428 ,1.44025 ,-0.23855 ,-2.34064 
394 ,74.8191 ,1.44205 ,-0.23513 ,-2.30706 
395 ,75.0270 ,1.44410 ,-0.25566 ,-2.50853 
396 ,75.2032 ,1.44585 ,-0.26250 ,-2.57569 
397 ,75.3953 ,1.44778 ,-0.27619 ,-2.71000 
398 ,75.5714 ,1.44961 ,-0.29330 ,-2.87789 
399 ,75.7632 ,1.45151 ,-0.30699 ,-3.01220 
400 ,75.9555 ,1.45336 ,-0.30357 ,-2.97863 
401 ,76.1315 ,1.45518 ,-0.31726 ,-3.11294 
402 ,76.3078 ,1.45690 ,-0.32752 ,-3.21367 
403 ,76.4837 ,1.45869 ,-0.32068 ,-3.14652 
404 ,76.6759 ,1.46063 ,-0.33437 ,-3.28083 
405 ,76.8677 ,1.46248 ,-0.36859 ,-3.61661 
406 ,77.0760 ,1.46457 ,-0.35832 ,-3.51588 
407 ,77.2520 ,1.46637 ,-0.36859 ,-3.61661 
408 ,77.4282 ,1.46812 ,-0.38228 ,-3.75093 
409 ,77.6200 ,1.47002 ,-0.37886 ,-3.71735 
410 ,77.8119 ,1.47197 ,-0.39255 ,-3.85166 
411 ,78.0044 ,1.47384 ,-0.40966 ,-4.01955 
412 ,78.2124 ,1.47589 ,-0.44046 ,-4.32176 
413 ,78.4046 ,1.47792 ,-0.44388 ,-4.35534 
414 ,78.5967 ,1.47975 ,-0.44046 ,-4.32176 
415 ,78.7885 ,1.48163 ,-0.44730 ,-4.38891 
416 ,78.9808 ,1.48368 ,-0.44730 ,-4.38891 
417 ,79.1570 ,1.48538 ,-0.46099 ,-4.52323 
418 ,79.3490 ,1.48739 ,-0.48494 ,-4.75828 
419 ,79.5411 ,1.48918 ,-0.46783 ,-4.59038 
420 ,79.7169 ,1.49101 ,-0.48837 ,-4.79185 
421 ,79.9091 ,1.49292 ,-0.51232 ,-5.02690 
422 ,80.0850 ,1.49468 ,-0.51232 ,-5.02690 
423 ,80.2772 ,1.49662 ,-0.50890 ,-4.99332 
424 ,80.4692 ,1.49847 ,-0.53628 ,-5.26195 
425 ,80.6611 ,1.50054 ,-0.52601 ,-5.16121 
426 ,80.8210 ,1.50219 ,-0.53970 ,-5.29553 
427 ,80.9811 ,1.50378 ,-0.54997 ,-5.39626 
428 ,81.1572 ,1.50541 ,-0.54997 ,-5.39626 
429 ,81.3497 ,1.50723 ,-0.56023 ,-5.49700 
430 ,81.5578 ,1.50931 ,-0.56708 ,-5.56415 
431 ,81.7497 ,1.51125 ,-0.59445 ,-5.83278 
432 ,81.9580 ,1.51335 ,-0.60472 ,-5.93352 
433 ,82.1337 ,1.51529 ,-0.61156 ,-6.00067 
434 ,82.3262 ,1.51704 ,-0.62183 ,-6.10141 
435 ,82.5181 ,1.51896 ,-0.61499 ,-6.03425 
436 ,82.7101 ,1.52081 ,-0.62183 ,-6.10141 
437 ,82.9022 ,1.52277 ,-0.63210 ,-6.20214 
438 ,83.0784 ,1.52466 ,-0.64236 ,-6.30288 
439 ,83.2539 ,1.52632 ,-0.65263 ,-6.40361 
440 ,83.4307 ,1.52810 ,-0.66974 ,-6.57150 
441 ,83.6387 ,1.53014 ,-0.67316 ,-6.60508 
442 ,83.8147 ,1.53198 ,-0.66632 ,-6.53793 
443 ,83.9903 ,1.53371 ,-0.70396 ,-6.90729 
444 ,84.1824 ,1.53561 ,-0.69712 ,-6.84013 
445 ,84.3747 ,1.53755 ,-0.69370 ,-6.80655 
446 ,84.5670 ,1.53947 ,-0.72450 ,-7.10876 
447 ,84.7429 ,1.54126 ,-0.73134 ,-7.17591 
448 ,84.9191 ,1.54301 ,-0.72450 ,-7.10876 
449 ,85.0953 ,1.54478 ,-0.73476 ,-7.20949 
450 ,85.2870 ,1.54670 ,-0.76556 ,-7.51170 
451 ,85.4633 ,1.54842 ,-0.77241 ,-7.57885 
452 ,85.6396 ,1.55026 ,-0.77583 ,-7.61243 
453 ,85.8154 ,1.55198 ,-0.77925 ,-7.64601 
454 ,85.9916 ,1.55375 ,-0.76898 ,-7.54527 
455 ,86.1836 ,1.55561 ,-0.79636 ,-7.81390 
456 ,86.3597 ,1.55743 ,-0.79294 ,-7.78032 
457 ,86.5356 ,1.55916 ,-0.80321 ,-7.88106 
458 ,86.7438 ,1.56119 ,-0.82032 ,-8.04895 
459 ,86.9198 ,1.56301 ,-0.84085 ,-8.25042 
460 ,87.1121 ,1.56495 ,-0.82032 ,-8.04895 
461 ,87.3041 ,1.56681 ,-0.85796 ,-8.41831 
462 ,87.4960 ,1.56878 ,-0.85112 ,-8.35115 
463 ,87.6722 ,1.57053 ,-0.84427 ,-8.28400 
