Data stamp = , 24-04-2022 02:33:49 748

Calibration Values: 
Slope = , 26.54 , g/V 
Offset Voltage at no contact = , -0.501760 , V 

No , Time , Stage Position ,   Mass , Force 
   ,  (s) ,      (mm)      ,   (g)  , (mN)  

1 ,0.0000 ,0.69942 ,5.26772 ,51.68685 
2 ,0.2118 ,0.69950 ,5.27114 ,51.72043 
3 ,0.6604 ,0.70101 ,5.26772 ,51.68685 
4 ,0.8685 ,0.70291 ,5.28825 ,51.88832 
5 ,1.0445 ,0.70463 ,5.28483 ,51.85474 
6 ,1.2363 ,0.70654 ,5.27798 ,51.78758 
7 ,1.4288 ,0.70831 ,5.29510 ,51.95548 
8 ,1.6207 ,0.71035 ,5.28141 ,51.82116 
9 ,1.7969 ,0.71215 ,5.26430 ,51.65327 
10 ,1.9891 ,0.71397 ,5.26430 ,51.65327 
11 ,2.2132 ,0.71624 ,5.23692 ,51.38464 
12 ,2.4212 ,0.71831 ,5.20954 ,51.11602 
13 ,2.6129 ,0.72030 ,5.19585 ,50.98170 
14 ,2.8052 ,0.72213 ,5.18901 ,50.91455 
15 ,2.9814 ,0.72397 ,5.15136 ,50.54519 
16 ,3.1734 ,0.72582 ,5.15136 ,50.54519 
17 ,3.3495 ,0.72766 ,5.12399 ,50.27656 
18 ,3.5416 ,0.72954 ,5.12399 ,50.27656 
19 ,3.7334 ,0.73149 ,5.09661 ,50.00793 
20 ,3.9258 ,0.73334 ,5.08292 ,49.87362 
21 ,4.1018 ,0.73525 ,5.05554 ,49.60499 
22 ,4.2776 ,0.73695 ,5.04528 ,49.50426 
23 ,4.4696 ,0.73881 ,5.03843 ,49.43710 
24 ,4.6618 ,0.74072 ,5.02474 ,49.30279 
25 ,4.8861 ,0.74306 ,5.00763 ,49.13490 
26 ,5.0620 ,0.74480 ,4.99052 ,48.96701 
27 ,5.2384 ,0.74652 ,4.96315 ,48.69838 
28 ,5.4300 ,0.74843 ,4.93577 ,48.42975 
29 ,5.5899 ,0.75019 ,4.93235 ,48.39618 
30 ,5.7665 ,0.75185 ,4.91181 ,48.19471 
31 ,5.9425 ,0.75357 ,4.90155 ,48.09397 
32 ,6.1187 ,0.75535 ,4.88101 ,47.89250 
33 ,6.3105 ,0.75726 ,4.86048 ,47.69103 
34 ,6.5188 ,0.75927 ,4.82968 ,47.38883 
35 ,6.6949 ,0.76108 ,4.81599 ,47.25451 
36 ,6.8709 ,0.76287 ,4.79546 ,47.05304 
37 ,7.0470 ,0.76460 ,4.78519 ,46.95231 
38 ,7.2231 ,0.76634 ,4.77835 ,46.88515 
39 ,7.3993 ,0.76816 ,4.77150 ,46.81800 
40 ,7.5914 ,0.77003 ,4.73728 ,46.48221 
41 ,7.7994 ,0.77201 ,4.70990 ,46.21359 
42 ,7.9752 ,0.77392 ,4.69279 ,46.04569 
43 ,8.1516 ,0.77565 ,4.67568 ,45.87780 
44 ,8.3434 ,0.77755 ,4.66199 ,45.74349 
45 ,8.5356 ,0.77952 ,4.64146 ,45.54202 
46 ,8.7278 ,0.78144 ,4.60724 ,45.20624 
47 ,8.9197 ,0.78325 ,4.62093 ,45.34055 
48 ,9.1119 ,0.78535 ,4.59355 ,45.07192 
49 ,9.2877 ,0.78699 ,4.57644 ,44.90403 
50 ,9.4639 ,0.78876 ,4.55249 ,44.66898 
51 ,9.6561 ,0.79064 ,4.53195 ,44.46751 
52 ,9.8478 ,0.79260 ,4.52169 ,44.36678 
53 ,10.0400 ,0.79447 ,4.49089 ,44.06457 
54 ,10.2477 ,0.79655 ,4.47720 ,43.93026 
55 ,10.4080 ,0.79833 ,4.48062 ,43.96384 
56 ,10.5840 ,0.79994 ,4.46009 ,43.76237 
57 ,10.7604 ,0.80173 ,4.44640 ,43.62806 
58 ,10.9522 ,0.80364 ,4.40191 ,43.19154 
59 ,11.1446 ,0.80559 ,4.39164 ,43.09080 
60 ,11.3365 ,0.80749 ,4.38138 ,42.99007 
61 ,11.5125 ,0.80926 ,4.35058 ,42.68786 
62 ,11.6889 ,0.81098 ,4.34031 ,42.58713 
63 ,11.8810 ,0.81292 ,4.33004 ,42.48639 
64 ,12.0565 ,0.81476 ,4.29924 ,42.18419 
65 ,12.2330 ,0.81645 ,4.29240 ,42.11703 
66 ,12.4094 ,0.81827 ,4.27529 ,41.94914 
67 ,12.5853 ,0.81998 ,4.26502 ,41.84841 
68 ,12.7933 ,0.82213 ,4.24107 ,41.61336 
69 ,12.9849 ,0.82401 ,4.22396 ,41.44547 
70 ,13.1610 ,0.82571 ,4.21027 ,41.31115 
71 ,13.3373 ,0.82745 ,4.20342 ,41.24400 
72 ,13.5135 ,0.82932 ,4.18631 ,41.07611 
73 ,13.7055 ,0.83110 ,4.14525 ,40.67317 
74 ,13.8818 ,0.83292 ,4.16236 ,40.84106 
75 ,14.0898 ,0.83495 ,4.11103 ,40.33738 
76 ,14.2498 ,0.83674 ,4.10760 ,40.30380 
77 ,14.4421 ,0.83856 ,4.09734 ,40.20307 
78 ,14.6339 ,0.84043 ,4.06654 ,39.90087 
79 ,14.8102 ,0.84223 ,4.05285 ,39.76655 
80 ,15.0022 ,0.84414 ,4.04600 ,39.69940 
81 ,15.1938 ,0.84598 ,4.00836 ,39.33003 
82 ,15.3863 ,0.84790 ,4.00836 ,39.33003 
83 ,15.5784 ,0.84993 ,3.98441 ,39.09499 
84 ,15.7706 ,0.85181 ,3.95703 ,38.82636 
85 ,15.9466 ,0.85362 ,3.93992 ,38.65847 
86 ,16.1227 ,0.85531 ,3.94334 ,38.69205 
87 ,16.3142 ,0.85726 ,3.91596 ,38.42342 
88 ,16.5065 ,0.85907 ,3.89543 ,38.22195 
89 ,16.6988 ,0.86108 ,3.87832 ,38.05406 
90 ,16.8750 ,0.86289 ,3.85436 ,37.81901 
91 ,17.0517 ,0.86464 ,3.83041 ,37.58396 
92 ,17.2592 ,0.86659 ,3.83041 ,37.58396 
93 ,17.4511 ,0.86862 ,3.79619 ,37.24818 
94 ,17.6271 ,0.87039 ,3.77908 ,37.08029 
95 ,17.8194 ,0.87217 ,3.76881 ,36.97955 
96 ,18.0273 ,0.87433 ,3.76539 ,36.94597 
97 ,18.2034 ,0.87615 ,3.74485 ,36.74450 
98 ,18.3795 ,0.87790 ,3.72774 ,36.57661 
99 ,18.5395 ,0.87961 ,3.70037 ,36.30799 
100 ,18.7318 ,0.88134 ,3.68325 ,36.14010 
101 ,18.9393 ,0.88345 ,3.69010 ,36.20725 
102 ,19.1159 ,0.88528 ,3.65930 ,35.90505 
103 ,19.3238 ,0.88729 ,3.64903 ,35.80431 
104 ,19.5157 ,0.88921 ,3.60797 ,35.40137 
105 ,19.7079 ,0.89119 ,3.59428 ,35.26706 
106 ,19.9322 ,0.89329 ,3.57717 ,35.09917 
107 ,20.1079 ,0.89522 ,3.57032 ,35.03201 
108 ,20.2844 ,0.89692 ,3.55321 ,34.86412 
109 ,20.4762 ,0.89886 ,3.52926 ,34.62907 
110 ,20.6521 ,0.90058 ,3.50530 ,34.39402 
111 ,20.8285 ,0.90237 ,3.49161 ,34.25971 
112 ,21.0205 ,0.90428 ,3.49504 ,34.29329 
113 ,21.1967 ,0.90608 ,3.46081 ,33.95751 
114 ,21.3727 ,0.90782 ,3.44028 ,33.75604 
115 ,21.5489 ,0.90960 ,3.41975 ,33.55457 
116 ,21.7407 ,0.91142 ,3.41633 ,33.52099 
117 ,21.9170 ,0.91320 ,3.40948 ,33.45383 
118 ,22.1091 ,0.91511 ,3.36499 ,33.01731 
119 ,22.3012 ,0.91709 ,3.36842 ,33.05089 
120 ,22.4931 ,0.91897 ,3.33419 ,32.71511 
121 ,22.6693 ,0.92080 ,3.32735 ,32.64795 
122 ,22.8614 ,0.92263 ,3.31024 ,32.48006 
123 ,23.0689 ,0.92472 ,3.27944 ,32.17786 
124 ,23.2609 ,0.92676 ,3.28286 ,32.21143 
125 ,23.4372 ,0.92845 ,3.26233 ,32.00996 
126 ,23.6616 ,0.93066 ,3.25548 ,31.94281 
127 ,23.8213 ,0.93243 ,3.23837 ,31.77492 
128 ,24.0138 ,0.93416 ,3.20415 ,31.43913 
129 ,24.1899 ,0.93598 ,3.19046 ,31.30482 
130 ,24.4139 ,0.93808 ,3.16993 ,31.10335 
131 ,24.5901 ,0.94001 ,3.15966 ,31.00262 
132 ,24.7822 ,0.94189 ,3.14255 ,30.83472 
133 ,24.9580 ,0.94381 ,3.13571 ,30.76757 
134 ,25.1345 ,0.94543 ,3.12202 ,30.63325 
135 ,25.3424 ,0.94747 ,3.10833 ,30.49894 
136 ,25.5344 ,0.94935 ,3.07411 ,30.16316 
137 ,25.7107 ,0.95123 ,3.06384 ,30.06242 
138 ,25.9026 ,0.95315 ,3.05700 ,29.99527 
139 ,26.0783 ,0.95486 ,3.04673 ,29.89453 
140 ,26.2867 ,0.95687 ,3.01935 ,29.62590 
141 ,26.4628 ,0.95869 ,3.00909 ,29.52517 
142 ,26.6546 ,0.96056 ,2.98513 ,29.29012 
143 ,26.8311 ,0.96240 ,2.96802 ,29.12223 
144 ,27.0067 ,0.96417 ,2.95433 ,28.98792 
145 ,27.1833 ,0.96591 ,2.93038 ,28.75287 
146 ,27.3912 ,0.96796 ,2.91669 ,28.61856 
147 ,27.5672 ,0.96977 ,2.89616 ,28.41709 
148 ,27.7594 ,0.97155 ,2.89273 ,28.38351 
149 ,27.9514 ,0.97359 ,2.87562 ,28.21562 
150 ,28.1271 ,0.97531 ,2.84825 ,27.94699 
151 ,28.3193 ,0.97717 ,2.83114 ,27.77910 
152 ,28.4953 ,0.97904 ,2.84482 ,27.91341 
153 ,28.6716 ,0.98076 ,2.80718 ,27.54405 
154 ,28.8477 ,0.98252 ,2.79007 ,27.37616 
155 ,29.0239 ,0.98429 ,2.78665 ,27.34258 
156 ,29.2315 ,0.98630 ,2.76269 ,27.10753 
157 ,29.4238 ,0.98828 ,2.75243 ,27.00680 
158 ,29.6001 ,0.99006 ,2.74216 ,26.90606 
159 ,29.7761 ,0.99190 ,2.73531 ,26.83891 
160 ,29.9522 ,0.99354 ,2.69767 ,26.46954 
161 ,30.1281 ,0.99529 ,2.68740 ,26.36881 
162 ,30.3041 ,0.99711 ,2.67029 ,26.20092 
163 ,30.4804 ,0.99888 ,2.65318 ,26.03303 
164 ,30.7043 ,1.00092 ,2.65660 ,26.06661 
165 ,30.8965 ,1.00294 ,2.63265 ,25.83156 
166 ,31.0727 ,1.00480 ,2.61896 ,25.69724 
167 ,31.2805 ,1.00675 ,2.61554 ,25.66367 
168 ,31.4885 ,1.00889 ,2.56763 ,25.19357 
169 ,31.6805 ,1.01083 ,2.57105 ,25.22715 
170 ,31.8569 ,1.01264 ,2.56763 ,25.19357 
171 ,32.0329 ,1.01440 ,2.54025 ,24.92494 
172 ,32.2091 ,1.01618 ,2.50945 ,24.62274 
173 ,32.3850 ,1.01794 ,2.49234 ,24.45485 
174 ,32.5613 ,1.01965 ,2.49918 ,24.52200 
175 ,32.7529 ,1.02157 ,2.47865 ,24.32053 
176 ,32.9615 ,1.02364 ,2.47865 ,24.32053 
177 ,33.1695 ,1.02574 ,2.44785 ,24.01833 
178 ,33.3776 ,1.02774 ,2.43074 ,23.85044 
179 ,33.5696 ,1.02973 ,2.40679 ,23.61539 
180 ,33.7457 ,1.03151 ,2.39652 ,23.51465 
181 ,33.9697 ,1.03363 ,2.37599 ,23.31318 
182 ,34.1618 ,1.03559 ,2.36914 ,23.24603 
183 ,34.3379 ,1.03743 ,2.35203 ,23.07814 
184 ,34.5135 ,1.03914 ,2.34519 ,23.01098 
185 ,34.6900 ,1.04093 ,2.32465 ,22.80951 
186 ,34.8981 ,1.04303 ,2.31781 ,22.74235 
187 ,35.0742 ,1.04478 ,2.29728 ,22.54088 
188 ,35.2663 ,1.04661 ,2.27674 ,22.33941 
189 ,35.4584 ,1.04854 ,2.26990 ,22.27226 
190 ,35.6502 ,1.05052 ,2.25279 ,22.10437 
191 ,35.8427 ,1.05249 ,2.22541 ,21.83574 
192 ,36.0507 ,1.05453 ,2.20488 ,21.63427 
193 ,36.2428 ,1.05647 ,2.18777 ,21.46638 
194 ,36.4348 ,1.05838 ,2.20146 ,21.60069 
195 ,36.6269 ,1.06020 ,2.16381 ,21.23133 
196 ,36.8189 ,1.06225 ,2.14670 ,21.06344 
197 ,36.9949 ,1.06400 ,2.13986 ,20.99628 
198 ,37.1710 ,1.06572 ,2.13644 ,20.96270 
199 ,37.3471 ,1.06751 ,2.10221 ,20.62692 
200 ,37.5232 ,1.06928 ,2.11248 ,20.72766 
201 ,37.7153 ,1.07113 ,2.09195 ,20.52619 
202 ,37.8752 ,1.07289 ,2.07484 ,20.35829 
203 ,38.0515 ,1.07454 ,2.06799 ,20.29114 
204 ,38.2433 ,1.07643 ,2.02693 ,19.88820 
205 ,38.4195 ,1.07823 ,2.03035 ,19.92178 
206 ,38.5957 ,1.07995 ,2.02350 ,19.85462 
207 ,38.7877 ,1.08187 ,2.00297 ,19.65315 
208 ,38.9636 ,1.08365 ,1.98244 ,19.45168 
209 ,39.1400 ,1.08546 ,1.96533 ,19.28379 
210 ,39.3158 ,1.08716 ,1.96533 ,19.28379 
211 ,39.5079 ,1.08913 ,1.94479 ,19.08232 
212 ,39.7002 ,1.09098 ,1.94137 ,19.04874 
213 ,39.8921 ,1.09293 ,1.93795 ,19.01516 
214 ,40.0683 ,1.09470 ,1.91399 ,18.78011 
215 ,40.2763 ,1.09672 ,1.90373 ,18.67938 
216 ,40.4680 ,1.09863 ,1.87977 ,18.44433 
217 ,40.6443 ,1.10044 ,1.86266 ,18.27644 
218 ,40.8206 ,1.10223 ,1.85582 ,18.20928 
219 ,41.0125 ,1.10411 ,1.85582 ,18.20928 
220 ,41.2046 ,1.10602 ,1.82502 ,17.90708 
221 ,41.3969 ,1.10802 ,1.82160 ,17.87350 
222 ,41.5729 ,1.10972 ,1.80791 ,17.73919 
223 ,41.7649 ,1.11161 ,1.77369 ,17.40340 
224 ,41.9570 ,1.11349 ,1.78053 ,17.47056 
225 ,42.1651 ,1.11566 ,1.74973 ,17.16836 
226 ,42.3572 ,1.11746 ,1.72920 ,16.96689 
227 ,42.5328 ,1.11943 ,1.73946 ,17.06762 
228 ,42.7093 ,1.12109 ,1.71893 ,16.86615 
229 ,42.9014 ,1.12303 ,1.69155 ,16.59752 
230 ,43.0776 ,1.12481 ,1.68471 ,16.53037 
231 ,43.2530 ,1.12652 ,1.67786 ,16.46321 
232 ,43.4297 ,1.12832 ,1.68129 ,16.49679 
233 ,43.6215 ,1.13017 ,1.64364 ,16.12743 
234 ,43.8138 ,1.13213 ,1.65049 ,16.19458 
235 ,44.0217 ,1.13418 ,1.60942 ,15.79164 
236 ,44.2137 ,1.13621 ,1.61627 ,15.85880 
237 ,44.4058 ,1.13802 ,1.59916 ,15.69091 
238 ,44.6141 ,1.14007 ,1.59231 ,15.62375 
239 ,44.8062 ,1.14202 ,1.56151 ,15.32155 
240 ,45.0143 ,1.14404 ,1.54440 ,15.15366 
241 ,45.2065 ,1.14613 ,1.54782 ,15.18724 
242 ,45.3825 ,1.14781 ,1.52045 ,14.91861 
243 ,45.5906 ,1.14981 ,1.52729 ,14.98577 
244 ,45.7987 ,1.15191 ,1.50333 ,14.75072 
245 ,45.9908 ,1.15389 ,1.49649 ,14.68356 
246 ,46.1989 ,1.15587 ,1.46911 ,14.41493 
247 ,46.3905 ,1.15800 ,1.44858 ,14.21346 
248 ,46.5670 ,1.15969 ,1.45200 ,14.24704 
249 ,46.7749 ,1.16173 ,1.43831 ,14.11273 
250 ,46.9670 ,1.16368 ,1.43147 ,14.04557 
251 ,47.1591 ,1.16551 ,1.39725 ,13.70979 
252 ,47.3352 ,1.16737 ,1.36987 ,13.44116 
253 ,47.5432 ,1.16941 ,1.36645 ,13.40759 
254 ,47.7193 ,1.17118 ,1.35618 ,13.30685 
255 ,47.8955 ,1.17297 ,1.33565 ,13.10538 
256 ,48.0875 ,1.17489 ,1.34934 ,13.23969 
257 ,48.2634 ,1.17664 ,1.33565 ,13.10538 
258 ,48.4397 ,1.17840 ,1.31169 ,12.87033 
259 ,48.6156 ,1.18011 ,1.29116 ,12.66886 
260 ,48.7919 ,1.18193 ,1.28432 ,12.60171 
261 ,48.9840 ,1.18381 ,1.30143 ,12.76960 
262 ,49.1757 ,1.18568 ,1.27063 ,12.46739 
263 ,49.3999 ,1.18786 ,1.23641 ,12.13161 
264 ,49.5761 ,1.18979 ,1.23298 ,12.09803 
265 ,49.7522 ,1.19158 ,1.22956 ,12.06445 
266 ,49.9441 ,1.19346 ,1.21929 ,11.96372 
267 ,50.1197 ,1.19523 ,1.19534 ,11.72867 
268 ,50.3120 ,1.19709 ,1.18850 ,11.66151 
269 ,50.4884 ,1.19885 ,1.19876 ,11.76225 
270 ,50.6643 ,1.20065 ,1.16796 ,11.46004 
271 ,50.8406 ,1.20245 ,1.15085 ,11.29215 
272 ,51.0327 ,1.20426 ,1.15085 ,11.29215 
273 ,51.2248 ,1.20611 ,1.14058 ,11.19142 
274 ,51.4328 ,1.20824 ,1.12690 ,11.05710 
275 ,51.6089 ,1.21006 ,1.10979 ,10.88921 
276 ,51.7845 ,1.21178 ,1.10294 ,10.82206 
277 ,51.9772 ,1.21368 ,1.07556 ,10.55343 
278 ,52.1692 ,1.21572 ,1.06872 ,10.48627 
279 ,52.3613 ,1.21758 ,1.05503 ,10.35196 
280 ,52.5534 ,1.21952 ,1.03108 ,10.11691 
281 ,52.7293 ,1.22139 ,1.03450 ,10.15049 
282 ,52.8892 ,1.22296 ,1.02423 ,10.04976 
283 ,53.0656 ,1.22464 ,1.01054 ,9.91544 
284 ,53.2733 ,1.22665 ,0.99001 ,9.71397 
285 ,53.4974 ,1.22878 ,0.96605 ,9.47892 
286 ,53.6736 ,1.23072 ,0.95921 ,9.41177 
287 ,53.8815 ,1.23271 ,0.95237 ,9.34461 
288 ,54.0578 ,1.23459 ,0.93525 ,9.17672 
289 ,54.2660 ,1.23656 ,0.93183 ,9.14314 
290 ,54.4582 ,1.23857 ,0.91472 ,8.97525 
291 ,54.6500 ,1.24045 ,0.90103 ,8.84094 
292 ,54.8583 ,1.24249 ,0.87708 ,8.60589 
293 ,55.0664 ,1.24461 ,0.86681 ,8.50515 
294 ,55.2585 ,1.24649 ,0.85312 ,8.37084 
295 ,55.4345 ,1.24831 ,0.83943 ,8.23653 
296 ,55.6104 ,1.25007 ,0.84970 ,8.33726 
297 ,55.8026 ,1.25198 ,0.82232 ,8.06864 
298 ,55.9946 ,1.25395 ,0.81548 ,8.00148 
299 ,56.2028 ,1.25593 ,0.80179 ,7.86717 
300 ,56.3949 ,1.25786 ,0.78468 ,7.69927 
301 ,56.5709 ,1.25969 ,0.78126 ,7.66570 
302 ,56.7467 ,1.26146 ,0.77784 ,7.63212 
303 ,56.9391 ,1.26332 ,0.74704 ,7.32991 
304 ,57.1468 ,1.26539 ,0.75046 ,7.36349 
305 ,57.3393 ,1.26732 ,0.73335 ,7.19560 
306 ,57.5313 ,1.26921 ,0.71624 ,7.02771 
307 ,57.7235 ,1.27115 ,0.70255 ,6.89340 
308 ,57.8993 ,1.27299 ,0.68886 ,6.75908 
309 ,58.0756 ,1.27473 ,0.68201 ,6.69193 
310 ,58.2835 ,1.27675 ,0.68886 ,6.75908 
311 ,58.4597 ,1.27852 ,0.65464 ,6.42330 
312 ,58.6358 ,1.28032 ,0.63410 ,6.22183 
313 ,58.8279 ,1.28224 ,0.64095 ,6.28899 
314 ,59.0199 ,1.28414 ,0.62726 ,6.15467 
315 ,59.2437 ,1.28623 ,0.61357 ,6.02036 
316 ,59.4200 ,1.28816 ,0.61357 ,6.02036 
317 ,59.6281 ,1.29014 ,0.56908 ,5.58384 
318 ,59.8360 ,1.29223 ,0.58277 ,5.71815 
319 ,60.0284 ,1.29418 ,0.57593 ,5.65100 
320 ,60.2363 ,1.29628 ,0.55539 ,5.44953 
321 ,60.4282 ,1.29823 ,0.54513 ,5.34879 
322 ,60.6040 ,1.29997 ,0.54171 ,5.31522 
323 ,60.7802 ,1.30174 ,0.52802 ,5.18090 
324 ,60.9564 ,1.30357 ,0.51091 ,5.01301 
325 ,61.1488 ,1.30546 ,0.50064 ,4.91228 
326 ,61.3407 ,1.30733 ,0.48695 ,4.77796 
327 ,61.5165 ,1.30910 ,0.47668 ,4.67723 
328 ,61.6928 ,1.31082 ,0.45615 ,4.47576 
329 ,61.8690 ,1.31267 ,0.45273 ,4.44218 
330 ,62.0609 ,1.31463 ,0.43904 ,4.30787 
331 ,62.2372 ,1.31626 ,0.41851 ,4.10640 
332 ,62.4294 ,1.31818 ,0.42877 ,4.20713 
333 ,62.6053 ,1.32004 ,0.39797 ,3.90493 
334 ,62.7815 ,1.32176 ,0.40482 ,3.97208 
335 ,62.9576 ,1.32355 ,0.38429 ,3.77061 
336 ,63.1333 ,1.32527 ,0.36718 ,3.60272 
337 ,63.3094 ,1.32703 ,0.36718 ,3.60272 
338 ,63.4857 ,1.32878 ,0.35006 ,3.43483 
339 ,63.6617 ,1.33060 ,0.32269 ,3.16620 
340 ,63.8379 ,1.33234 ,0.33295 ,3.26694 
341 ,64.0458 ,1.33435 ,0.33295 ,3.26694 
342 ,64.2220 ,1.33613 ,0.31926 ,3.13263 
343 ,64.4139 ,1.33809 ,0.29531 ,2.89758 
344 ,64.5901 ,1.33983 ,0.28847 ,2.83042 
345 ,64.7822 ,1.34183 ,0.27478 ,2.69611 
346 ,64.9903 ,1.34381 ,0.26109 ,2.56179 
347 ,65.1823 ,1.34566 ,0.26793 ,2.62895 
348 ,65.3585 ,1.34751 ,0.25424 ,2.49464 
349 ,65.5503 ,1.34943 ,0.23713 ,2.32675 
350 ,65.7263 ,1.35118 ,0.23029 ,2.25959 
351 ,65.9187 ,1.35303 ,0.21318 ,2.09170 
352 ,66.1109 ,1.35506 ,0.20976 ,2.05812 
353 ,66.3189 ,1.35709 ,0.20976 ,2.05812 
354 ,66.5108 ,1.35904 ,0.17896 ,1.75592 
355 ,66.6870 ,1.36082 ,0.18922 ,1.85665 
356 ,66.8627 ,1.36265 ,0.18238 ,1.78949 
357 ,67.0392 ,1.36432 ,0.15500 ,1.52087 
358 ,67.2312 ,1.36617 ,0.15158 ,1.48729 
359 ,67.4234 ,1.36808 ,0.14473 ,1.42013 
360 ,67.6156 ,1.37000 ,0.12420 ,1.21866 
361 ,67.8074 ,1.37192 ,0.12078 ,1.18508 
362 ,67.9834 ,1.37370 ,0.11051 ,1.08435 
363 ,68.1754 ,1.37566 ,0.08314 ,0.81572 
364 ,68.3518 ,1.37742 ,0.08314 ,0.81572 
365 ,68.5439 ,1.37929 ,0.07971 ,0.78214 
366 ,68.7359 ,1.38125 ,0.05918 ,0.58067 
367 ,68.9116 ,1.38302 ,0.03865 ,0.37920 
368 ,69.1037 ,1.38487 ,0.04549 ,0.44636 
369 ,69.2800 ,1.38669 ,0.04549 ,0.44636 
370 ,69.4720 ,1.38858 ,0.01469 ,0.14416 
371 ,69.6483 ,1.39042 ,0.01127 ,0.11058 
372 ,69.8402 ,1.39226 ,-0.00242 ,-0.02373 
373 ,70.0319 ,1.39417 ,-0.01269 ,-0.12447 
374 ,70.2080 ,1.39605 ,-0.00584 ,-0.05731 
375 ,70.3680 ,1.39771 ,-0.01953 ,-0.19163 
376 ,70.5441 ,1.39934 ,-0.04006 ,-0.39310 
377 ,70.7207 ,1.40109 ,-0.02980 ,-0.29236 
378 ,70.8968 ,1.40290 ,-0.06744 ,-0.66172 
379 ,71.0888 ,1.40475 ,-0.06060 ,-0.59457 
380 ,71.2810 ,1.40664 ,-0.06744 ,-0.66172 
381 ,71.4728 ,1.40868 ,-0.08113 ,-0.79604 
382 ,71.6490 ,1.41039 ,-0.09140 ,-0.89677 
383 ,71.8410 ,1.41228 ,-0.08455 ,-0.82961 
384 ,72.0171 ,1.41406 ,-0.11877 ,-1.16540 
385 ,72.1927 ,1.41580 ,-0.11877 ,-1.16540 
386 ,72.3852 ,1.41774 ,-0.10851 ,-1.06466 
387 ,72.5770 ,1.41969 ,-0.13246 ,-1.29971 
388 ,72.7532 ,1.42141 ,-0.17353 ,-1.70265 
389 ,72.9452 ,1.42333 ,-0.15299 ,-1.50118 
390 ,73.1377 ,1.42518 ,-0.17695 ,-1.73623 
391 ,73.3453 ,1.42731 ,-0.16668 ,-1.63549 
392 ,73.5218 ,1.42908 ,-0.18037 ,-1.76981 
393 ,73.7137 ,1.43094 ,-0.19406 ,-1.90412 
394 ,73.9059 ,1.43291 ,-0.19064 ,-1.87054 
395 ,74.0979 ,1.43480 ,-0.21459 ,-2.10559 
396 ,74.2901 ,1.43668 ,-0.24197 ,-2.37422 
397 ,74.4979 ,1.43888 ,-0.22828 ,-2.23990 
398 ,74.6903 ,1.44069 ,-0.23855 ,-2.34064 
399 ,74.8981 ,1.44281 ,-0.26250 ,-2.57569 
400 ,75.0905 ,1.44479 ,-0.27277 ,-2.67642 
401 ,75.2821 ,1.44678 ,-0.28304 ,-2.77716 
402 ,75.4582 ,1.44843 ,-0.28646 ,-2.81073 
403 ,75.6343 ,1.45020 ,-0.28988 ,-2.84431 
404 ,75.8267 ,1.45215 ,-0.29330 ,-2.87789 
405 ,76.0029 ,1.45390 ,-0.30015 ,-2.94505 
406 ,76.1789 ,1.45569 ,-0.30699 ,-3.01220 
407 ,76.3709 ,1.45757 ,-0.34121 ,-3.34799 
408 ,76.5465 ,1.45935 ,-0.33779 ,-3.31441 
409 ,76.7231 ,1.46111 ,-0.32752 ,-3.21367 
410 ,76.9312 ,1.46308 ,-0.34806 ,-3.41514 
411 ,77.1234 ,1.46511 ,-0.36175 ,-3.54946 
412 ,77.3152 ,1.46699 ,-0.37886 ,-3.71735 
413 ,77.5233 ,1.46909 ,-0.37544 ,-3.68377 
414 ,77.7156 ,1.47097 ,-0.40966 ,-4.01955 
415 ,77.9233 ,1.47302 ,-0.40281 ,-3.95240 
416 ,78.1157 ,1.47493 ,-0.41308 ,-4.05313 
417 ,78.3235 ,1.47706 ,-0.40966 ,-4.01955 
418 ,78.5160 ,1.47903 ,-0.44730 ,-4.38891 
419 ,78.7078 ,1.48096 ,-0.44388 ,-4.35534 
420 ,78.8839 ,1.48271 ,-0.44046 ,-4.32176 
421 ,79.0600 ,1.48446 ,-0.44388 ,-4.35534 
422 ,79.2521 ,1.48634 ,-0.47468 ,-4.65754 
423 ,79.4601 ,1.48847 ,-0.47468 ,-4.65754 
424 ,79.6522 ,1.49031 ,-0.49179 ,-4.82543 
425 ,79.8282 ,1.49214 ,-0.50890 ,-4.99332 
426 ,80.0204 ,1.49407 ,-0.49521 ,-4.85901 
427 ,80.1963 ,1.49583 ,-0.52601 ,-5.16121 
428 ,80.3725 ,1.49757 ,-0.52601 ,-5.16121 
429 ,80.5485 ,1.49933 ,-0.54312 ,-5.32911 
430 ,80.7245 ,1.50109 ,-0.52259 ,-5.12764 
431 ,80.9007 ,1.50293 ,-0.53970 ,-5.29553 
432 ,81.0927 ,1.50474 ,-0.58077 ,-5.69847 
433 ,81.2687 ,1.50654 ,-0.55681 ,-5.46342 
434 ,81.4448 ,1.50829 ,-0.56708 ,-5.56415 
435 ,81.6370 ,1.51023 ,-0.58761 ,-5.76562 
436 ,81.8131 ,1.51197 ,-0.59788 ,-5.86636 
437 ,81.9890 ,1.51372 ,-0.60814 ,-5.96709 
438 ,82.1812 ,1.51565 ,-0.60472 ,-5.93352 
439 ,82.3572 ,1.51743 ,-0.61841 ,-6.06783 
440 ,82.5494 ,1.51934 ,-0.62183 ,-6.10141 
441 ,82.7416 ,1.52118 ,-0.62868 ,-6.16856 
442 ,82.9172 ,1.52300 ,-0.64236 ,-6.30288 
443 ,83.1098 ,1.52491 ,-0.64236 ,-6.30288 
444 ,83.3174 ,1.52696 ,-0.65947 ,-6.47077 
445 ,83.5093 ,1.52890 ,-0.66632 ,-6.53793 
446 ,83.6854 ,1.53074 ,-0.67316 ,-6.60508 
447 ,83.8614 ,1.53252 ,-0.70396 ,-6.90729 
448 ,84.0377 ,1.53422 ,-0.70054 ,-6.87371 
449 ,84.2301 ,1.53612 ,-0.69712 ,-6.84013 
450 ,84.4382 ,1.53816 ,-0.72450 ,-7.10876 
451 ,84.6303 ,1.54010 ,-0.72107 ,-7.07518 
452 ,84.8065 ,1.54195 ,-0.73134 ,-7.17591 
453 ,84.9985 ,1.54381 ,-0.74503 ,-7.31023 
454 ,85.1905 ,1.54568 ,-0.74161 ,-7.27665 
455 ,85.3666 ,1.54756 ,-0.75187 ,-7.37738 
456 ,85.5902 ,1.54957 ,-0.75872 ,-7.44454 
457 ,85.7666 ,1.55151 ,-0.77241 ,-7.57885 
458 ,85.9748 ,1.55349 ,-0.77925 ,-7.64601 
459 ,86.1663 ,1.55545 ,-0.79294 ,-7.78032 
460 ,86.3749 ,1.55759 ,-0.80321 ,-7.88106 
461 ,86.5670 ,1.55954 ,-0.81347 ,-7.98179 
462 ,86.7431 ,1.56128 ,-0.79978 ,-7.84748 
463 ,86.9352 ,1.56320 ,-0.83058 ,-8.14968 
