Data stamp = , 24-04-2022 14:49:01 419

Calibration Values: 
Slope = , 26.54 , g/V 
Offset Voltage at no contact = , -0.501760 , V 

No , Time , Stage Position ,   Mass , Force 
   ,  (s) ,      (mm)      ,   (g)  , (mN)  

1 ,0.0000 ,0.69936 ,5.29852 ,51.98905 
2 ,0.2129 ,0.69945 ,5.30878 ,52.08979 
3 ,0.5649 ,0.70038 ,5.29510 ,51.95548 
4 ,0.7569 ,0.70192 ,5.29510 ,51.95548 
5 ,0.9495 ,0.70359 ,5.31221 ,52.12337 
6 ,1.1574 ,0.70563 ,5.31563 ,52.15694 
7 ,1.3336 ,0.70740 ,5.32589 ,52.25768 
8 ,1.5097 ,0.70916 ,5.31221 ,52.12337 
9 ,1.7018 ,0.71110 ,5.28483 ,51.85474 
10 ,1.8938 ,0.71308 ,5.28825 ,51.88832 
11 ,2.0855 ,0.71490 ,5.26430 ,51.65327 
12 ,2.2617 ,0.71674 ,5.25403 ,51.55254 
13 ,2.4542 ,0.71868 ,5.24376 ,51.45180 
14 ,2.6460 ,0.72056 ,5.20954 ,51.11602 
15 ,2.8222 ,0.72236 ,5.20270 ,51.04886 
16 ,2.9980 ,0.72416 ,5.18559 ,50.88097 
17 ,3.1903 ,0.72601 ,5.17532 ,50.78023 
18 ,3.3824 ,0.72787 ,5.14110 ,50.44445 
19 ,3.5743 ,0.72993 ,5.13425 ,50.37729 
20 ,3.7506 ,0.73165 ,5.12741 ,50.31014 
21 ,3.9583 ,0.73352 ,5.10003 ,50.04151 
22 ,4.1504 ,0.73563 ,5.08292 ,49.87362 
23 ,4.3588 ,0.73761 ,5.04185 ,49.47068 
24 ,4.5509 ,0.73962 ,5.05554 ,49.60499 
25 ,4.7586 ,0.74163 ,5.01106 ,49.16848 
26 ,4.9670 ,0.74370 ,4.98368 ,48.89985 
27 ,5.1751 ,0.74580 ,4.97683 ,48.83269 
28 ,5.3832 ,0.74777 ,4.94261 ,48.49691 
29 ,5.5749 ,0.74985 ,4.92892 ,48.36260 
30 ,5.7513 ,0.75166 ,4.91866 ,48.26186 
31 ,5.9433 ,0.75347 ,4.88101 ,47.89250 
32 ,6.1191 ,0.75533 ,4.86390 ,47.72461 
33 ,6.2953 ,0.75713 ,4.86390 ,47.72461 
34 ,6.5036 ,0.75914 ,4.83652 ,47.45598 
35 ,6.6955 ,0.76098 ,4.82626 ,47.35525 
36 ,6.8717 ,0.76286 ,4.79888 ,47.08662 
37 ,7.0478 ,0.76459 ,4.79546 ,47.05304 
38 ,7.2555 ,0.76654 ,4.75439 ,46.65010 
39 ,7.4480 ,0.76857 ,4.74755 ,46.58295 
40 ,7.6561 ,0.77061 ,4.72017 ,46.31432 
41 ,7.8482 ,0.77259 ,4.69622 ,46.07927 
42 ,8.0402 ,0.77452 ,4.68595 ,45.97854 
43 ,8.2319 ,0.77637 ,4.67226 ,45.84422 
44 ,8.4078 ,0.77825 ,4.65857 ,45.70991 
45 ,8.5999 ,0.78004 ,4.61751 ,45.30697 
46 ,8.7926 ,0.78198 ,4.62093 ,45.34055 
47 ,9.0007 ,0.78406 ,4.59013 ,45.03835 
48 ,9.1927 ,0.78602 ,4.57986 ,44.93761 
49 ,9.3844 ,0.78785 ,4.56617 ,44.80330 
50 ,9.5608 ,0.78970 ,4.55249 ,44.66898 
51 ,9.7690 ,0.79177 ,4.51826 ,44.33320 
52 ,9.9611 ,0.79365 ,4.50457 ,44.19889 
53 ,10.1531 ,0.79555 ,4.48746 ,44.03100 
54 ,10.3292 ,0.79739 ,4.47378 ,43.89668 
55 ,10.5048 ,0.79919 ,4.44298 ,43.59448 
56 ,10.6974 ,0.80094 ,4.43271 ,43.49374 
57 ,10.8891 ,0.80300 ,4.40191 ,43.19154 
58 ,11.0653 ,0.80475 ,4.41218 ,43.29227 
59 ,11.2576 ,0.80660 ,4.37795 ,42.95649 
60 ,11.4496 ,0.80855 ,4.35742 ,42.75502 
61 ,11.6252 ,0.81034 ,4.34031 ,42.58713 
62 ,11.8179 ,0.81215 ,4.33689 ,42.55355 
63 ,12.0099 ,0.81419 ,4.31293 ,42.31850 
64 ,12.2180 ,0.81620 ,4.28213 ,42.01630 
65 ,12.4101 ,0.81811 ,4.27871 ,41.98272 
66 ,12.6181 ,0.82014 ,4.26845 ,41.88198 
67 ,12.8102 ,0.82218 ,4.22396 ,41.44547 
68 ,13.0183 ,0.82423 ,4.21369 ,41.34473 
69 ,13.2102 ,0.82623 ,4.20685 ,41.27758 
70 ,13.3865 ,0.82796 ,4.18631 ,41.07611 
71 ,13.6106 ,0.83003 ,4.15209 ,40.74032 
72 ,13.8185 ,0.83224 ,4.13840 ,40.60601 
73 ,13.9944 ,0.83398 ,4.11103 ,40.33738 
74 ,14.1868 ,0.83586 ,4.11787 ,40.40454 
75 ,14.3789 ,0.83783 ,4.09049 ,40.13591 
76 ,14.5868 ,0.83989 ,4.05627 ,39.80013 
77 ,14.7790 ,0.84183 ,4.03574 ,39.59866 
78 ,14.9550 ,0.84365 ,4.02547 ,39.49793 
79 ,15.1469 ,0.84554 ,4.01178 ,39.36361 
80 ,15.3232 ,0.84738 ,4.00152 ,39.26288 
81 ,15.4993 ,0.84908 ,3.98098 ,39.06141 
82 ,15.6913 ,0.85095 ,3.96387 ,38.89352 
83 ,15.8835 ,0.85287 ,3.95018 ,38.75920 
84 ,16.0913 ,0.85480 ,3.92965 ,38.55773 
85 ,16.2835 ,0.85688 ,3.92281 ,38.49058 
86 ,16.4753 ,0.85876 ,3.90227 ,38.28911 
87 ,16.6517 ,0.86056 ,3.88858 ,38.15479 
88 ,16.8439 ,0.86249 ,3.85779 ,37.85259 
89 ,17.0355 ,0.86435 ,3.84752 ,37.75185 
90 ,17.2119 ,0.86620 ,3.82014 ,37.48323 
91 ,17.3880 ,0.86792 ,3.78934 ,37.18102 
92 ,17.5640 ,0.86980 ,3.79961 ,37.28176 
93 ,17.7398 ,0.87146 ,3.78934 ,37.18102 
94 ,17.9323 ,0.87340 ,3.76196 ,36.91240 
95 ,18.1241 ,0.87523 ,3.75512 ,36.84524 
96 ,18.3005 ,0.87708 ,3.73459 ,36.64377 
97 ,18.5244 ,0.87930 ,3.69352 ,36.24083 
98 ,18.7167 ,0.88124 ,3.69010 ,36.20725 
99 ,18.9245 ,0.88326 ,3.67983 ,36.10652 
100 ,19.1008 ,0.88503 ,3.65246 ,35.83789 
101 ,19.3088 ,0.88708 ,3.63534 ,35.67000 
102 ,19.5165 ,0.88915 ,3.62166 ,35.53569 
103 ,19.6929 ,0.89100 ,3.60797 ,35.40137 
104 ,19.8850 ,0.89287 ,3.58401 ,35.16632 
105 ,20.0930 ,0.89492 ,3.56006 ,34.93128 
106 ,20.2687 ,0.89673 ,3.54637 ,34.79696 
107 ,20.4612 ,0.89860 ,3.53610 ,34.69623 
108 ,20.6533 ,0.90065 ,3.50872 ,34.42760 
109 ,20.8295 ,0.90236 ,3.49846 ,34.32687 
110 ,21.0213 ,0.90430 ,3.48135 ,34.15898 
111 ,21.2136 ,0.90612 ,3.47450 ,34.09182 
112 ,21.3892 ,0.90793 ,3.44028 ,33.75604 
113 ,21.5654 ,0.90968 ,3.42659 ,33.62172 
114 ,21.7418 ,0.91148 ,3.41975 ,33.55457 
115 ,21.9340 ,0.91333 ,3.40606 ,33.42025 
116 ,22.1419 ,0.91545 ,3.37184 ,33.08447 
117 ,22.3182 ,0.91725 ,3.36842 ,33.05089 
118 ,22.5100 ,0.91922 ,3.34104 ,32.78227 
119 ,22.6858 ,0.92094 ,3.32735 ,32.64795 
120 ,22.8782 ,0.92268 ,3.31708 ,32.54722 
121 ,23.0543 ,0.92454 ,3.31708 ,32.54722 
122 ,23.2305 ,0.92635 ,3.29997 ,32.37933 
123 ,23.4225 ,0.92827 ,3.26575 ,32.04354 
124 ,23.6146 ,0.93010 ,3.26233 ,32.00996 
125 ,23.8065 ,0.93208 ,3.24522 ,31.84207 
126 ,23.9828 ,0.93384 ,3.22126 ,31.60702 
127 ,24.1748 ,0.93574 ,3.22811 ,31.67418 
128 ,24.3506 ,0.93756 ,3.20757 ,31.47271 
129 ,24.5426 ,0.93944 ,3.17677 ,31.17051 
130 ,24.7349 ,0.94130 ,3.18020 ,31.20409 
131 ,24.9432 ,0.94345 ,3.13913 ,30.80115 
132 ,25.1351 ,0.94534 ,3.14940 ,30.90188 
133 ,25.3434 ,0.94744 ,3.10149 ,30.43178 
134 ,25.5355 ,0.94942 ,3.10149 ,30.43178 
135 ,25.6949 ,0.95111 ,3.09464 ,30.36463 
136 ,25.8714 ,0.95278 ,3.08780 ,30.29747 
137 ,26.0475 ,0.95455 ,3.06384 ,30.06242 
138 ,26.2236 ,0.95633 ,3.03989 ,29.82737 
139 ,26.3996 ,0.95807 ,3.01935 ,29.62590 
140 ,26.5918 ,0.95987 ,3.01251 ,29.55875 
141 ,26.7996 ,0.96194 ,2.98513 ,29.29012 
142 ,26.9759 ,0.96377 ,2.96802 ,29.12223 
143 ,27.1679 ,0.96562 ,2.96118 ,29.05507 
144 ,27.4080 ,0.96786 ,2.96118 ,29.05507 
145 ,27.5842 ,0.96987 ,2.93038 ,28.75287 
146 ,27.7922 ,0.97187 ,2.92353 ,28.68571 
147 ,27.9683 ,0.97372 ,2.89958 ,28.45066 
148 ,28.1923 ,0.97578 ,2.87220 ,28.18204 
149 ,28.3685 ,0.97771 ,2.87220 ,28.18204 
150 ,28.5765 ,0.97977 ,2.83798 ,27.84625 
151 ,28.7526 ,0.98155 ,2.83114 ,27.77910 
152 ,28.9606 ,0.98356 ,2.80718 ,27.54405 
153 ,29.1367 ,0.98537 ,2.79007 ,27.37616 
154 ,29.3130 ,0.98716 ,2.77638 ,27.24185 
155 ,29.5050 ,0.98905 ,2.77638 ,27.24185 
156 ,29.6971 ,0.99093 ,2.74216 ,26.90606 
157 ,29.8892 ,0.99296 ,2.74558 ,26.93964 
158 ,30.0812 ,0.99474 ,2.72847 ,26.77175 
159 ,30.2893 ,0.99688 ,2.71820 ,26.67101 
160 ,30.4973 ,0.99885 ,2.69767 ,26.46954 
161 ,30.7055 ,1.00090 ,2.67029 ,26.20092 
162 ,30.8975 ,1.00299 ,2.66003 ,26.10018 
163 ,31.0891 ,1.00490 ,2.64976 ,25.99945 
164 ,31.2656 ,1.00670 ,2.62923 ,25.79798 
165 ,31.4898 ,1.00873 ,2.60527 ,25.56293 
166 ,31.6817 ,1.01084 ,2.59843 ,25.49577 
167 ,31.8579 ,1.01258 ,2.58474 ,25.36146 
168 ,32.0498 ,1.01444 ,2.56078 ,25.12641 
169 ,32.2421 ,1.01641 ,2.55736 ,25.09283 
170 ,32.4340 ,1.01832 ,2.52314 ,24.75705 
171 ,32.6263 ,1.02025 ,2.53341 ,24.85779 
172 ,32.8185 ,1.02223 ,2.50261 ,24.55558 
173 ,33.0105 ,1.02405 ,2.49576 ,24.48842 
174 ,33.1862 ,1.02589 ,2.47523 ,24.28696 
175 ,33.3786 ,1.02780 ,2.47181 ,24.25338 
176 ,33.5545 ,1.02954 ,2.43759 ,23.91759 
177 ,33.7307 ,1.03134 ,2.41021 ,23.64897 
178 ,33.9228 ,1.03328 ,2.41363 ,23.68255 
179 ,34.0988 ,1.03504 ,2.39652 ,23.51465 
180 ,34.2905 ,1.03695 ,2.37599 ,23.31318 
181 ,34.4831 ,1.03879 ,2.37256 ,23.27961 
182 ,34.6751 ,1.04068 ,2.34519 ,23.01098 
183 ,34.8672 ,1.04260 ,2.33834 ,22.94382 
184 ,35.0593 ,1.04451 ,2.32123 ,22.77593 
185 ,35.2513 ,1.04650 ,2.28701 ,22.44015 
186 ,35.4275 ,1.04823 ,2.29728 ,22.54088 
187 ,35.6196 ,1.05023 ,2.29385 ,22.50731 
188 ,35.8117 ,1.05215 ,2.24937 ,22.07079 
189 ,36.0197 ,1.05400 ,2.24594 ,22.03721 
190 ,36.2118 ,1.05613 ,2.21857 ,21.76858 
191 ,36.4196 ,1.05804 ,2.22883 ,21.86932 
192 ,36.6121 ,1.06011 ,2.19461 ,21.53353 
193 ,36.8201 ,1.06211 ,2.19803 ,21.56711 
194 ,37.0121 ,1.06415 ,2.17066 ,21.29849 
195 ,37.1882 ,1.06585 ,2.14670 ,21.06344 
196 ,37.3643 ,1.06763 ,2.14670 ,21.06344 
197 ,37.5399 ,1.06953 ,2.14328 ,21.02986 
198 ,37.7163 ,1.07117 ,2.12275 ,20.82839 
199 ,37.8921 ,1.07289 ,2.10906 ,20.69408 
200 ,38.1005 ,1.07490 ,2.09537 ,20.55976 
201 ,38.2925 ,1.07683 ,2.07141 ,20.32472 
202 ,38.4687 ,1.07864 ,2.05088 ,20.12325 
203 ,38.6444 ,1.08049 ,2.05088 ,20.12325 
204 ,38.8208 ,1.08221 ,2.04061 ,20.02251 
205 ,39.0128 ,1.08400 ,2.02693 ,19.88820 
206 ,39.1890 ,1.08588 ,1.98928 ,19.51884 
207 ,39.3810 ,1.08776 ,2.01324 ,19.75388 
208 ,39.5572 ,1.08954 ,1.97559 ,19.38452 
209 ,39.7648 ,1.09155 ,1.95506 ,19.18305 
210 ,39.9573 ,1.09347 ,1.96190 ,19.25021 
211 ,40.1333 ,1.09531 ,1.94822 ,19.11590 
212 ,40.3415 ,1.09739 ,1.92084 ,18.84727 
213 ,40.5493 ,1.09949 ,1.90715 ,18.71296 
214 ,40.7412 ,1.10134 ,1.89688 ,18.61222 
215 ,40.9332 ,1.10325 ,1.88319 ,18.47791 
216 ,41.1098 ,1.10502 ,1.85582 ,18.20928 
217 ,41.3017 ,1.10693 ,1.85240 ,18.17570 
218 ,41.4778 ,1.10875 ,1.84213 ,18.07497 
219 ,41.6859 ,1.11077 ,1.81475 ,17.80634 
220 ,41.8614 ,1.11263 ,1.81475 ,17.80634 
221 ,42.0381 ,1.11435 ,1.80791 ,17.73919 
222 ,42.2300 ,1.11620 ,1.78395 ,17.50414 
223 ,42.4223 ,1.11816 ,1.76000 ,17.26909 
224 ,42.6143 ,1.12003 ,1.75315 ,17.20193 
225 ,42.8065 ,1.12197 ,1.72920 ,16.96689 
226 ,42.9824 ,1.12388 ,1.73604 ,17.03404 
227 ,43.1585 ,1.12557 ,1.71209 ,16.79899 
228 ,43.3664 ,1.12758 ,1.68813 ,16.56395 
229 ,43.5587 ,1.12955 ,1.67786 ,16.46321 
230 ,43.7349 ,1.13134 ,1.67786 ,16.46321 
231 ,43.9425 ,1.13334 ,1.65049 ,16.19458 
232 ,44.1350 ,1.13526 ,1.65049 ,16.19458 
233 ,44.3430 ,1.13736 ,1.62311 ,15.92596 
234 ,44.5192 ,1.13918 ,1.62311 ,15.92596 
235 ,44.7271 ,1.14119 ,1.58204 ,15.52302 
236 ,44.9194 ,1.14320 ,1.57520 ,15.45586 
237 ,45.0953 ,1.14492 ,1.57862 ,15.48944 
238 ,45.3035 ,1.14691 ,1.54440 ,15.15366 
239 ,45.4954 ,1.14892 ,1.54782 ,15.18724 
240 ,45.6717 ,1.15065 ,1.53413 ,15.05292 
241 ,45.8636 ,1.15259 ,1.51018 ,14.81787 
242 ,46.0398 ,1.15440 ,1.48280 ,14.54925 
243 ,46.2318 ,1.15625 ,1.49307 ,14.64998 
244 ,46.4081 ,1.15806 ,1.48280 ,14.54925 
245 ,46.6159 ,1.16005 ,1.47253 ,14.44851 
246 ,46.8241 ,1.16212 ,1.44174 ,14.14631 
247 ,47.0002 ,1.16398 ,1.42805 ,14.01199 
248 ,47.1918 ,1.16581 ,1.42805 ,14.01199 
249 ,47.3844 ,1.16772 ,1.40409 ,13.77695 
250 ,47.5924 ,1.16983 ,1.41778 ,13.91126 
251 ,47.7685 ,1.17161 ,1.38356 ,13.57548 
252 ,47.9764 ,1.17364 ,1.36645 ,13.40759 
253 ,48.1846 ,1.17574 ,1.33907 ,13.13896 
254 ,48.3766 ,1.17763 ,1.34249 ,13.17254 
255 ,48.5682 ,1.17963 ,1.32880 ,13.03822 
256 ,48.7445 ,1.18139 ,1.31512 ,12.90391 
257 ,48.9528 ,1.18343 ,1.30143 ,12.76960 
258 ,49.1288 ,1.18524 ,1.29458 ,12.70244 
259 ,49.3051 ,1.18696 ,1.26720 ,12.43381 
260 ,49.4971 ,1.18891 ,1.25694 ,12.33308 
261 ,49.6891 ,1.19087 ,1.25352 ,12.29950 
262 ,49.8812 ,1.19275 ,1.21929 ,11.96372 
263 ,50.0734 ,1.19470 ,1.21245 ,11.89656 
264 ,50.2650 ,1.19660 ,1.21245 ,11.89656 
265 ,50.4410 ,1.19834 ,1.17823 ,11.56078 
266 ,50.6177 ,1.20015 ,1.16796 ,11.46004 
267 ,50.8097 ,1.20205 ,1.18165 ,11.59436 
268 ,51.0178 ,1.20406 ,1.15085 ,11.29215 
269 ,51.2099 ,1.20597 ,1.15427 ,11.32573 
270 ,51.4019 ,1.20792 ,1.11663 ,10.95637 
271 ,51.5939 ,1.20986 ,1.10294 ,10.82206 
272 ,51.7860 ,1.21175 ,1.08583 ,10.65416 
273 ,51.9782 ,1.21365 ,1.07899 ,10.58701 
274 ,52.1702 ,1.21556 ,1.08241 ,10.62059 
275 ,52.3782 ,1.21758 ,1.05161 ,10.31838 
276 ,52.5700 ,1.21955 ,1.05503 ,10.35196 
277 ,52.7625 ,1.22155 ,1.03792 ,10.18407 
278 ,52.9544 ,1.22344 ,1.00028 ,9.81471 
279 ,53.1306 ,1.22522 ,1.00712 ,9.88186 
280 ,53.3064 ,1.22701 ,1.00370 ,9.84829 
281 ,53.4987 ,1.22887 ,0.97632 ,9.57966 
282 ,53.6903 ,1.23088 ,0.96605 ,9.47892 
283 ,53.8668 ,1.23261 ,0.97290 ,9.54608 
284 ,54.0426 ,1.23433 ,0.94894 ,9.31103 
285 ,54.2191 ,1.23611 ,0.93525 ,9.17672 
286 ,54.4112 ,1.23806 ,0.92157 ,9.04241 
287 ,54.6031 ,1.23994 ,0.92841 ,9.10956 
288 ,54.7788 ,1.24172 ,0.88734 ,8.70662 
289 ,54.9553 ,1.24347 ,0.87708 ,8.60589 
290 ,55.1474 ,1.24542 ,0.87366 ,8.57231 
291 ,55.3392 ,1.24732 ,0.87023 ,8.53873 
292 ,55.5155 ,1.24907 ,0.83943 ,8.23653 
293 ,55.7075 ,1.25093 ,0.84628 ,8.30368 
294 ,55.8837 ,1.25275 ,0.83259 ,8.16937 
295 ,56.0918 ,1.25478 ,0.81206 ,7.96790 
296 ,56.2836 ,1.25669 ,0.81206 ,7.96790 
297 ,56.4918 ,1.25867 ,0.78810 ,7.73285 
298 ,56.6838 ,1.26065 ,0.77099 ,7.56496 
299 ,56.8597 ,1.26252 ,0.77099 ,7.56496 
300 ,57.0522 ,1.26437 ,0.75388 ,7.39707 
301 ,57.2602 ,1.26650 ,0.73335 ,7.19560 
302 ,57.4363 ,1.26831 ,0.72308 ,7.09486 
303 ,57.6443 ,1.27032 ,0.72308 ,7.09486 
304 ,57.8205 ,1.27214 ,0.71624 ,7.02771 
305 ,58.0125 ,1.27398 ,0.68886 ,6.75908 
306 ,58.1885 ,1.27581 ,0.67175 ,6.59119 
307 ,58.3807 ,1.27774 ,0.67859 ,6.65835 
308 ,58.5883 ,1.27975 ,0.64437 ,6.32256 
309 ,58.7643 ,1.28153 ,0.65464 ,6.42330 
310 ,58.9404 ,1.28331 ,0.64779 ,6.35614 
311 ,59.1169 ,1.28507 ,0.62042 ,6.08752 
312 ,59.3090 ,1.28701 ,0.60330 ,5.91962 
313 ,59.4851 ,1.28876 ,0.61357 ,6.02036 
314 ,59.6772 ,1.29061 ,0.58619 ,5.75173 
315 ,59.8531 ,1.29244 ,0.57251 ,5.61742 
316 ,60.0610 ,1.29446 ,0.57251 ,5.61742 
317 ,60.2372 ,1.29632 ,0.54855 ,5.38237 
318 ,60.4615 ,1.29836 ,0.55197 ,5.41595 
319 ,60.6537 ,1.30042 ,0.53144 ,5.21448 
320 ,60.8457 ,1.30233 ,0.52459 ,5.14732 
321 ,61.0377 ,1.30422 ,0.51433 ,5.04659 
322 ,61.2454 ,1.30616 ,0.49037 ,4.81154 
323 ,61.4219 ,1.30814 ,0.48695 ,4.77796 
324 ,61.6139 ,1.31010 ,0.46984 ,4.61007 
325 ,61.7899 ,1.31184 ,0.46300 ,4.54291 
326 ,61.9819 ,1.31367 ,0.47668 ,4.67723 
327 ,62.1580 ,1.31550 ,0.44931 ,4.40860 
328 ,62.3342 ,1.31731 ,0.41851 ,4.10640 
329 ,62.5261 ,1.31909 ,0.42193 ,4.13997 
330 ,62.7025 ,1.32094 ,0.41509 ,4.07282 
331 ,62.8944 ,1.32283 ,0.39797 ,3.90493 
332 ,63.0865 ,1.32474 ,0.39113 ,3.83777 
333 ,63.2785 ,1.32675 ,0.38771 ,3.80419 
334 ,63.4867 ,1.32864 ,0.36033 ,3.53557 
335 ,63.6947 ,1.33075 ,0.35349 ,3.46841 
336 ,63.8866 ,1.33277 ,0.35006 ,3.43483 
337 ,64.0629 ,1.33449 ,0.33638 ,3.30052 
338 ,64.2552 ,1.33632 ,0.33295 ,3.26694 
339 ,64.4308 ,1.33817 ,0.30900 ,3.03189 
340 ,64.6074 ,1.33993 ,0.29873 ,2.93116 
341 ,64.8155 ,1.34187 ,0.30215 ,2.96473 
342 ,65.0075 ,1.34397 ,0.26793 ,2.62895 
343 ,65.1995 ,1.34579 ,0.27820 ,2.72969 
344 ,65.3916 ,1.34774 ,0.25424 ,2.49464 
345 ,65.5676 ,1.34959 ,0.25082 ,2.46106 
346 ,65.7597 ,1.35137 ,0.24740 ,2.42748 
347 ,65.9358 ,1.35321 ,0.23371 ,2.29317 
348 ,66.1278 ,1.35516 ,0.21318 ,2.09170 
349 ,66.3035 ,1.35691 ,0.19607 ,1.92381 
350 ,66.4960 ,1.35876 ,0.20633 ,2.02454 
351 ,66.6882 ,1.36076 ,0.18238 ,1.78949 
352 ,66.8801 ,1.36267 ,0.17896 ,1.75592 
353 ,67.0561 ,1.36443 ,0.17896 ,1.75592 
354 ,67.2478 ,1.36628 ,0.16185 ,1.58802 
355 ,67.4404 ,1.36821 ,0.16185 ,1.58802 
356 ,67.6321 ,1.37016 ,0.13789 ,1.35298 
357 ,67.8244 ,1.37204 ,0.12078 ,1.18508 
358 ,68.0008 ,1.37388 ,0.11393 ,1.11793 
359 ,68.2086 ,1.37592 ,0.08314 ,0.81572 
360 ,68.3845 ,1.37768 ,0.07287 ,0.71499 
361 ,68.5770 ,1.37962 ,0.09340 ,0.91646 
362 ,68.7525 ,1.38144 ,0.06260 ,0.61425 
363 ,68.9286 ,1.38313 ,0.05234 ,0.51352 
364 ,69.1046 ,1.38496 ,0.06602 ,0.64783 
365 ,69.2970 ,1.38682 ,0.05918 ,0.58067 
366 ,69.4893 ,1.38882 ,0.02154 ,0.21131 
367 ,69.6815 ,1.39064 ,0.02838 ,0.27847 
368 ,69.8734 ,1.39255 ,0.01469 ,0.14416 
369 ,70.0655 ,1.39447 ,0.00100 ,0.00984 
370 ,70.2410 ,1.39628 ,-0.01953 ,-0.19163 
371 ,70.4337 ,1.39819 ,-0.00584 ,-0.05731 
372 ,70.6100 ,1.39998 ,-0.03664 ,-0.35952 
373 ,70.7858 ,1.40170 ,-0.03664 ,-0.35952 
374 ,70.9940 ,1.40371 ,-0.02980 ,-0.29236 
375 ,71.1859 ,1.40565 ,-0.06402 ,-0.62814 
376 ,71.3621 ,1.40747 ,-0.07086 ,-0.69530 
377 ,71.5702 ,1.40947 ,-0.05717 ,-0.56099 
378 ,71.7622 ,1.41142 ,-0.08455 ,-0.82961 
379 ,71.9218 ,1.41319 ,-0.09482 ,-0.93035 
380 ,72.0985 ,1.41486 ,-0.11535 ,-1.13182 
381 ,72.2903 ,1.41674 ,-0.10166 ,-0.99751 
382 ,72.4665 ,1.41858 ,-0.12562 ,-1.23255 
383 ,72.6425 ,1.42040 ,-0.12904 ,-1.26613 
384 ,72.8186 ,1.42202 ,-0.13588 ,-1.33329 
385 ,72.9944 ,1.42378 ,-0.12904 ,-1.26613 
386 ,73.1868 ,1.42562 ,-0.16326 ,-1.60191 
387 ,73.4109 ,1.42794 ,-0.15984 ,-1.56834 
388 ,73.5869 ,1.42975 ,-0.18379 ,-1.80338 
389 ,73.7630 ,1.43149 ,-0.19406 ,-1.90412 
390 ,73.9550 ,1.43335 ,-0.18722 ,-1.83696 
391 ,74.1309 ,1.43514 ,-0.19064 ,-1.87054 
392 ,74.3073 ,1.43692 ,-0.20775 ,-2.03843 
393 ,74.4833 ,1.43874 ,-0.23855 ,-2.34064 
394 ,74.6591 ,1.44043 ,-0.24539 ,-2.40779 
395 ,74.8354 ,1.44219 ,-0.23170 ,-2.27348 
396 ,75.0276 ,1.44415 ,-0.24881 ,-2.44137 
397 ,75.2035 ,1.44590 ,-0.25908 ,-2.54211 
398 ,75.3637 ,1.44760 ,-0.26935 ,-2.64284 
399 ,75.5399 ,1.44928 ,-0.29330 ,-2.87789 
400 ,75.7320 ,1.45110 ,-0.27277 ,-2.67642 
401 ,75.9239 ,1.45307 ,-0.30699 ,-3.01220 
402 ,76.1001 ,1.45484 ,-0.31726 ,-3.11294 
403 ,76.2919 ,1.45668 ,-0.30357 ,-2.97863 
404 ,76.4683 ,1.45855 ,-0.32068 ,-3.14652 
405 ,76.6762 ,1.46054 ,-0.32068 ,-3.14652 
406 ,76.8686 ,1.46247 ,-0.34121 ,-3.34799 
407 ,77.0604 ,1.46442 ,-0.36859 ,-3.61661 
408 ,77.2528 ,1.46636 ,-0.35832 ,-3.51588 
409 ,77.4446 ,1.46824 ,-0.36859 ,-3.61661 
410 ,77.6365 ,1.47021 ,-0.39939 ,-3.91882 
411 ,77.8129 ,1.47194 ,-0.38570 ,-3.78450 
412 ,78.0211 ,1.47387 ,-0.38912 ,-3.81808 
413 ,78.2130 ,1.47589 ,-0.39939 ,-3.91882 
414 ,78.3886 ,1.47770 ,-0.40966 ,-4.01955 
415 ,78.5809 ,1.47959 ,-0.44730 ,-4.38891 
416 ,78.7727 ,1.48147 ,-0.42677 ,-4.18744 
417 ,78.9494 ,1.48333 ,-0.44730 ,-4.38891 
418 ,79.1411 ,1.48522 ,-0.47126 ,-4.62396 
419 ,79.3334 ,1.48714 ,-0.47126 ,-4.62396 
420 ,79.5252 ,1.48901 ,-0.47126 ,-4.62396 
421 ,79.7016 ,1.49082 ,-0.48494 ,-4.75828 
422 ,79.8935 ,1.49274 ,-0.48152 ,-4.72470 
423 ,80.0698 ,1.49452 ,-0.49179 ,-4.82543 
424 ,80.2618 ,1.49641 ,-0.51232 ,-5.02690 
425 ,80.4538 ,1.49832 ,-0.50890 ,-4.99332 
426 ,80.6299 ,1.50012 ,-0.51232 ,-5.02690 
427 ,80.8060 ,1.50189 ,-0.53285 ,-5.22837 
428 ,80.9981 ,1.50373 ,-0.54654 ,-5.36268 
429 ,81.1902 ,1.50576 ,-0.54312 ,-5.32911 
430 ,81.3823 ,1.50758 ,-0.57392 ,-5.63131 
431 ,81.5742 ,1.50952 ,-0.57050 ,-5.59773 
432 ,81.7664 ,1.51141 ,-0.57050 ,-5.59773 
433 ,81.9743 ,1.51347 ,-0.58419 ,-5.73205 
434 ,82.1506 ,1.51532 ,-0.59445 ,-5.83278 
435 ,82.3422 ,1.51718 ,-0.61499 ,-6.03425 
436 ,82.5348 ,1.51912 ,-0.62183 ,-6.10141 
437 ,82.7103 ,1.52105 ,-0.62183 ,-6.10141 
438 ,82.8868 ,1.52272 ,-0.62183 ,-6.10141 
439 ,83.0789 ,1.52463 ,-0.65263 ,-6.40361 
440 ,83.2706 ,1.52657 ,-0.64921 ,-6.37003 
441 ,83.4631 ,1.52836 ,-0.65605 ,-6.43719 
442 ,83.6551 ,1.53042 ,-0.65947 ,-6.47077 
443 ,83.8311 ,1.53210 ,-0.68343 ,-6.70582 
444 ,84.0233 ,1.53402 ,-0.68685 ,-6.73940 
445 ,84.2153 ,1.53593 ,-0.69370 ,-6.80655 
446 ,84.4074 ,1.53788 ,-0.69712 ,-6.84013 
447 ,84.5996 ,1.53975 ,-0.72107 ,-7.07518 
448 ,84.8075 ,1.54186 ,-0.71423 ,-7.00802 
449 ,84.9998 ,1.54377 ,-0.72792 ,-7.14233 
450 ,85.1919 ,1.54567 ,-0.73134 ,-7.17591 
451 ,85.3838 ,1.54756 ,-0.75872 ,-7.44454 
452 ,85.5600 ,1.54940 ,-0.76556 ,-7.51170 
453 ,85.7681 ,1.55139 ,-0.76214 ,-7.47812 
454 ,85.9757 ,1.55346 ,-0.78267 ,-7.67959 
455 ,86.1522 ,1.55531 ,-0.78952 ,-7.74674 
456 ,86.3443 ,1.55731 ,-0.80321 ,-7.88106 
457 ,86.5204 ,1.55902 ,-0.80321 ,-7.88106 
458 ,86.6964 ,1.56075 ,-0.81347 ,-7.98179 
459 ,86.8883 ,1.56270 ,-0.81347 ,-7.98179 
460 ,87.0646 ,1.56454 ,-0.82716 ,-8.11611 
461 ,87.2405 ,1.56620 ,-0.83743 ,-8.21684 
462 ,87.4006 ,1.56792 ,-0.85454 ,-8.38473 
463 ,87.5768 ,1.56960 ,-0.86481 ,-8.48547 
