Data stamp = , 25-04-2022 02:44:50 612

Calibration Values: 
Slope = , 26.54 , g/V 
Offset Voltage at no contact = , -0.501760 , V 

No , Time , Stage Position ,   Mass , Force 
   ,  (s) ,      (mm)      ,   (g)  , (mN)  

1 ,0.0000 ,0.69942 ,5.25403 ,51.55254 
2 ,0.2144 ,0.69952 ,5.27114 ,51.72043 
3 ,0.5351 ,0.70037 ,5.26430 ,51.65327 
4 ,0.7430 ,0.70181 ,5.26087 ,51.61969 
5 ,0.9351 ,0.70353 ,5.26430 ,51.65327 
6 ,1.1108 ,0.70525 ,5.26087 ,51.61969 
7 ,1.3033 ,0.70713 ,5.28483 ,51.85474 
8 ,1.5111 ,0.70919 ,5.25745 ,51.58611 
9 ,1.7032 ,0.71123 ,5.26430 ,51.65327 
10 ,1.8955 ,0.71302 ,5.23692 ,51.38464 
11 ,2.1036 ,0.71516 ,5.23007 ,51.31749 
12 ,2.2956 ,0.71709 ,5.18216 ,50.84739 
13 ,2.5037 ,0.71913 ,5.18901 ,50.91455 
14 ,2.6956 ,0.72107 ,5.15479 ,50.57876 
15 ,2.8877 ,0.72302 ,5.13425 ,50.37729 
16 ,3.0641 ,0.72486 ,5.11030 ,50.14225 
17 ,3.2557 ,0.72678 ,5.10003 ,50.04151 
18 ,3.4482 ,0.72866 ,5.06923 ,49.73931 
19 ,3.6243 ,0.73047 ,5.06581 ,49.70573 
20 ,3.8004 ,0.73217 ,5.05897 ,49.63857 
21 ,3.9926 ,0.73404 ,5.00763 ,49.13490 
22 ,4.1845 ,0.73602 ,5.00763 ,49.13490 
23 ,4.3602 ,0.73779 ,5.00421 ,49.10132 
24 ,4.5366 ,0.73953 ,4.98710 ,48.93343 
25 ,4.7287 ,0.74149 ,4.95630 ,48.63122 
26 ,4.9208 ,0.74335 ,4.93919 ,48.46333 
27 ,5.1129 ,0.74518 ,4.91523 ,48.22828 
28 ,5.3048 ,0.74719 ,4.90497 ,48.12755 
29 ,5.4966 ,0.74907 ,4.89128 ,47.99324 
30 ,5.6891 ,0.75099 ,4.86048 ,47.69103 
31 ,5.8652 ,0.75289 ,4.84337 ,47.52314 
32 ,6.0573 ,0.75466 ,4.83995 ,47.48956 
33 ,6.2494 ,0.75660 ,4.81599 ,47.25451 
34 ,6.4575 ,0.75867 ,4.80230 ,47.12020 
35 ,6.6330 ,0.76054 ,4.77493 ,46.85157 
36 ,6.8090 ,0.76232 ,4.76466 ,46.75084 
37 ,6.9690 ,0.76398 ,4.73044 ,46.41506 
38 ,7.1457 ,0.76568 ,4.73386 ,46.44863 
39 ,7.3538 ,0.76768 ,4.69964 ,46.11285 
40 ,7.5618 ,0.76972 ,4.69964 ,46.11285 
41 ,7.7378 ,0.77150 ,4.68937 ,46.01212 
42 ,7.9136 ,0.77334 ,4.64831 ,45.60918 
43 ,8.0898 ,0.77506 ,4.64146 ,45.54202 
44 ,8.2658 ,0.77680 ,4.62093 ,45.34055 
45 ,8.4418 ,0.77855 ,4.61408 ,45.27339 
46 ,8.6019 ,0.78030 ,4.61408 ,45.27339 
47 ,8.7782 ,0.78195 ,4.59013 ,45.03835 
48 ,8.9705 ,0.78386 ,4.55933 ,44.73614 
49 ,9.1626 ,0.78580 ,4.53880 ,44.53467 
50 ,9.3541 ,0.78762 ,4.54222 ,44.56825 
51 ,9.5303 ,0.78946 ,4.50457 ,44.19889 
52 ,9.6904 ,0.79118 ,4.48404 ,43.99742 
53 ,9.8664 ,0.79284 ,4.46351 ,43.79595 
54 ,10.0589 ,0.79469 ,4.46693 ,43.82953 
55 ,10.2510 ,0.79666 ,4.42244 ,43.39301 
56 ,10.4271 ,0.79842 ,4.41560 ,43.32585 
57 ,10.6188 ,0.80033 ,4.41560 ,43.32585 
58 ,10.7954 ,0.80211 ,4.39164 ,43.09080 
59 ,10.9871 ,0.80400 ,4.36427 ,42.82218 
60 ,11.1950 ,0.80606 ,4.36084 ,42.78860 
61 ,11.3715 ,0.80786 ,4.33689 ,42.55355 
62 ,11.5636 ,0.80970 ,4.31636 ,42.35208 
63 ,11.7555 ,0.81164 ,4.30267 ,42.21777 
64 ,11.9312 ,0.81352 ,4.27871 ,41.98272 
65 ,12.1238 ,0.81531 ,4.26502 ,41.84841 
66 ,12.3157 ,0.81730 ,4.25818 ,41.78125 
67 ,12.4923 ,0.81907 ,4.22738 ,41.47905 
68 ,12.6839 ,0.82101 ,4.21369 ,41.34473 
69 ,12.8601 ,0.82279 ,4.20342 ,41.24400 
70 ,13.0517 ,0.82467 ,4.18289 ,41.04253 
71 ,13.2280 ,0.82648 ,4.16236 ,40.84106 
72 ,13.4362 ,0.82843 ,4.13498 ,40.57243 
73 ,13.6123 ,0.83021 ,4.12471 ,40.47170 
74 ,13.7885 ,0.83206 ,4.10076 ,40.23665 
75 ,13.9645 ,0.83379 ,4.09049 ,40.13591 
76 ,14.1404 ,0.83554 ,4.09049 ,40.13591 
77 ,14.3165 ,0.83732 ,4.07338 ,39.96802 
78 ,14.5088 ,0.83922 ,4.03916 ,39.63224 
79 ,14.6848 ,0.84100 ,4.01863 ,39.43077 
80 ,14.8609 ,0.84282 ,4.00836 ,39.33003 
81 ,15.0690 ,0.84474 ,3.99125 ,39.16214 
82 ,15.2611 ,0.84672 ,3.97756 ,39.02783 
83 ,15.4531 ,0.84860 ,3.94676 ,38.72562 
84 ,15.6294 ,0.85043 ,3.92965 ,38.55773 
85 ,15.8214 ,0.85236 ,3.93307 ,38.59131 
86 ,16.0295 ,0.85435 ,3.89543 ,38.22195 
87 ,16.2211 ,0.85633 ,3.89201 ,38.18837 
88 ,16.4136 ,0.85822 ,3.85779 ,37.85259 
89 ,16.6056 ,0.86026 ,3.85779 ,37.85259 
90 ,16.7818 ,0.86193 ,3.84410 ,37.71828 
91 ,16.9738 ,0.86386 ,3.82014 ,37.48323 
92 ,17.1499 ,0.86564 ,3.79961 ,37.28176 
93 ,17.3257 ,0.86733 ,3.78250 ,37.11387 
94 ,17.5179 ,0.86923 ,3.77565 ,37.04671 
95 ,17.7261 ,0.87131 ,3.74828 ,36.77808 
96 ,17.8863 ,0.87312 ,3.73801 ,36.67735 
97 ,18.0783 ,0.87491 ,3.72774 ,36.57661 
98 ,18.2543 ,0.87663 ,3.70721 ,36.37514 
99 ,18.4466 ,0.87848 ,3.67983 ,36.10652 
100 ,18.6544 ,0.88064 ,3.66614 ,35.97220 
101 ,18.8306 ,0.88245 ,3.64561 ,35.77073 
102 ,19.0226 ,0.88426 ,3.64903 ,35.80431 
103 ,19.1988 ,0.88614 ,3.62850 ,35.60284 
104 ,19.3910 ,0.88806 ,3.59428 ,35.26706 
105 ,19.5667 ,0.88982 ,3.57375 ,35.06559 
106 ,19.7587 ,0.89169 ,3.57375 ,35.06559 
107 ,19.9510 ,0.89357 ,3.53952 ,34.72981 
108 ,20.1270 ,0.89538 ,3.52241 ,34.56192 
109 ,20.3353 ,0.89742 ,3.52241 ,34.56192 
110 ,20.5430 ,0.89946 ,3.52241 ,34.56192 
111 ,20.7351 ,0.90144 ,3.48819 ,34.22613 
112 ,20.9115 ,0.90319 ,3.46424 ,33.99108 
113 ,21.1035 ,0.90508 ,3.45739 ,33.92393 
114 ,21.2794 ,0.90694 ,3.43686 ,33.72246 
115 ,21.4717 ,0.90889 ,3.41975 ,33.55457 
116 ,21.6635 ,0.91070 ,3.40606 ,33.42025 
117 ,21.8399 ,0.91250 ,3.38553 ,33.21878 
118 ,22.0319 ,0.91441 ,3.36842 ,33.05089 
119 ,22.2077 ,0.91622 ,3.33762 ,32.74869 
120 ,22.4159 ,0.91810 ,3.34104 ,32.78227 
121 ,22.6081 ,0.92017 ,3.30682 ,32.44648 
122 ,22.7842 ,0.92193 ,3.29313 ,32.31217 
123 ,22.9764 ,0.92384 ,3.28971 ,32.27859 
124 ,23.1844 ,0.92590 ,3.27259 ,32.11070 
125 ,23.3765 ,0.92785 ,3.25548 ,31.94281 
126 ,23.5525 ,0.92961 ,3.24522 ,31.84207 
127 ,23.7603 ,0.93164 ,3.20757 ,31.47271 
128 ,23.9366 ,0.93346 ,3.21784 ,31.57345 
129 ,24.1288 ,0.93542 ,3.18704 ,31.27124 
130 ,24.3208 ,0.93721 ,3.17677 ,31.17051 
131 ,24.5129 ,0.93915 ,3.15282 ,30.93546 
132 ,24.7048 ,0.94117 ,3.12544 ,30.66683 
133 ,24.8968 ,0.94295 ,3.12544 ,30.66683 
134 ,25.0732 ,0.94479 ,3.10149 ,30.43178 
135 ,25.2654 ,0.94673 ,3.09464 ,30.36463 
136 ,25.4733 ,0.94877 ,3.07753 ,30.19674 
137 ,25.6493 ,0.95060 ,3.05015 ,29.92811 
138 ,25.8254 ,0.95232 ,3.04673 ,29.89453 
139 ,26.0015 ,0.95410 ,3.02962 ,29.72664 
140 ,26.1938 ,0.95600 ,3.02278 ,29.65948 
141 ,26.4018 ,0.95810 ,3.00224 ,29.45801 
142 ,26.6098 ,0.96009 ,2.97829 ,29.22297 
143 ,26.8019 ,0.96206 ,2.96802 ,29.12223 
144 ,26.9936 ,0.96397 ,2.94064 ,28.85360 
145 ,27.1701 ,0.96582 ,2.93380 ,28.78645 
146 ,27.3619 ,0.96764 ,2.92696 ,28.71929 
147 ,27.5541 ,0.96965 ,2.90985 ,28.55140 
148 ,27.7461 ,0.97150 ,2.88247 ,28.28277 
149 ,27.9224 ,0.97327 ,2.86536 ,28.11488 
150 ,28.0982 ,0.97519 ,2.86193 ,28.08130 
151 ,28.2745 ,0.97682 ,2.85167 ,27.98057 
152 ,28.4506 ,0.97862 ,2.82087 ,27.67836 
153 ,28.6427 ,0.98043 ,2.81402 ,27.61121 
154 ,28.8508 ,0.98249 ,2.78665 ,27.34258 
155 ,29.0429 ,0.98446 ,2.77980 ,27.27542 
156 ,29.2347 ,0.98633 ,2.77980 ,27.27542 
157 ,29.4269 ,0.98831 ,2.73189 ,26.80533 
158 ,29.6350 ,0.99042 ,2.73531 ,26.83891 
159 ,29.8267 ,0.99232 ,2.73189 ,26.80533 
160 ,30.0032 ,0.99410 ,2.70109 ,26.50312 
161 ,30.1789 ,0.99588 ,2.68740 ,26.36881 
162 ,30.3715 ,0.99776 ,2.68740 ,26.36881 
163 ,30.5796 ,0.99978 ,2.64634 ,25.96587 
164 ,30.7876 ,1.00189 ,2.62581 ,25.76440 
165 ,30.9796 ,1.00385 ,2.61896 ,25.69724 
166 ,31.1555 ,1.00563 ,2.61896 ,25.69724 
167 ,31.3317 ,1.00746 ,2.58132 ,25.32788 
168 ,31.5079 ,1.00914 ,2.55394 ,25.05926 
169 ,31.6998 ,1.01098 ,2.56421 ,25.15999 
170 ,31.9080 ,1.01307 ,2.52998 ,24.82421 
171 ,32.1000 ,1.01498 ,2.52314 ,24.75705 
172 ,32.2922 ,1.01701 ,2.52314 ,24.75705 
173 ,32.4842 ,1.01892 ,2.48892 ,24.42127 
174 ,32.6762 ,1.02081 ,2.50261 ,24.55558 
175 ,32.8521 ,1.02256 ,2.48207 ,24.35411 
176 ,33.0445 ,1.02446 ,2.45127 ,24.05191 
177 ,33.2363 ,1.02637 ,2.45470 ,24.08549 
178 ,33.4122 ,1.02828 ,2.42048 ,23.74970 
179 ,33.6046 ,1.03005 ,2.39652 ,23.51465 
180 ,33.8127 ,1.03220 ,2.39652 ,23.51465 
181 ,33.9890 ,1.03398 ,2.38625 ,23.41392 
182 ,34.1809 ,1.03591 ,2.35545 ,23.11171 
183 ,34.3571 ,1.03760 ,2.35545 ,23.11171 
184 ,34.5328 ,1.03946 ,2.32123 ,22.77593 
185 ,34.7410 ,1.04134 ,2.30412 ,22.60804 
186 ,34.9333 ,1.04338 ,2.29728 ,22.54088 
187 ,35.1250 ,1.04530 ,2.27674 ,22.33941 
188 ,35.3013 ,1.04708 ,2.25963 ,22.17152 
189 ,35.4775 ,1.04887 ,2.26306 ,22.20510 
190 ,35.6535 ,1.05066 ,2.24252 ,22.00363 
191 ,35.8455 ,1.05244 ,2.20830 ,21.66785 
192 ,36.0537 ,1.05454 ,2.20830 ,21.66785 
193 ,36.2459 ,1.05647 ,2.17750 ,21.36564 
194 ,36.4379 ,1.05836 ,2.18435 ,21.43280 
195 ,36.6296 ,1.06030 ,2.16723 ,21.26491 
196 ,36.8221 ,1.06222 ,2.15012 ,21.09702 
197 ,37.0302 ,1.06435 ,2.12959 ,20.89555 
198 ,37.2222 ,1.06623 ,2.12617 ,20.86197 
199 ,37.4143 ,1.06823 ,2.10906 ,20.69408 
200 ,37.6060 ,1.07008 ,2.07141 ,20.32472 
201 ,37.7824 ,1.07189 ,2.06115 ,20.22398 
202 ,37.9584 ,1.07365 ,2.06115 ,20.22398 
203 ,38.1346 ,1.07540 ,2.06457 ,20.25756 
204 ,38.3426 ,1.07738 ,2.03035 ,19.92178 
205 ,38.5347 ,1.07936 ,2.02350 ,19.85462 
206 ,38.7267 ,1.08132 ,2.00639 ,19.68673 
207 ,38.9189 ,1.08317 ,1.97559 ,19.38452 
208 ,39.1270 ,1.08522 ,1.95164 ,19.14948 
209 ,39.3029 ,1.08712 ,1.97217 ,19.35094 
210 ,39.4950 ,1.08903 ,1.93795 ,19.01516 
211 ,39.6713 ,1.09078 ,1.93111 ,18.94801 
212 ,39.8629 ,1.09260 ,1.90373 ,18.67938 
213 ,40.0394 ,1.09445 ,1.88662 ,18.51149 
214 ,40.2475 ,1.09643 ,1.86608 ,18.31002 
215 ,40.4394 ,1.09846 ,1.85924 ,18.24286 
216 ,40.6316 ,1.10031 ,1.85924 ,18.24286 
217 ,40.8237 ,1.10223 ,1.83871 ,18.04139 
218 ,40.9997 ,1.10403 ,1.82844 ,17.94066 
219 ,41.1757 ,1.10582 ,1.81133 ,17.77276 
220 ,41.3516 ,1.10752 ,1.80791 ,17.73919 
221 ,41.5440 ,1.10945 ,1.77026 ,17.36983 
222 ,41.7360 ,1.11133 ,1.78395 ,17.50414 
223 ,41.9441 ,1.11340 ,1.74631 ,17.13478 
224 ,42.1683 ,1.11558 ,1.74289 ,17.10120 
225 ,42.3763 ,1.11773 ,1.72920 ,16.96689 
226 ,42.5843 ,1.11987 ,1.69498 ,16.63110 
227 ,42.7605 ,1.12166 ,1.68813 ,16.56395 
228 ,42.9524 ,1.12360 ,1.67786 ,16.46321 
229 ,43.1286 ,1.12531 ,1.66075 ,16.29532 
230 ,43.3041 ,1.12708 ,1.63338 ,16.02669 
231 ,43.4808 ,1.12880 ,1.63338 ,16.02669 
232 ,43.6727 ,1.13073 ,1.63680 ,16.06027 
233 ,43.8489 ,1.13248 ,1.61284 ,15.82522 
234 ,44.0406 ,1.13443 ,1.59231 ,15.62375 
235 ,44.2168 ,1.13615 ,1.59231 ,15.62375 
236 ,44.3933 ,1.13796 ,1.58547 ,15.55660 
237 ,44.5853 ,1.13990 ,1.56151 ,15.32155 
238 ,44.7772 ,1.14175 ,1.56151 ,15.32155 
239 ,44.9533 ,1.14350 ,1.54440 ,15.15366 
240 ,45.1295 ,1.14535 ,1.53756 ,15.08650 
241 ,45.3054 ,1.14711 ,1.50333 ,14.75072 
242 ,45.4817 ,1.14889 ,1.48280 ,14.54925 
243 ,45.6736 ,1.15065 ,1.48280 ,14.54925 
244 ,45.8655 ,1.15259 ,1.48280 ,14.54925 
245 ,46.0577 ,1.15453 ,1.46227 ,14.34778 
246 ,46.2497 ,1.15653 ,1.43831 ,14.11273 
247 ,46.4420 ,1.15839 ,1.41778 ,13.91126 
248 ,46.6501 ,1.16051 ,1.42120 ,13.94484 
249 ,46.8261 ,1.16226 ,1.40409 ,13.77695 
250 ,47.0183 ,1.16421 ,1.39040 ,13.64263 
251 ,47.2104 ,1.16612 ,1.39040 ,13.64263 
252 ,47.4024 ,1.16801 ,1.35960 ,13.34043 
253 ,47.5784 ,1.16981 ,1.33565 ,13.10538 
254 ,47.7545 ,1.17155 ,1.32880 ,13.03822 
255 ,47.9787 ,1.17367 ,1.32538 ,13.00465 
256 ,48.1867 ,1.17584 ,1.30485 ,12.80318 
257 ,48.3788 ,1.17769 ,1.29800 ,12.73602 
258 ,48.5708 ,1.17969 ,1.28774 ,12.63528 
259 ,48.7790 ,1.18173 ,1.27747 ,12.53455 
260 ,48.9709 ,1.18365 ,1.26720 ,12.43381 
261 ,49.1469 ,1.18546 ,1.25009 ,12.26592 
262 ,49.3231 ,1.18719 ,1.21587 ,11.93014 
263 ,49.4990 ,1.18896 ,1.21929 ,11.96372 
264 ,49.6913 ,1.19091 ,1.21929 ,11.96372 
265 ,49.8834 ,1.19283 ,1.19876 ,11.76225 
266 ,50.0755 ,1.19470 ,1.19192 ,11.69509 
267 ,50.2674 ,1.19673 ,1.16796 ,11.46004 
268 ,50.4597 ,1.19852 ,1.15427 ,11.32573 
269 ,50.6352 ,1.20041 ,1.14401 ,11.22500 
270 ,50.8118 ,1.20213 ,1.13374 ,11.12426 
271 ,51.0199 ,1.20423 ,1.10979 ,10.88921 
272 ,51.2119 ,1.20611 ,1.11663 ,10.95637 
273 ,51.4040 ,1.20808 ,1.08241 ,10.62059 
274 ,51.6122 ,1.21009 ,1.08583 ,10.65416 
275 ,51.8042 ,1.21210 ,1.05503 ,10.35196 
276 ,52.0123 ,1.21407 ,1.05845 ,10.38554 
277 ,52.2044 ,1.21598 ,1.03108 ,10.11691 
278 ,52.3965 ,1.21799 ,1.02423 ,10.04976 
279 ,52.5886 ,1.21989 ,1.02081 ,10.01618 
280 ,52.7641 ,1.22162 ,1.00028 ,9.81471 
281 ,52.9563 ,1.22346 ,0.98317 ,9.64682 
282 ,53.1488 ,1.22540 ,0.98659 ,9.68039 
283 ,53.3407 ,1.22731 ,0.96263 ,9.44535 
284 ,53.5169 ,1.22916 ,0.95237 ,9.34461 
285 ,53.6928 ,1.23091 ,0.95237 ,9.34461 
286 ,53.8849 ,1.23279 ,0.94210 ,9.24388 
287 ,54.0611 ,1.23462 ,0.91130 ,8.94167 
288 ,54.2532 ,1.23649 ,0.91472 ,8.97525 
289 ,54.4451 ,1.23835 ,0.90446 ,8.87451 
290 ,54.6372 ,1.24035 ,0.87366 ,8.57231 
291 ,54.8292 ,1.24223 ,0.87023 ,8.53873 
292 ,55.0375 ,1.24418 ,0.85312 ,8.37084 
293 ,55.2294 ,1.24631 ,0.85997 ,8.43800 
294 ,55.4218 ,1.24816 ,0.83259 ,8.16937 
295 ,55.6135 ,1.25004 ,0.82575 ,8.10221 
296 ,55.7898 ,1.25188 ,0.81206 ,7.96790 
297 ,55.9657 ,1.25364 ,0.80179 ,7.86717 
298 ,56.1579 ,1.25555 ,0.77784 ,7.63212 
299 ,56.3501 ,1.25751 ,0.77099 ,7.56496 
300 ,56.5422 ,1.25934 ,0.75730 ,7.43065 
301 ,56.7341 ,1.26127 ,0.75388 ,7.39707 
302 ,56.9102 ,1.26312 ,0.74361 ,7.29633 
303 ,57.0859 ,1.26484 ,0.73677 ,7.22918 
304 ,57.2784 ,1.26669 ,0.70939 ,6.96055 
305 ,57.4704 ,1.26861 ,0.72650 ,7.12844 
306 ,57.6464 ,1.27043 ,0.69913 ,6.85982 
307 ,57.8227 ,1.27221 ,0.68544 ,6.72550 
308 ,58.0307 ,1.27421 ,0.67175 ,6.59119 
309 ,58.2063 ,1.27610 ,0.64779 ,6.35614 
310 ,58.3828 ,1.27782 ,0.65121 ,6.38972 
311 ,58.5749 ,1.27972 ,0.63068 ,6.18825 
312 ,58.7669 ,1.28160 ,0.62726 ,6.15467 
313 ,58.9589 ,1.28348 ,0.60673 ,5.95320 
314 ,59.1511 ,1.28536 ,0.61015 ,5.98678 
315 ,59.3431 ,1.28731 ,0.57593 ,5.65100 
316 ,59.5512 ,1.28931 ,0.57251 ,5.61742 
317 ,59.7593 ,1.29141 ,0.57593 ,5.65100 
318 ,59.9514 ,1.29345 ,0.55539 ,5.44953 
319 ,60.1274 ,1.29527 ,0.55882 ,5.48311 
320 ,60.3030 ,1.29699 ,0.53486 ,5.24806 
321 ,60.4955 ,1.29887 ,0.50064 ,4.91228 
322 ,60.7036 ,1.30088 ,0.50064 ,4.91228 
323 ,60.8958 ,1.30284 ,0.48695 ,4.77796 
324 ,61.0878 ,1.30477 ,0.48353 ,4.74438 
325 ,61.2640 ,1.30663 ,0.48353 ,4.74438 
326 ,61.4556 ,1.30843 ,0.45615 ,4.47576 
327 ,61.6321 ,1.31030 ,0.45273 ,4.44218 
328 ,61.8401 ,1.31227 ,0.43904 ,4.30787 
329 ,62.0484 ,1.31435 ,0.42535 ,4.17355 
330 ,62.2405 ,1.31638 ,0.41851 ,4.10640 
331 ,62.4322 ,1.31826 ,0.41509 ,4.07282 
332 ,62.6245 ,1.32025 ,0.40140 ,3.93850 
333 ,62.8165 ,1.32209 ,0.37744 ,3.70346 
334 ,63.0087 ,1.32397 ,0.36033 ,3.53557 
335 ,63.2166 ,1.32606 ,0.36375 ,3.56914 
336 ,63.3931 ,1.32789 ,0.35349 ,3.46841 
337 ,63.6009 ,1.32989 ,0.33638 ,3.30052 
338 ,63.7768 ,1.33167 ,0.31926 ,3.13263 
339 ,63.9531 ,1.33350 ,0.31584 ,3.09905 
340 ,64.1611 ,1.33547 ,0.29531 ,2.89758 
341 ,64.3532 ,1.33741 ,0.29873 ,2.93116 
342 ,64.5610 ,1.33949 ,0.27820 ,2.72969 
343 ,64.7534 ,1.34137 ,0.27820 ,2.72969 
344 ,64.9451 ,1.34346 ,0.25082 ,2.46106 
345 ,65.1215 ,1.34515 ,0.25767 ,2.52822 
346 ,65.3136 ,1.34706 ,0.23713 ,2.32675 
347 ,65.5056 ,1.34895 ,0.23371 ,2.29317 
348 ,65.6973 ,1.35092 ,0.20976 ,2.05812 
349 ,65.8734 ,1.35268 ,0.20976 ,2.05812 
350 ,66.0658 ,1.35451 ,0.21318 ,2.09170 
351 ,66.2579 ,1.35647 ,0.19264 ,1.89023 
352 ,66.4659 ,1.35850 ,0.19607 ,1.92381 
353 ,66.6421 ,1.36038 ,0.18580 ,1.82307 
354 ,66.8342 ,1.36232 ,0.17211 ,1.68876 
355 ,67.0097 ,1.36405 ,0.16185 ,1.58802 
356 ,67.1858 ,1.36588 ,0.13789 ,1.35298 
357 ,67.3618 ,1.36761 ,0.12078 ,1.18508 
358 ,67.5381 ,1.36932 ,0.11393 ,1.11793 
359 ,67.7626 ,1.37143 ,0.10709 ,1.05077 
360 ,67.9704 ,1.37359 ,0.10709 ,1.05077 
361 ,68.1787 ,1.37563 ,0.08998 ,0.88288 
362 ,68.3707 ,1.37768 ,0.08314 ,0.81572 
363 ,68.5628 ,1.37947 ,0.07287 ,0.71499 
364 ,68.7387 ,1.38133 ,0.05234 ,0.51352 
365 ,68.9306 ,1.38321 ,0.05918 ,0.58067 
366 ,69.1229 ,1.38506 ,0.03865 ,0.37920 
367 ,69.2988 ,1.38697 ,0.03180 ,0.31205 
368 ,69.4909 ,1.38882 ,0.01469 ,0.14416 
369 ,69.6509 ,1.39055 ,0.00443 ,0.04342 
370 ,69.8432 ,1.39226 ,0.00100 ,0.00984 
371 ,70.0509 ,1.39437 ,-0.01611 ,-0.15805 
372 ,70.2276 ,1.39621 ,-0.02295 ,-0.22520 
373 ,70.4037 ,1.39800 ,-0.01953 ,-0.19163 
374 ,70.5955 ,1.39985 ,-0.04348 ,-0.42667 
375 ,70.7877 ,1.40172 ,-0.04006 ,-0.39310 
376 ,70.9798 ,1.40366 ,-0.07086 ,-0.69530 
377 ,71.1557 ,1.40543 ,-0.07428 ,-0.72888 
378 ,71.3479 ,1.40727 ,-0.08455 ,-0.82961 
379 ,71.5241 ,1.40912 ,-0.08455 ,-0.82961 
380 ,71.7161 ,1.41110 ,-0.09824 ,-0.96393 
381 ,71.8923 ,1.41291 ,-0.10166 ,-0.99751 
382 ,72.0681 ,1.41459 ,-0.11535 ,-1.13182 
383 ,72.2604 ,1.41644 ,-0.14273 ,-1.40045 
384 ,72.4685 ,1.41858 ,-0.12562 ,-1.23255 
385 ,72.6604 ,1.42049 ,-0.13931 ,-1.36687 
386 ,72.8365 ,1.42227 ,-0.16668 ,-1.63549 
387 ,73.0287 ,1.42416 ,-0.15299 ,-1.50118 
388 ,73.2046 ,1.42593 ,-0.17353 ,-1.70265 
389 ,73.4129 ,1.42797 ,-0.19406 ,-1.90412 
390 ,73.6049 ,1.42995 ,-0.18379 ,-1.80338 
391 ,73.7972 ,1.43180 ,-0.20775 ,-2.03843 
392 ,73.9892 ,1.43374 ,-0.21459 ,-2.10559 
393 ,74.1813 ,1.43569 ,-0.21802 ,-2.13917 
394 ,74.3730 ,1.43760 ,-0.23855 ,-2.34064 
395 ,74.5494 ,1.43941 ,-0.24197 ,-2.37422 
396 ,74.7414 ,1.44133 ,-0.25908 ,-2.54211 
397 ,74.9334 ,1.44317 ,-0.27619 ,-2.71000 
398 ,75.1095 ,1.44504 ,-0.28988 ,-2.84431 
399 ,75.3013 ,1.44696 ,-0.29673 ,-2.91147 
400 ,75.4936 ,1.44878 ,-0.29673 ,-2.91147 
401 ,75.6696 ,1.45059 ,-0.29330 ,-2.87789 
402 ,75.8618 ,1.45248 ,-0.32068 ,-3.14652 
403 ,76.0538 ,1.45442 ,-0.33095 ,-3.24725 
404 ,76.2300 ,1.45622 ,-0.32410 ,-3.18010 
405 ,76.4376 ,1.45821 ,-0.35148 ,-3.44872 
406 ,76.6301 ,1.46017 ,-0.36175 ,-3.54946 
407 ,76.8220 ,1.46215 ,-0.35148 ,-3.44872 
408 ,76.9983 ,1.46388 ,-0.36517 ,-3.58303 
409 ,77.1744 ,1.46563 ,-0.38570 ,-3.78450 
410 ,77.3505 ,1.46742 ,-0.39597 ,-3.88524 
411 ,77.5422 ,1.46933 ,-0.37886 ,-3.71735 
412 ,77.7507 ,1.47129 ,-0.40281 ,-3.95240 
413 ,77.9426 ,1.47328 ,-0.40623 ,-3.98597 
414 ,78.1348 ,1.47521 ,-0.42335 ,-4.15387 
415 ,78.3428 ,1.47728 ,-0.42677 ,-4.18744 
416 ,78.5187 ,1.47904 ,-0.43703 ,-4.28818 
417 ,78.6949 ,1.48089 ,-0.45414 ,-4.45607 
418 ,78.8711 ,1.48260 ,-0.47126 ,-4.62396 
419 ,79.0792 ,1.48452 ,-0.47468 ,-4.65754 
420 ,79.2713 ,1.48663 ,-0.47810 ,-4.69112 
421 ,79.4634 ,1.48846 ,-0.48152 ,-4.72470 
422 ,79.6552 ,1.49037 ,-0.50206 ,-4.92617 
423 ,79.8309 ,1.49220 ,-0.51917 ,-5.09406 
424 ,80.0075 ,1.49394 ,-0.51232 ,-5.02690 
425 ,80.1997 ,1.49585 ,-0.52259 ,-5.12764 
426 ,80.3915 ,1.49778 ,-0.54654 ,-5.36268 
427 ,80.5678 ,1.49956 ,-0.52943 ,-5.19479 
428 ,80.7439 ,1.50130 ,-0.53285 ,-5.22837 
429 ,80.9357 ,1.50318 ,-0.57050 ,-5.59773 
430 ,81.1281 ,1.50510 ,-0.55681 ,-5.46342 
431 ,81.3202 ,1.50707 ,-0.57050 ,-5.59773 
432 ,81.5122 ,1.50891 ,-0.58761 ,-5.76562 
433 ,81.7042 ,1.51090 ,-0.57734 ,-5.66489 
434 ,81.8798 ,1.51277 ,-0.61156 ,-6.00067 
435 ,82.0564 ,1.51444 ,-0.62868 ,-6.16856 
436 ,82.2480 ,1.51632 ,-0.61499 ,-6.03425 
437 ,82.4245 ,1.51809 ,-0.61841 ,-6.06783 
438 ,82.6006 ,1.51991 ,-0.62868 ,-6.16856 
439 ,82.8088 ,1.52186 ,-0.65263 ,-6.40361 
440 ,83.0006 ,1.52392 ,-0.65605 ,-6.43719 
441 ,83.1768 ,1.52567 ,-0.65263 ,-6.40361 
442 ,83.3529 ,1.52742 ,-0.68001 ,-6.67224 
443 ,83.5610 ,1.52934 ,-0.66974 ,-6.57150 
444 ,83.7691 ,1.53154 ,-0.67659 ,-6.63866 
445 ,83.9450 ,1.53338 ,-0.69712 ,-6.84013 
446 ,84.1213 ,1.53507 ,-0.69712 ,-6.84013 
447 ,84.3294 ,1.53712 ,-0.71423 ,-7.00802 
448 ,84.5053 ,1.53893 ,-0.70739 ,-6.94086 
449 ,84.7135 ,1.54094 ,-0.73476 ,-7.20949 
450 ,84.9055 ,1.54287 ,-0.73134 ,-7.17591 
451 ,85.0811 ,1.54476 ,-0.75187 ,-7.37738 
452 ,85.2735 ,1.54654 ,-0.77241 ,-7.57885 
453 ,85.4655 ,1.54845 ,-0.74503 ,-7.31023 
454 ,85.6419 ,1.55030 ,-0.75872 ,-7.44454 
455 ,85.8499 ,1.55225 ,-0.77241 ,-7.57885 
456 ,86.0420 ,1.55418 ,-0.77925 ,-7.64601 
457 ,86.2341 ,1.55623 ,-0.79636 ,-7.81390 
458 ,86.4102 ,1.55803 ,-0.80321 ,-7.88106 
459 ,86.5863 ,1.55972 ,-0.81347 ,-7.98179 
460 ,86.7944 ,1.56171 ,-0.82716 ,-8.11611 
461 ,87.0982 ,1.56416 ,-0.85112 ,-8.35115 
462 ,87.2904 ,1.56670 ,-0.84085 ,-8.25042 
463 ,87.4665 ,1.56848 ,-0.84769 ,-8.31758 
