Data stamp = , 24-04-2022 23:16:36 137

Calibration Values: 
Slope = , 26.54 , g/V 
Offset Voltage at no contact = , -0.501760 , V 

No , Time , Stage Position ,   Mass , Force 
   ,  (s) ,      (mm)      ,   (g)  , (mN)  

1 ,0.0000 ,0.69948 ,5.29167 ,51.92190 
2 ,0.2057 ,0.69955 ,5.31563 ,52.15694 
3 ,0.6703 ,0.70111 ,5.28825 ,51.88832 
4 ,0.8780 ,0.70308 ,5.29167 ,51.92190 
5 ,1.0704 ,0.70496 ,5.29852 ,51.98905 
6 ,1.2783 ,0.70690 ,5.29167 ,51.92190 
7 ,1.4707 ,0.70887 ,5.30878 ,52.08979 
8 ,1.6625 ,0.71081 ,5.31563 ,52.15694 
9 ,1.8548 ,0.71273 ,5.28483 ,51.85474 
10 ,2.0469 ,0.71471 ,5.28141 ,51.82116 
11 ,2.2710 ,0.71680 ,5.25061 ,51.51896 
12 ,2.4469 ,0.71876 ,5.22323 ,51.25033 
13 ,2.6392 ,0.72053 ,5.21296 ,51.14960 
14 ,2.8307 ,0.72255 ,5.18216 ,50.84739 
15 ,3.0068 ,0.72436 ,5.17874 ,50.81381 
16 ,3.1830 ,0.72608 ,5.16505 ,50.67950 
17 ,3.3754 ,0.72798 ,5.12741 ,50.31014 
18 ,3.5512 ,0.72978 ,5.11714 ,50.20940 
19 ,3.7275 ,0.73158 ,5.11030 ,50.14225 
20 ,3.9196 ,0.73344 ,5.06581 ,49.70573 
21 ,4.1118 ,0.73531 ,5.07950 ,49.84004 
22 ,4.3197 ,0.73733 ,5.03501 ,49.40352 
23 ,4.5116 ,0.73936 ,5.02474 ,49.30279 
24 ,4.7041 ,0.74127 ,4.99737 ,49.03416 
25 ,4.9123 ,0.74328 ,4.99737 ,49.03416 
26 ,5.1041 ,0.74520 ,4.95630 ,48.63122 
27 ,5.2959 ,0.74717 ,4.93919 ,48.46333 
28 ,5.4882 ,0.74902 ,4.93235 ,48.39618 
29 ,5.6801 ,0.75095 ,4.89128 ,47.99324 
30 ,5.8563 ,0.75277 ,4.87417 ,47.82534 
31 ,6.0485 ,0.75469 ,4.88101 ,47.89250 
32 ,6.2405 ,0.75663 ,4.85364 ,47.62387 
33 ,6.4327 ,0.75851 ,4.84679 ,47.55672 
34 ,6.6406 ,0.76055 ,4.80573 ,47.15378 
35 ,6.8328 ,0.76256 ,4.79888 ,47.08662 
36 ,7.0248 ,0.76449 ,4.77493 ,46.85157 
37 ,7.2170 ,0.76638 ,4.74755 ,46.58295 
38 ,7.4090 ,0.76834 ,4.75097 ,46.61653 
39 ,7.5853 ,0.77009 ,4.72702 ,46.38148 
40 ,7.7928 ,0.77208 ,4.71333 ,46.24716 
41 ,7.9855 ,0.77402 ,4.68253 ,45.94496 
42 ,8.1774 ,0.77594 ,4.66199 ,45.74349 
43 ,8.3855 ,0.77800 ,4.63119 ,45.44128 
44 ,8.5775 ,0.77997 ,4.61066 ,45.23981 
45 ,8.7536 ,0.78186 ,4.60040 ,45.13908 
46 ,8.9137 ,0.78348 ,4.60040 ,45.13908 
47 ,9.0898 ,0.78511 ,4.58671 ,45.00477 
48 ,9.2658 ,0.78688 ,4.57986 ,44.93761 
49 ,9.4418 ,0.78861 ,4.55249 ,44.66898 
50 ,9.6177 ,0.79032 ,4.52511 ,44.40036 
51 ,9.7941 ,0.79217 ,4.49773 ,44.13173 
52 ,9.9862 ,0.79400 ,4.49089 ,44.06457 
53 ,10.1781 ,0.79603 ,4.47035 ,43.86310 
54 ,10.3542 ,0.79779 ,4.43955 ,43.56090 
55 ,10.5463 ,0.79959 ,4.43613 ,43.52732 
56 ,10.7384 ,0.80150 ,4.41218 ,43.29227 
57 ,10.9303 ,0.80357 ,4.39849 ,43.15796 
58 ,11.1067 ,0.80530 ,4.40533 ,43.22512 
59 ,11.2984 ,0.80718 ,4.36084 ,42.78860 
60 ,11.4907 ,0.80906 ,4.35400 ,42.72144 
61 ,11.7145 ,0.81125 ,4.33004 ,42.48639 
62 ,11.9065 ,0.81319 ,4.30951 ,42.28492 
63 ,12.1147 ,0.81523 ,4.28556 ,42.04988 
64 ,12.3068 ,0.81718 ,4.27187 ,41.91556 
65 ,12.5151 ,0.81932 ,4.24449 ,41.64694 
66 ,12.7071 ,0.82117 ,4.24107 ,41.61336 
67 ,12.8992 ,0.82317 ,4.20000 ,41.21042 
68 ,13.0754 ,0.82495 ,4.18289 ,41.04253 
69 ,13.2673 ,0.82690 ,4.17262 ,40.94179 
70 ,13.4754 ,0.82888 ,4.15551 ,40.77390 
71 ,13.6512 ,0.83075 ,4.14183 ,40.63959 
72 ,13.8276 ,0.83245 ,4.14525 ,40.67317 
73 ,14.0196 ,0.83431 ,4.10760 ,40.30380 
74 ,14.2114 ,0.83637 ,4.10418 ,40.27023 
75 ,14.4199 ,0.83824 ,4.06996 ,39.93444 
76 ,14.6120 ,0.84032 ,4.04943 ,39.73297 
77 ,14.8040 ,0.84223 ,4.03916 ,39.63224 
78 ,14.9959 ,0.84414 ,4.00152 ,39.26288 
79 ,15.1880 ,0.84601 ,3.99809 ,39.22930 
80 ,15.3803 ,0.84799 ,3.98098 ,39.06141 
81 ,15.5723 ,0.84993 ,3.95703 ,38.82636 
82 ,15.7639 ,0.85182 ,3.95361 ,38.79278 
83 ,15.9721 ,0.85373 ,3.92281 ,38.49058 
84 ,16.1640 ,0.85580 ,3.91938 ,38.45700 
85 ,16.3400 ,0.85763 ,3.87832 ,38.05406 
86 ,16.5322 ,0.85943 ,3.86805 ,37.95332 
87 ,16.7245 ,0.86142 ,3.86463 ,37.91975 
88 ,16.9328 ,0.86346 ,3.83383 ,37.61754 
89 ,17.1246 ,0.86553 ,3.79961 ,37.28176 
90 ,17.3011 ,0.86720 ,3.80303 ,37.31534 
91 ,17.4926 ,0.86907 ,3.79276 ,37.21460 
92 ,17.6692 ,0.87090 ,3.77565 ,37.04671 
93 ,17.8609 ,0.87283 ,3.73801 ,36.67735 
94 ,18.0531 ,0.87472 ,3.73117 ,36.61019 
95 ,18.2292 ,0.87649 ,3.71063 ,36.40872 
96 ,18.4214 ,0.87840 ,3.69010 ,36.20725 
97 ,18.6131 ,0.88029 ,3.66957 ,36.00578 
98 ,18.7894 ,0.88210 ,3.67641 ,36.07294 
99 ,19.0134 ,0.88414 ,3.62508 ,35.56926 
100 ,19.2217 ,0.88624 ,3.64561 ,35.77073 
101 ,19.3974 ,0.88819 ,3.60454 ,35.36779 
102 ,19.5739 ,0.88993 ,3.59086 ,35.23348 
103 ,19.7655 ,0.89188 ,3.56006 ,34.93128 
104 ,19.9420 ,0.89361 ,3.56690 ,34.99843 
105 ,20.1339 ,0.89548 ,3.53952 ,34.72981 
106 ,20.3101 ,0.89729 ,3.51215 ,34.46118 
107 ,20.5181 ,0.89931 ,3.49846 ,34.32687 
108 ,20.7103 ,0.90118 ,3.49846 ,34.32687 
109 ,20.9024 ,0.90317 ,3.48477 ,34.19255 
110 ,21.1265 ,0.90530 ,3.47108 ,34.05824 
111 ,21.3184 ,0.90730 ,3.42659 ,33.62172 
112 ,21.5104 ,0.90924 ,3.42659 ,33.62172 
113 ,21.6867 ,0.91102 ,3.41975 ,33.55457 
114 ,21.8625 ,0.91285 ,3.38553 ,33.21878 
115 ,22.0389 ,0.91456 ,3.38553 ,33.21878 
116 ,22.2149 ,0.91631 ,3.35473 ,32.91658 
117 ,22.4229 ,0.91829 ,3.33762 ,32.74869 
118 ,22.6149 ,0.92024 ,3.32051 ,32.58080 
119 ,22.8072 ,0.92224 ,3.33077 ,32.68153 
120 ,22.9832 ,0.92394 ,3.30682 ,32.44648 
121 ,23.1592 ,0.92578 ,3.27602 ,32.14428 
122 ,23.3354 ,0.92750 ,3.25891 ,31.97639 
123 ,23.5274 ,0.92940 ,3.26233 ,32.00996 
124 ,23.7192 ,0.93131 ,3.23837 ,31.77492 
125 ,23.9271 ,0.93340 ,3.21784 ,31.57345 
126 ,24.1192 ,0.93526 ,3.19731 ,31.37198 
127 ,24.3113 ,0.93718 ,3.18704 ,31.27124 
128 ,24.4713 ,0.93899 ,3.18020 ,31.20409 
129 ,24.6476 ,0.94068 ,3.15624 ,30.96904 
130 ,24.8400 ,0.94256 ,3.13571 ,30.76757 
131 ,25.0316 ,0.94444 ,3.10833 ,30.49894 
132 ,25.2403 ,0.94638 ,3.11175 ,30.53252 
133 ,25.4323 ,0.94848 ,3.08095 ,30.23031 
134 ,25.6085 ,0.95028 ,3.07753 ,30.19674 
135 ,25.7841 ,0.95202 ,3.05700 ,29.99527 
136 ,25.9925 ,0.95391 ,3.03989 ,29.82737 
137 ,26.2004 ,0.95614 ,3.02620 ,29.69306 
138 ,26.3927 ,0.95802 ,3.00224 ,29.45801 
139 ,26.6008 ,0.96012 ,2.99198 ,29.35728 
140 ,26.7925 ,0.96200 ,2.96118 ,29.05507 
141 ,26.9689 ,0.96384 ,2.94749 ,28.92076 
142 ,27.1451 ,0.96557 ,2.95091 ,28.95434 
143 ,27.3529 ,0.96754 ,2.93038 ,28.75287 
144 ,27.5612 ,0.96965 ,2.90300 ,28.48424 
145 ,27.7532 ,0.97161 ,2.89273 ,28.38351 
146 ,27.9614 ,0.97363 ,2.88589 ,28.31635 
147 ,28.1535 ,0.97564 ,2.85509 ,28.01415 
148 ,28.3453 ,0.97757 ,2.85851 ,28.04772 
149 ,28.5216 ,0.97943 ,2.81060 ,27.57763 
150 ,28.7136 ,0.98134 ,2.82087 ,27.67836 
151 ,28.8899 ,0.98306 ,2.78665 ,27.34258 
152 ,29.0818 ,0.98496 ,2.78322 ,27.30900 
153 ,29.2740 ,0.98688 ,2.75585 ,27.04038 
154 ,29.4498 ,0.98867 ,2.76269 ,27.10753 
155 ,29.6260 ,0.99048 ,2.73189 ,26.80533 
156 ,29.8178 ,0.99229 ,2.72505 ,26.73817 
157 ,29.9943 ,0.99407 ,2.69083 ,26.40239 
158 ,30.1862 ,0.99592 ,2.70109 ,26.50312 
159 ,30.3784 ,0.99781 ,2.68056 ,26.30165 
160 ,30.5541 ,0.99969 ,2.66687 ,26.16734 
161 ,30.7305 ,1.00147 ,2.66003 ,26.10018 
162 ,30.9226 ,1.00338 ,2.64292 ,25.93229 
163 ,31.1307 ,1.00542 ,2.62238 ,25.73082 
164 ,31.3228 ,1.00738 ,2.59158 ,25.42862 
165 ,31.5150 ,1.00923 ,2.58132 ,25.32788 
166 ,31.7066 ,1.01112 ,2.57447 ,25.26073 
167 ,31.8830 ,1.01296 ,2.55736 ,25.09283 
168 ,32.0591 ,1.01477 ,2.52998 ,24.82421 
169 ,32.2672 ,1.01672 ,2.52314 ,24.75705 
170 ,32.4593 ,1.01867 ,2.49918 ,24.52200 
171 ,32.6353 ,1.02057 ,2.49576 ,24.48842 
172 ,32.8113 ,1.02223 ,2.47181 ,24.25338 
173 ,32.9875 ,1.02401 ,2.46496 ,24.18622 
174 ,33.1796 ,1.02594 ,2.43416 ,23.88402 
175 ,33.3712 ,1.02782 ,2.43759 ,23.91759 
176 ,33.5477 ,1.02960 ,2.42390 ,23.78328 
177 ,33.7236 ,1.03135 ,2.40336 ,23.58181 
178 ,33.9157 ,1.03320 ,2.38625 ,23.41392 
179 ,34.1079 ,1.03520 ,2.37941 ,23.34676 
180 ,34.3002 ,1.03708 ,2.35203 ,23.07814 
181 ,34.5082 ,1.03914 ,2.34861 ,23.04456 
182 ,34.7157 ,1.04122 ,2.32123 ,22.77593 
183 ,34.8919 ,1.04309 ,2.30754 ,22.64162 
184 ,35.0845 ,1.04491 ,2.29728 ,22.54088 
185 ,35.2764 ,1.04686 ,2.27332 ,22.30584 
186 ,35.4685 ,1.04871 ,2.27332 ,22.30584 
187 ,35.6446 ,1.05059 ,2.24937 ,22.07079 
188 ,35.8207 ,1.05233 ,2.22883 ,21.86932 
189 ,35.9963 ,1.05405 ,2.20488 ,21.63427 
190 ,36.1889 ,1.05591 ,2.21515 ,21.73500 
191 ,36.3970 ,1.05800 ,2.18092 ,21.39922 
192 ,36.5730 ,1.05991 ,2.18435 ,21.43280 
193 ,36.7490 ,1.06160 ,2.17066 ,21.29849 
194 ,36.9572 ,1.06370 ,2.13301 ,20.92912 
195 ,37.1651 ,1.06569 ,2.13644 ,20.96270 
196 ,37.3572 ,1.06769 ,2.11248 ,20.72766 
197 ,37.5333 ,1.06944 ,2.09537 ,20.55976 
198 ,37.7254 ,1.07133 ,2.08168 ,20.42545 
199 ,37.9015 ,1.07314 ,2.06799 ,20.29114 
200 ,38.0775 ,1.07485 ,2.05773 ,20.19040 
201 ,38.2697 ,1.07678 ,2.03377 ,19.95535 
202 ,38.4618 ,1.07872 ,2.02693 ,19.88820 
203 ,38.6375 ,1.08046 ,2.01324 ,19.75388 
204 ,38.8134 ,1.08226 ,1.99955 ,19.61957 
205 ,39.0061 ,1.08416 ,1.99270 ,19.55241 
206 ,39.2139 ,1.08614 ,1.97217 ,19.35094 
207 ,39.4064 ,1.08812 ,1.97902 ,19.41810 
208 ,39.5983 ,1.09011 ,1.94822 ,19.11590 
209 ,39.7744 ,1.09184 ,1.92768 ,18.91443 
210 ,39.9664 ,1.09372 ,1.92768 ,18.91443 
211 ,40.1579 ,1.09564 ,1.89688 ,18.61222 
212 ,40.3500 ,1.09754 ,1.87977 ,18.44433 
213 ,40.5262 ,1.09939 ,1.87293 ,18.37717 
214 ,40.7186 ,1.10121 ,1.85582 ,18.20928 
215 ,40.9268 ,1.10338 ,1.85240 ,18.17570 
216 ,41.1349 ,1.10535 ,1.82502 ,17.90708 
217 ,41.3271 ,1.10735 ,1.82502 ,17.90708 
218 ,41.5352 ,1.10938 ,1.79422 ,17.60487 
219 ,41.7267 ,1.11137 ,1.78737 ,17.53772 
220 ,41.9190 ,1.11321 ,1.75657 ,17.23551 
221 ,42.1114 ,1.11510 ,1.76000 ,17.26909 
222 ,42.3195 ,1.11720 ,1.73946 ,17.06762 
223 ,42.5111 ,1.11916 ,1.73262 ,17.00046 
224 ,42.6876 ,1.12095 ,1.71551 ,16.83257 
225 ,42.8795 ,1.12277 ,1.70182 ,16.69826 
226 ,43.0556 ,1.12465 ,1.68471 ,16.53037 
227 ,43.2318 ,1.12641 ,1.66418 ,16.32890 
228 ,43.4239 ,1.12829 ,1.66418 ,16.32890 
229 ,43.5999 ,1.13009 ,1.66418 ,16.32890 
230 ,43.7759 ,1.13184 ,1.62995 ,15.99311 
231 ,43.9680 ,1.13367 ,1.63338 ,16.02669 
232 ,44.1602 ,1.13558 ,1.60258 ,15.72449 
233 ,44.3521 ,1.13758 ,1.59573 ,15.65733 
234 ,44.5282 ,1.13934 ,1.58204 ,15.52302 
235 ,44.6881 ,1.14109 ,1.58204 ,15.52302 
236 ,44.8642 ,1.14269 ,1.56493 ,15.35513 
237 ,45.0565 ,1.14466 ,1.53413 ,15.05292 
238 ,45.2645 ,1.14663 ,1.54098 ,15.12008 
239 ,45.4566 ,1.14864 ,1.50676 ,14.78430 
240 ,45.6325 ,1.15041 ,1.49649 ,14.68356 
241 ,45.8408 ,1.15243 ,1.49307 ,14.64998 
242 ,46.0328 ,1.15441 ,1.47596 ,14.48209 
243 ,46.2410 ,1.15644 ,1.46911 ,14.41493 
244 ,46.4329 ,1.15835 ,1.44858 ,14.21346 
245 ,46.6092 ,1.16021 ,1.42462 ,13.97842 
246 ,46.8009 ,1.16207 ,1.42462 ,13.97842 
247 ,46.9932 ,1.16399 ,1.38698 ,13.60906 
248 ,47.1693 ,1.16580 ,1.39040 ,13.64263 
249 ,47.3615 ,1.16763 ,1.39040 ,13.64263 
250 ,47.5534 ,1.16956 ,1.34934 ,13.23969 
251 ,47.7452 ,1.17151 ,1.36645 ,13.40759 
252 ,47.9057 ,1.17323 ,1.34934 ,13.23969 
253 ,48.0817 ,1.17489 ,1.33907 ,13.13896 
254 ,48.2578 ,1.17664 ,1.31512 ,12.90391 
255 ,48.4499 ,1.17854 ,1.29458 ,12.70244 
256 ,48.6420 ,1.18045 ,1.30143 ,12.76960 
257 ,48.8340 ,1.18241 ,1.26720 ,12.43381 
258 ,49.0421 ,1.18442 ,1.27063 ,12.46739 
259 ,49.2502 ,1.18642 ,1.24325 ,12.19877 
260 ,49.4261 ,1.18832 ,1.23641 ,12.13161 
261 ,49.6023 ,1.19008 ,1.23641 ,12.13161 
262 ,49.7946 ,1.19193 ,1.20561 ,11.82941 
263 ,49.9861 ,1.19391 ,1.20561 ,11.82941 
264 ,50.1785 ,1.19584 ,1.19534 ,11.72867 
265 ,50.3707 ,1.19780 ,1.16796 ,11.46004 
266 ,50.5626 ,1.19969 ,1.16454 ,11.42647 
267 ,50.7383 ,1.20146 ,1.17481 ,11.52720 
268 ,50.9150 ,1.20321 ,1.14401 ,11.22500 
269 ,51.1225 ,1.20522 ,1.13716 ,11.15784 
270 ,51.2991 ,1.20705 ,1.12005 ,10.98995 
271 ,51.4911 ,1.20894 ,1.08925 ,10.68774 
272 ,51.6831 ,1.21084 ,1.09952 ,10.78848 
273 ,51.8751 ,1.21274 ,1.08925 ,10.68774 
274 ,52.0672 ,1.21465 ,1.05845 ,10.38554 
275 ,52.2752 ,1.21671 ,1.04476 ,10.25123 
276 ,52.4514 ,1.21868 ,1.04134 ,10.21765 
277 ,52.6275 ,1.22032 ,1.02081 ,10.01618 
278 ,52.8356 ,1.22234 ,1.00370 ,9.84829 
279 ,53.0277 ,1.22432 ,0.99001 ,9.71397 
280 ,53.2353 ,1.22633 ,0.97974 ,9.61324 
281 ,53.4278 ,1.22824 ,0.98659 ,9.68039 
282 ,53.6200 ,1.23026 ,0.96263 ,9.44535 
283 ,53.8121 ,1.23207 ,0.93525 ,9.17672 
284 ,54.0200 ,1.23414 ,0.93525 ,9.17672 
285 ,54.2121 ,1.23608 ,0.90446 ,8.87451 
286 ,54.3879 ,1.23793 ,0.89761 ,8.80736 
287 ,54.5802 ,1.23977 ,0.89419 ,8.77378 
288 ,54.7723 ,1.24169 ,0.88050 ,8.63947 
289 ,54.9643 ,1.24362 ,0.85654 ,8.40442 
290 ,55.1564 ,1.24551 ,0.84628 ,8.30368 
291 ,55.3643 ,1.24758 ,0.84286 ,8.27011 
292 ,55.5565 ,1.24956 ,0.83601 ,8.20295 
293 ,55.7485 ,1.25156 ,0.80521 ,7.90074 
294 ,55.9408 ,1.25341 ,0.81548 ,8.00148 
295 ,56.1329 ,1.25526 ,0.79152 ,7.76643 
296 ,56.3249 ,1.25727 ,0.78468 ,7.69927 
297 ,56.5168 ,1.25918 ,0.78468 ,7.69927 
298 ,56.7089 ,1.26102 ,0.76757 ,7.53138 
299 ,56.8851 ,1.26288 ,0.74361 ,7.29633 
300 ,57.0613 ,1.26465 ,0.75730 ,7.43065 
301 ,57.2533 ,1.26651 ,0.72992 ,7.16202 
302 ,57.4293 ,1.26834 ,0.71281 ,6.99413 
303 ,57.6214 ,1.27023 ,0.70939 ,6.96055 
304 ,57.8133 ,1.27208 ,0.68201 ,6.69193 
305 ,58.0055 ,1.27404 ,0.67517 ,6.62477 
306 ,58.2139 ,1.27615 ,0.65806 ,6.45688 
307 ,58.4057 ,1.27804 ,0.64437 ,6.32256 
308 ,58.5816 ,1.27984 ,0.65121 ,6.38972 
309 ,58.7739 ,1.28175 ,0.62726 ,6.15467 
310 ,58.9821 ,1.28373 ,0.61357 ,6.02036 
311 ,59.1741 ,1.28572 ,0.59304 ,5.81889 
312 ,59.3658 ,1.28763 ,0.57593 ,5.65100 
313 ,59.5422 ,1.28941 ,0.58277 ,5.71815 
314 ,59.7179 ,1.29134 ,0.57593 ,5.65100 
315 ,59.8942 ,1.29294 ,0.57593 ,5.65100 
316 ,60.0704 ,1.29475 ,0.54513 ,5.34879 
317 ,60.2625 ,1.29667 ,0.54855 ,5.38237 
318 ,60.4545 ,1.29858 ,0.54171 ,5.31522 
319 ,60.6307 ,1.30036 ,0.52117 ,5.11375 
320 ,60.8228 ,1.30224 ,0.51091 ,5.01301 
321 ,61.0148 ,1.30415 ,0.49722 ,4.87870 
322 ,61.1910 ,1.30594 ,0.48353 ,4.74438 
323 ,61.3991 ,1.30792 ,0.49037 ,4.81154 
324 ,61.5912 ,1.30989 ,0.45957 ,4.50934 
325 ,61.7829 ,1.31179 ,0.45273 ,4.44218 
326 ,61.9594 ,1.31362 ,0.45273 ,4.44218 
327 ,62.1672 ,1.31560 ,0.42877 ,4.20713 
328 ,62.3434 ,1.31741 ,0.41851 ,4.10640 
329 ,62.5514 ,1.31948 ,0.40482 ,3.97208 
330 ,62.7276 ,1.32126 ,0.38771 ,3.80419 
331 ,62.9192 ,1.32317 ,0.40482 ,3.97208 
332 ,63.1118 ,1.32508 ,0.37402 ,3.66988 
333 ,63.3198 ,1.32709 ,0.36718 ,3.60272 
334 ,63.5118 ,1.32915 ,0.35006 ,3.43483 
335 ,63.7040 ,1.33100 ,0.35691 ,3.50199 
336 ,63.8956 ,1.33296 ,0.32953 ,3.23336 
337 ,64.0720 ,1.33471 ,0.32269 ,3.16620 
338 ,64.2643 ,1.33665 ,0.30215 ,2.96473 
339 ,64.4561 ,1.33852 ,0.29531 ,2.89758 
340 ,64.6642 ,1.34056 ,0.29531 ,2.89758 
341 ,64.8404 ,1.34241 ,0.27478 ,2.69611 
342 ,65.0323 ,1.34430 ,0.26451 ,2.59537 
343 ,65.2247 ,1.34620 ,0.25082 ,2.46106 
344 ,65.4165 ,1.34815 ,0.25424 ,2.49464 
345 ,65.6088 ,1.35000 ,0.23029 ,2.25959 
346 ,65.8167 ,1.35207 ,0.23029 ,2.25959 
347 ,66.0090 ,1.35411 ,0.21660 ,2.12528 
348 ,66.2007 ,1.35601 ,0.19949 ,1.95738 
349 ,66.4091 ,1.35795 ,0.18238 ,1.78949 
350 ,66.6012 ,1.35997 ,0.16527 ,1.62160 
351 ,66.7932 ,1.36187 ,0.18238 ,1.78949 
352 ,66.9850 ,1.36384 ,0.14816 ,1.45371 
353 ,67.1772 ,1.36572 ,0.16185 ,1.58802 
354 ,67.3534 ,1.36761 ,0.13105 ,1.28582 
355 ,67.5455 ,1.36943 ,0.11393 ,1.11793 
356 ,67.7376 ,1.37128 ,0.12420 ,1.21866 
357 ,67.9298 ,1.37321 ,0.11393 ,1.11793 
358 ,68.1218 ,1.37523 ,0.08656 ,0.84930 
359 ,68.3134 ,1.37703 ,0.08998 ,0.88288 
360 ,68.5057 ,1.37896 ,0.08656 ,0.84930 
361 ,68.7141 ,1.38109 ,0.06602 ,0.64783 
362 ,68.9059 ,1.38299 ,0.04549 ,0.44636 
363 ,69.0981 ,1.38485 ,0.03865 ,0.37920 
364 ,69.2902 ,1.38686 ,0.03522 ,0.34563 
365 ,69.4502 ,1.38860 ,0.02154 ,0.21131 
366 ,69.6263 ,1.39022 ,0.00100 ,0.00984 
367 ,69.8182 ,1.39210 ,0.00443 ,0.04342 
368 ,69.9945 ,1.39390 ,0.01469 ,0.14416 
369 ,70.1706 ,1.39570 ,-0.00584 ,-0.05731 
370 ,70.3628 ,1.39761 ,-0.03664 ,-0.35952 
371 ,70.5548 ,1.39949 ,-0.02295 ,-0.22520 
372 ,70.7789 ,1.40166 ,-0.05033 ,-0.49383 
373 ,70.9710 ,1.40368 ,-0.04348 ,-0.42667 
374 ,71.1631 ,1.40562 ,-0.07086 ,-0.69530 
375 ,71.3712 ,1.40753 ,-0.06402 ,-0.62814 
376 ,71.5471 ,1.40949 ,-0.09140 ,-0.89677 
377 ,71.7231 ,1.41122 ,-0.10851 ,-1.06466 
378 ,71.9152 ,1.41310 ,-0.10851 ,-1.06466 
379 ,72.0913 ,1.41491 ,-0.10851 ,-1.06466 
380 ,72.2671 ,1.41661 ,-0.13246 ,-1.29971 
381 ,72.4915 ,1.41871 ,-0.11535 ,-1.13182 
382 ,72.6837 ,1.42074 ,-0.15642 ,-1.53476 
383 ,72.8757 ,1.42268 ,-0.14957 ,-1.46760 
384 ,73.0678 ,1.42463 ,-0.16668 ,-1.63549 
385 ,73.2598 ,1.42647 ,-0.17011 ,-1.66907 
386 ,73.4356 ,1.42829 ,-0.17695 ,-1.73623 
387 ,73.6122 ,1.43010 ,-0.18379 ,-1.80338 
388 ,73.8039 ,1.43196 ,-0.21802 ,-2.13917 
389 ,74.0124 ,1.43405 ,-0.20433 ,-2.00485 
390 ,74.2204 ,1.43607 ,-0.22144 ,-2.17275 
391 ,74.4124 ,1.43801 ,-0.22828 ,-2.23990 
392 ,74.5880 ,1.43980 ,-0.23855 ,-2.34064 
393 ,74.7641 ,1.44158 ,-0.27277 ,-2.67642 
394 ,74.9565 ,1.44342 ,-0.27619 ,-2.71000 
395 ,75.1486 ,1.44537 ,-0.26250 ,-2.57569 
396 ,75.3247 ,1.44721 ,-0.28304 ,-2.77716 
397 ,75.5165 ,1.44915 ,-0.28646 ,-2.81073 
398 ,75.6929 ,1.45088 ,-0.30357 ,-2.97863 
399 ,75.8849 ,1.45272 ,-0.32410 ,-3.18010 
400 ,76.0608 ,1.45455 ,-0.31384 ,-3.07936 
401 ,76.2371 ,1.45627 ,-0.33095 ,-3.24725 
402 ,76.4135 ,1.45808 ,-0.32068 ,-3.14652 
403 ,76.6052 ,1.46005 ,-0.34121 ,-3.34799 
404 ,76.7813 ,1.46178 ,-0.35832 ,-3.51588 
405 ,76.9733 ,1.46368 ,-0.36517 ,-3.58303 
406 ,77.1816 ,1.46572 ,-0.37201 ,-3.65019 
407 ,77.3736 ,1.46761 ,-0.37886 ,-3.71735 
408 ,77.5656 ,1.46955 ,-0.39939 ,-3.91882 
409 ,77.7737 ,1.47164 ,-0.38912 ,-3.81808 
410 ,77.9494 ,1.47344 ,-0.38570 ,-3.78450 
411 ,78.1259 ,1.47521 ,-0.40623 ,-3.98597 
412 ,78.3341 ,1.47720 ,-0.42677 ,-4.18744 
413 ,78.5102 ,1.47903 ,-0.42677 ,-4.18744 
414 ,78.7023 ,1.48089 ,-0.44730 ,-4.38891 
415 ,78.8943 ,1.48282 ,-0.44046 ,-4.32176 
416 ,79.0860 ,1.48486 ,-0.47126 ,-4.62396 
417 ,79.2625 ,1.48658 ,-0.47810 ,-4.69112 
418 ,79.4545 ,1.48856 ,-0.47810 ,-4.69112 
419 ,79.6305 ,1.49025 ,-0.48152 ,-4.72470 
420 ,79.8066 ,1.49201 ,-0.50890 ,-4.99332 
421 ,79.9986 ,1.49397 ,-0.51574 ,-5.06048 
422 ,80.1908 ,1.49590 ,-0.52601 ,-5.16121 
423 ,80.3667 ,1.49760 ,-0.51917 ,-5.09406 
424 ,80.5429 ,1.49936 ,-0.53285 ,-5.22837 
425 ,80.7349 ,1.50120 ,-0.53628 ,-5.26195 
426 ,80.9269 ,1.50313 ,-0.55681 ,-5.46342 
427 ,81.1032 ,1.50496 ,-0.55339 ,-5.42984 
428 ,81.3114 ,1.50698 ,-0.57050 ,-5.59773 
429 ,81.5033 ,1.50892 ,-0.59103 ,-5.79920 
430 ,81.6953 ,1.51083 ,-0.57392 ,-5.63131 
431 ,81.8715 ,1.51265 ,-0.58761 ,-5.76562 
432 ,82.0636 ,1.51452 ,-0.61156 ,-6.00067 
433 ,82.2712 ,1.51657 ,-0.60130 ,-5.89994 
434 ,82.4477 ,1.51845 ,-0.60130 ,-5.89994 
435 ,82.6398 ,1.52038 ,-0.64236 ,-6.30288 
436 ,82.8478 ,1.52237 ,-0.64236 ,-6.30288 
437 ,83.0239 ,1.52417 ,-0.64921 ,-6.37003 
438 ,83.2162 ,1.52610 ,-0.66974 ,-6.57150 
439 ,83.3921 ,1.52791 ,-0.65605 ,-6.43719 
440 ,83.5681 ,1.52965 ,-0.65947 ,-6.47077 
441 ,83.7439 ,1.53145 ,-0.69027 ,-6.77297 
442 ,83.9039 ,1.53310 ,-0.70054 ,-6.87371 
443 ,84.0800 ,1.53468 ,-0.70739 ,-6.94086 
444 ,84.2402 ,1.53644 ,-0.70739 ,-6.94086 
445 ,84.4161 ,1.53804 ,-0.71765 ,-7.04160 
446 ,84.5926 ,1.53992 ,-0.73134 ,-7.17591 
447 ,84.7846 ,1.54173 ,-0.71765 ,-7.04160 
448 ,84.9608 ,1.54357 ,-0.74845 ,-7.34380 
449 ,85.1529 ,1.54542 ,-0.73818 ,-7.24307 
450 ,85.3449 ,1.54739 ,-0.76214 ,-7.47812 
451 ,85.5209 ,1.54918 ,-0.76214 ,-7.47812 
452 ,85.6970 ,1.55087 ,-0.77925 ,-7.64601 
453 ,85.8891 ,1.55276 ,-0.77583 ,-7.61243 
454 ,86.0653 ,1.55459 ,-0.78610 ,-7.71317 
455 ,86.2572 ,1.55654 ,-0.79636 ,-7.81390 
456 ,86.4654 ,1.55846 ,-0.80663 ,-7.91464 
457 ,86.6414 ,1.56030 ,-0.82032 ,-8.04895 
458 ,86.8335 ,1.56222 ,-0.81689 ,-8.01537 
459 ,87.0098 ,1.56403 ,-0.82032 ,-8.04895 
460 ,87.2016 ,1.56591 ,-0.84769 ,-8.31758 
461 ,87.3776 ,1.56765 ,-0.84427 ,-8.28400 
462 ,87.5538 ,1.56947 ,-0.85454 ,-8.38473 
463 ,87.7298 ,1.57126 ,-0.85796 ,-8.41831 
