Data stamp = , 25-04-2022 03:17:21 998

Calibration Values: 
Slope = , 26.54 , g/V 
Offset Voltage at no contact = , -0.501760 , V 

No , Time , Stage Position ,   Mass , Force 
   ,  (s) ,      (mm)      ,   (g)  , (mN)  

1 ,0.0000 ,0.69945 ,5.25403 ,51.55254 
2 ,0.2241 ,0.69954 ,5.26772 ,51.68685 
3 ,0.5288 ,0.70037 ,5.25745 ,51.58611 
4 ,0.7526 ,0.70190 ,5.25061 ,51.51896 
5 ,0.9606 ,0.70375 ,5.26087 ,51.61969 
6 ,1.1526 ,0.70575 ,5.24718 ,51.48538 
7 ,1.3450 ,0.70751 ,5.27456 ,51.75401 
8 ,1.5530 ,0.70957 ,5.25403 ,51.55254 
9 ,1.7291 ,0.71145 ,5.24718 ,51.48538 
10 ,1.9052 ,0.71324 ,5.25403 ,51.55254 
11 ,2.0809 ,0.71500 ,5.23350 ,51.35107 
12 ,2.2734 ,0.71687 ,5.20270 ,51.04886 
13 ,2.4654 ,0.71884 ,5.19585 ,50.98170 
14 ,2.6575 ,0.72070 ,5.15821 ,50.61234 
15 ,2.8337 ,0.72253 ,5.14110 ,50.44445 
16 ,3.0414 ,0.72455 ,5.13425 ,50.37729 
17 ,3.2338 ,0.72652 ,5.09661 ,50.00793 
18 ,3.4259 ,0.72847 ,5.08977 ,49.94078 
19 ,3.6179 ,0.73029 ,5.05554 ,49.60499 
20 ,3.7941 ,0.73213 ,5.04870 ,49.53784 
21 ,3.9862 ,0.73404 ,5.03501 ,49.40352 
22 ,4.1782 ,0.73598 ,5.02474 ,49.30279 
23 ,4.3703 ,0.73781 ,4.98026 ,48.86627 
24 ,4.5622 ,0.73980 ,4.99052 ,48.96701 
25 ,4.7384 ,0.74152 ,4.95972 ,48.66480 
26 ,4.9142 ,0.74328 ,4.92550 ,48.32902 
27 ,5.1066 ,0.74510 ,4.91523 ,48.22828 
28 ,5.2982 ,0.74710 ,4.89470 ,48.02681 
29 ,5.4909 ,0.74902 ,4.87759 ,47.85892 
30 ,5.6989 ,0.75114 ,4.86732 ,47.75819 
31 ,5.8909 ,0.75308 ,4.82626 ,47.35525 
32 ,6.0990 ,0.75512 ,4.82284 ,47.32167 
33 ,6.2751 ,0.75695 ,4.80230 ,47.12020 
34 ,6.4510 ,0.75867 ,4.76808 ,46.78442 
35 ,6.6432 ,0.76054 ,4.76466 ,46.75084 
36 ,6.8511 ,0.76265 ,4.74755 ,46.58295 
37 ,7.0275 ,0.76446 ,4.72359 ,46.34790 
38 ,7.2195 ,0.76647 ,4.69279 ,46.04569 
39 ,7.3963 ,0.76812 ,4.68253 ,45.94496 
40 ,7.5876 ,0.77001 ,4.65857 ,45.70991 
41 ,7.7798 ,0.77191 ,4.65173 ,45.64275 
42 ,7.9878 ,0.77406 ,4.61751 ,45.30697 
43 ,8.1638 ,0.77577 ,4.61751 ,45.30697 
44 ,8.3718 ,0.77775 ,4.58328 ,44.97119 
45 ,8.5480 ,0.77963 ,4.55249 ,44.66898 
46 ,8.7241 ,0.78140 ,4.56275 ,44.76972 
47 ,8.9161 ,0.78323 ,4.53195 ,44.46751 
48 ,9.1082 ,0.78523 ,4.50115 ,44.16531 
49 ,9.3005 ,0.78714 ,4.51142 ,44.26604 
50 ,9.5084 ,0.78922 ,4.47378 ,43.89668 
51 ,9.6841 ,0.79102 ,4.46009 ,43.76237 
52 ,9.8926 ,0.79297 ,4.43613 ,43.52732 
53 ,10.0846 ,0.79495 ,4.43271 ,43.49374 
54 ,10.2609 ,0.79673 ,4.41560 ,43.32585 
55 ,10.4687 ,0.79876 ,4.38480 ,43.02365 
56 ,10.6605 ,0.80072 ,4.36769 ,42.85576 
57 ,10.8366 ,0.80254 ,4.36084 ,42.78860 
58 ,11.0129 ,0.80426 ,4.33004 ,42.48639 
59 ,11.1890 ,0.80600 ,4.30267 ,42.21777 
60 ,11.3809 ,0.80794 ,4.30951 ,42.28492 
61 ,11.5732 ,0.80983 ,4.26845 ,41.88198 
62 ,11.7811 ,0.81183 ,4.26845 ,41.88198 
63 ,11.9733 ,0.81388 ,4.24107 ,41.61336 
64 ,12.1495 ,0.81568 ,4.22053 ,41.41189 
65 ,12.3574 ,0.81767 ,4.20685 ,41.27758 
66 ,12.5336 ,0.81945 ,4.19316 ,41.14326 
67 ,12.7097 ,0.82122 ,4.16236 ,40.84106 
68 ,12.9016 ,0.82311 ,4.16236 ,40.84106 
69 ,13.0938 ,0.82512 ,4.14525 ,40.67317 
70 ,13.2699 ,0.82683 ,4.11103 ,40.33738 
71 ,13.4779 ,0.82894 ,4.11787 ,40.40454 
72 ,13.6540 ,0.83066 ,4.08023 ,40.03518 
73 ,13.8618 ,0.83266 ,4.08023 ,40.03518 
74 ,14.0541 ,0.83458 ,4.03574 ,39.59866 
75 ,14.2463 ,0.83662 ,4.02205 ,39.46435 
76 ,14.4385 ,0.83852 ,4.02547 ,39.49793 
77 ,14.6306 ,0.84038 ,3.98783 ,39.12856 
78 ,14.8226 ,0.84237 ,3.99809 ,39.22930 
79 ,14.9986 ,0.84419 ,3.96045 ,38.85994 
80 ,15.1586 ,0.84586 ,3.95361 ,38.79278 
81 ,15.3506 ,0.84755 ,3.92281 ,38.49058 
82 ,15.5268 ,0.84943 ,3.89885 ,38.25553 
83 ,15.7189 ,0.85134 ,3.90570 ,38.32268 
84 ,15.9110 ,0.85322 ,3.87832 ,38.05406 
85 ,16.1190 ,0.85526 ,3.86463 ,37.91975 
86 ,16.3431 ,0.85755 ,3.84410 ,37.71828 
87 ,16.5351 ,0.85943 ,3.82699 ,37.55038 
88 ,16.7272 ,0.86140 ,3.80303 ,37.31534 
89 ,16.9192 ,0.86327 ,3.77908 ,37.08029 
90 ,17.0950 ,0.86509 ,3.78250 ,37.11387 
91 ,17.2713 ,0.86684 ,3.76539 ,36.94597 
92 ,17.4796 ,0.86886 ,3.74828 ,36.77808 
93 ,17.6714 ,0.87073 ,3.73801 ,36.67735 
94 ,17.8637 ,0.87274 ,3.70721 ,36.37514 
95 ,18.0398 ,0.87450 ,3.69694 ,36.27441 
96 ,18.2317 ,0.87636 ,3.67641 ,36.07294 
97 ,18.4239 ,0.87832 ,3.63877 ,35.70358 
98 ,18.6002 ,0.88013 ,3.64561 ,35.77073 
99 ,18.7922 ,0.88203 ,3.62166 ,35.53569 
100 ,19.0004 ,0.88402 ,3.61823 ,35.50211 
101 ,19.1920 ,0.88598 ,3.59086 ,35.23348 
102 ,19.3844 ,0.88790 ,3.56348 ,34.96485 
103 ,19.5924 ,0.89004 ,3.55663 ,34.89770 
104 ,19.7846 ,0.89194 ,3.52241 ,34.56192 
105 ,19.9766 ,0.89385 ,3.52584 ,34.59549 
106 ,20.1527 ,0.89560 ,3.50530 ,34.39402 
107 ,20.3287 ,0.89745 ,3.48135 ,34.15898 
108 ,20.5048 ,0.89914 ,3.46766 ,34.02466 
109 ,20.6809 ,0.90093 ,3.45739 ,33.92393 
110 ,20.8568 ,0.90269 ,3.44028 ,33.75604 
111 ,21.0330 ,0.90444 ,3.43344 ,33.68888 
112 ,21.2251 ,0.90637 ,3.40606 ,33.42025 
113 ,21.4009 ,0.90813 ,3.39921 ,33.35310 
114 ,21.5774 ,0.90991 ,3.38895 ,33.25236 
115 ,21.7693 ,0.91172 ,3.35473 ,32.91658 
116 ,21.9455 ,0.91360 ,3.33762 ,32.74869 
117 ,22.1214 ,0.91537 ,3.34788 ,32.84942 
118 ,22.3135 ,0.91709 ,3.33077 ,32.68153 
119 ,22.5216 ,0.91927 ,3.30339 ,32.41290 
120 ,22.6976 ,0.92109 ,3.29997 ,32.37933 
121 ,22.8736 ,0.92279 ,3.27602 ,32.14428 
122 ,23.0499 ,0.92456 ,3.26917 ,32.07712 
123 ,23.2420 ,0.92647 ,3.24864 ,31.87565 
124 ,23.4501 ,0.92857 ,3.22468 ,31.64060 
125 ,23.6422 ,0.93043 ,3.20073 ,31.40555 
126 ,23.8343 ,0.93238 ,3.19388 ,31.33840 
127 ,24.0263 ,0.93437 ,3.16993 ,31.10335 
128 ,24.2023 ,0.93614 ,3.15624 ,30.96904 
129 ,24.3785 ,0.93789 ,3.15282 ,30.93546 
130 ,24.5702 ,0.93977 ,3.13229 ,30.73399 
131 ,24.7626 ,0.94164 ,3.12202 ,30.63325 
132 ,25.0029 ,0.94388 ,3.09806 ,30.39821 
133 ,25.1784 ,0.94594 ,3.09122 ,30.33105 
134 ,25.3710 ,0.94778 ,3.07411 ,30.16316 
135 ,25.5630 ,0.94970 ,3.04331 ,29.86095 
136 ,25.7707 ,0.95171 ,3.03989 ,29.82737 
137 ,25.9628 ,0.95371 ,3.00224 ,29.45801 
138 ,26.1552 ,0.95553 ,3.00224 ,29.45801 
139 ,26.3314 ,0.95740 ,2.98855 ,29.32370 
140 ,26.5071 ,0.95919 ,2.96118 ,29.05507 
141 ,26.6835 ,0.96092 ,2.94749 ,28.92076 
142 ,26.8755 ,0.96282 ,2.94407 ,28.88718 
143 ,27.0512 ,0.96460 ,2.94407 ,28.88718 
144 ,27.2437 ,0.96645 ,2.90642 ,28.51782 
145 ,27.4356 ,0.96841 ,2.88931 ,28.34993 
146 ,27.6119 ,0.97022 ,2.88931 ,28.34993 
147 ,27.8036 ,0.97210 ,2.85851 ,28.04772 
148 ,27.9957 ,0.97401 ,2.87562 ,28.21562 
149 ,28.1720 ,0.97579 ,2.84482 ,27.91341 
150 ,28.3802 ,0.97786 ,2.81402 ,27.61121 
151 ,28.5720 ,0.97983 ,2.81060 ,27.57763 
152 ,28.7643 ,0.98166 ,2.77980 ,27.27542 
153 ,28.9562 ,0.98363 ,2.78665 ,27.34258 
154 ,29.1324 ,0.98541 ,2.76611 ,27.14111 
155 ,29.3084 ,0.98717 ,2.74900 ,26.97322 
156 ,29.5166 ,0.98916 ,2.74558 ,26.93964 
157 ,29.7084 ,0.99107 ,2.71478 ,26.63744 
158 ,29.8847 ,0.99296 ,2.69083 ,26.40239 
159 ,30.0766 ,0.99478 ,2.69083 ,26.40239 
160 ,30.2689 ,0.99675 ,2.67372 ,26.23450 
161 ,30.4768 ,0.99880 ,2.65660 ,26.06661 
162 ,30.6529 ,1.00058 ,2.63265 ,25.83156 
163 ,30.8450 ,1.00251 ,2.61896 ,25.69724 
164 ,31.0367 ,1.00439 ,2.60869 ,25.59651 
165 ,31.2292 ,1.00631 ,2.57789 ,25.29430 
166 ,31.4213 ,1.00818 ,2.57447 ,25.26073 
167 ,31.6293 ,1.01029 ,2.56421 ,25.15999 
168 ,31.8056 ,1.01214 ,2.54367 ,24.95852 
169 ,31.9976 ,1.01402 ,2.52314 ,24.75705 
170 ,32.2056 ,1.01611 ,2.49918 ,24.52200 
171 ,32.3815 ,1.01787 ,2.49918 ,24.52200 
172 ,32.5577 ,1.01965 ,2.47865 ,24.32053 
173 ,32.7339 ,1.02138 ,2.47523 ,24.28696 
174 ,32.9259 ,1.02326 ,2.46496 ,24.18622 
175 ,33.1180 ,1.02517 ,2.43759 ,23.91759 
176 ,33.3101 ,1.02707 ,2.43759 ,23.91759 
177 ,33.5023 ,1.02906 ,2.40336 ,23.58181 
178 ,33.6782 ,1.03086 ,2.39310 ,23.48108 
179 ,33.8543 ,1.03263 ,2.37941 ,23.34676 
180 ,34.0465 ,1.03444 ,2.36230 ,23.17887 
181 ,34.2385 ,1.03642 ,2.34177 ,22.97740 
182 ,34.4306 ,1.03832 ,2.35203 ,23.07814 
183 ,34.6224 ,1.04029 ,2.31439 ,22.70877 
184 ,34.8147 ,1.04212 ,2.31439 ,22.70877 
185 ,35.0228 ,1.04427 ,2.29043 ,22.47373 
186 ,35.1990 ,1.04604 ,2.26648 ,22.23868 
187 ,35.3906 ,1.04790 ,2.26990 ,22.27226 
188 ,35.5670 ,1.04975 ,2.24937 ,22.07079 
189 ,35.7591 ,1.05163 ,2.22199 ,21.80216 
190 ,35.9352 ,1.05339 ,2.21172 ,21.70143 
191 ,36.1273 ,1.05529 ,2.20830 ,21.66785 
192 ,36.3194 ,1.05727 ,2.19119 ,21.49996 
193 ,36.4953 ,1.05902 ,2.16723 ,21.26491 
194 ,36.6712 ,1.06077 ,2.16039 ,21.19775 
195 ,36.8634 ,1.06265 ,2.14670 ,21.06344 
196 ,37.0396 ,1.06445 ,2.11590 ,20.76123 
197 ,37.3753 ,1.06708 ,2.12959 ,20.89555 
198 ,37.5516 ,1.06957 ,2.08852 ,20.49261 
199 ,37.7439 ,1.07151 ,2.08168 ,20.42545 
200 ,37.9195 ,1.07336 ,2.05430 ,20.15682 
201 ,38.0957 ,1.07501 ,2.04404 ,20.05609 
202 ,38.2557 ,1.07675 ,2.04404 ,20.05609 
203 ,38.4482 ,1.07842 ,2.02008 ,19.82104 
204 ,38.6563 ,1.08049 ,2.01324 ,19.75388 
205 ,38.8321 ,1.08241 ,2.00639 ,19.68673 
206 ,39.0246 ,1.08423 ,1.98586 ,19.48526 
207 ,39.2325 ,1.08636 ,1.96875 ,19.31737 
208 ,39.4087 ,1.08814 ,1.96533 ,19.28379 
209 ,39.6163 ,1.09012 ,1.92768 ,18.91443 
210 ,39.7925 ,1.09202 ,1.93111 ,18.94801 
211 ,39.9847 ,1.09388 ,1.91057 ,18.74654 
212 ,40.1605 ,1.09562 ,1.90373 ,18.67938 
213 ,40.3529 ,1.09748 ,1.88319 ,18.47791 
214 ,40.5611 ,1.09958 ,1.85240 ,18.17570 
215 ,40.7367 ,1.10149 ,1.86608 ,18.31002 
216 ,40.9129 ,1.10318 ,1.83186 ,17.97423 
217 ,41.1209 ,1.10521 ,1.82502 ,17.90708 
218 ,41.2973 ,1.10703 ,1.81133 ,17.77276 
219 ,41.4894 ,1.10891 ,1.80449 ,17.70561 
220 ,41.6653 ,1.11069 ,1.79080 ,17.57129 
221 ,41.8414 ,1.11239 ,1.77026 ,17.36983 
222 ,42.0177 ,1.11423 ,1.75657 ,17.23551 
223 ,42.2095 ,1.11611 ,1.75315 ,17.20193 
224 ,42.4021 ,1.11803 ,1.72578 ,16.93331 
225 ,42.5779 ,1.11985 ,1.70524 ,16.73184 
226 ,42.7859 ,1.12182 ,1.69498 ,16.63110 
227 ,42.9779 ,1.12376 ,1.66760 ,16.36248 
228 ,43.1702 ,1.12574 ,1.65391 ,16.22816 
229 ,43.3621 ,1.12758 ,1.65733 ,16.26174 
230 ,43.5542 ,1.12949 ,1.64364 ,16.12743 
231 ,43.7463 ,1.13150 ,1.63680 ,16.06027 
232 ,43.9220 ,1.13324 ,1.61627 ,15.85880 
233 ,44.1142 ,1.13510 ,1.59916 ,15.69091 
234 ,44.3067 ,1.13711 ,1.59916 ,15.69091 
235 ,44.5146 ,1.13907 ,1.57178 ,15.42228 
236 ,44.6908 ,1.14097 ,1.55124 ,15.22081 
237 ,44.8827 ,1.14281 ,1.54782 ,15.18724 
238 ,45.0748 ,1.14469 ,1.52729 ,14.98577 
239 ,45.2670 ,1.14662 ,1.52045 ,14.91861 
240 ,45.4591 ,1.14858 ,1.49649 ,14.68356 
241 ,45.6510 ,1.15045 ,1.48965 ,14.61640 
242 ,45.8272 ,1.15231 ,1.48280 ,14.54925 
243 ,46.0192 ,1.15422 ,1.47253 ,14.44851 
244 ,46.1952 ,1.15602 ,1.45200 ,14.24704 
245 ,46.4037 ,1.15803 ,1.44174 ,14.14631 
246 ,46.6111 ,1.16008 ,1.42805 ,14.01199 
247 ,46.7876 ,1.16189 ,1.41778 ,13.91126 
248 ,46.9796 ,1.16374 ,1.39040 ,13.64263 
249 ,47.1711 ,1.16567 ,1.37671 ,13.50832 
250 ,47.3478 ,1.16752 ,1.37329 ,13.47474 
251 ,47.5558 ,1.16951 ,1.36303 ,13.37401 
252 ,47.7639 ,1.17151 ,1.34591 ,13.20612 
253 ,47.9718 ,1.17364 ,1.31854 ,12.93749 
254 ,48.1802 ,1.17574 ,1.31854 ,12.93749 
255 ,48.3719 ,1.17766 ,1.29800 ,12.73602 
256 ,48.5804 ,1.17976 ,1.28089 ,12.56813 
257 ,48.7723 ,1.18168 ,1.27405 ,12.50097 
258 ,48.9804 ,1.18372 ,1.25352 ,12.29950 
259 ,49.1724 ,1.18566 ,1.24325 ,12.19877 
260 ,49.3964 ,1.18791 ,1.20903 ,11.86298 
261 ,49.5722 ,1.18972 ,1.20561 ,11.82941 
262 ,49.7643 ,1.19167 ,1.21587 ,11.93014 
263 ,49.9567 ,1.19359 ,1.17481 ,11.52720 
264 ,50.1487 ,1.19550 ,1.16454 ,11.42647 
265 ,50.3408 ,1.19737 ,1.15770 ,11.35931 
266 ,50.5328 ,1.19938 ,1.14058 ,11.19142 
267 ,50.7251 ,1.20127 ,1.14401 ,11.22500 
268 ,50.9171 ,1.20317 ,1.12347 ,11.02353 
269 ,51.1092 ,1.20499 ,1.10979 ,10.88921 
270 ,51.3009 ,1.20696 ,1.10636 ,10.85563 
271 ,51.4768 ,1.20884 ,1.07899 ,10.58701 
272 ,51.6689 ,1.21059 ,1.08241 ,10.62059 
273 ,51.8616 ,1.21254 ,1.06187 ,10.41912 
274 ,52.0695 ,1.21464 ,1.05161 ,10.31838 
275 ,52.2453 ,1.21648 ,1.02765 ,10.08333 
276 ,52.4215 ,1.21820 ,1.03108 ,10.11691 
277 ,52.6139 ,1.22015 ,1.00028 ,9.81471 
278 ,52.8218 ,1.22218 ,1.00028 ,9.81471 
279 ,53.0140 ,1.22407 ,0.97290 ,9.54608 
280 ,53.2060 ,1.22599 ,0.98659 ,9.68039 
281 ,53.3822 ,1.22785 ,0.96263 ,9.44535 
282 ,53.5738 ,1.22962 ,0.94894 ,9.31103 
283 ,53.7664 ,1.23161 ,0.94552 ,9.27745 
284 ,53.9585 ,1.23360 ,0.92499 ,9.07598 
285 ,54.1506 ,1.23544 ,0.90103 ,8.84094 
286 ,54.3425 ,1.23738 ,0.90103 ,8.84094 
287 ,54.5346 ,1.23932 ,0.88734 ,8.70662 
288 ,54.7104 ,1.24104 ,0.86681 ,8.50515 
289 ,54.8867 ,1.24286 ,0.86681 ,8.50515 
290 ,55.0628 ,1.24458 ,0.84628 ,8.30368 
291 ,55.2548 ,1.24656 ,0.82917 ,8.13579 
292 ,55.4305 ,1.24824 ,0.81548 ,8.00148 
293 ,55.6072 ,1.25004 ,0.80521 ,7.90074 
294 ,55.7991 ,1.25197 ,0.82232 ,8.06864 
295 ,55.9749 ,1.25376 ,0.79152 ,7.76643 
296 ,56.1674 ,1.25561 ,0.77784 ,7.63212 
297 ,56.3752 ,1.25765 ,0.75388 ,7.39707 
298 ,56.5675 ,1.25965 ,0.74704 ,7.32991 
299 ,56.7593 ,1.26149 ,0.74361 ,7.29633 
300 ,56.9513 ,1.26339 ,0.71624 ,7.02771 
301 ,57.1597 ,1.26557 ,0.71624 ,7.02771 
302 ,57.3517 ,1.26749 ,0.69570 ,6.82624 
303 ,57.5277 ,1.26924 ,0.69228 ,6.79266 
304 ,57.7197 ,1.27116 ,0.68886 ,6.75908 
305 ,57.8796 ,1.27288 ,0.67175 ,6.59119 
306 ,58.0721 ,1.27463 ,0.64437 ,6.32256 
307 ,58.2641 ,1.27660 ,0.65121 ,6.38972 
308 ,58.4403 ,1.27836 ,0.64437 ,6.32256 
309 ,58.6323 ,1.28023 ,0.62726 ,6.15467 
310 ,58.8245 ,1.28214 ,0.61699 ,6.05394 
311 ,58.9999 ,1.28402 ,0.58962 ,5.78531 
312 ,59.1766 ,1.28575 ,0.59988 ,5.88605 
313 ,59.3686 ,1.28765 ,0.57935 ,5.68458 
314 ,59.5606 ,1.28951 ,0.57593 ,5.65100 
315 ,59.7367 ,1.29131 ,0.57251 ,5.61742 
316 ,59.9125 ,1.29307 ,0.54855 ,5.38237 
317 ,60.0889 ,1.29482 ,0.52459 ,5.14732 
318 ,60.2649 ,1.29660 ,0.53828 ,5.28164 
319 ,60.4407 ,1.29835 ,0.51775 ,5.08017 
320 ,60.6169 ,1.30017 ,0.50406 ,4.94585 
321 ,60.8091 ,1.30206 ,0.47668 ,4.67723 
322 ,60.9850 ,1.30386 ,0.47668 ,4.67723 
323 ,61.1773 ,1.30568 ,0.48011 ,4.71081 
324 ,61.3374 ,1.30744 ,0.45957 ,4.50934 
325 ,61.5296 ,1.30922 ,0.44931 ,4.40860 
326 ,61.7215 ,1.31113 ,0.45615 ,4.47576 
327 ,61.9136 ,1.31313 ,0.42193 ,4.13997 
328 ,62.0896 ,1.31498 ,0.40824 ,4.00566 
329 ,62.2655 ,1.31662 ,0.39797 ,3.90493 
330 ,62.4418 ,1.31834 ,0.39455 ,3.87135 
331 ,62.6339 ,1.32023 ,0.36718 ,3.60272 
332 ,62.8096 ,1.32205 ,0.37744 ,3.70346 
333 ,62.9862 ,1.32377 ,0.35349 ,3.46841 
334 ,63.1782 ,1.32562 ,0.37060 ,3.63630 
335 ,63.3702 ,1.32761 ,0.32953 ,3.23336 
336 ,63.5623 ,1.32960 ,0.34322 ,3.36767 
337 ,63.7545 ,1.33143 ,0.32269 ,3.16620 
338 ,63.9464 ,1.33337 ,0.31242 ,3.06547 
339 ,64.1224 ,1.33514 ,0.30558 ,2.99831 
340 ,64.3142 ,1.33709 ,0.29531 ,2.89758 
341 ,64.5068 ,1.33897 ,0.26793 ,2.62895 
342 ,64.6984 ,1.34094 ,0.27820 ,2.72969 
343 ,64.8749 ,1.34270 ,0.26793 ,2.62895 
344 ,65.0670 ,1.34457 ,0.24055 ,2.36032 
345 ,65.2591 ,1.34652 ,0.25082 ,2.46106 
346 ,65.4672 ,1.34850 ,0.22002 ,2.15885 
347 ,65.6752 ,1.35060 ,0.21318 ,2.09170 
348 ,65.8673 ,1.35252 ,0.19607 ,1.92381 
349 ,66.0754 ,1.35461 ,0.19607 ,1.92381 
350 ,66.2675 ,1.35655 ,0.17553 ,1.72234 
351 ,66.4592 ,1.35847 ,0.17211 ,1.68876 
352 ,66.6513 ,1.36037 ,0.15158 ,1.48729 
353 ,66.8277 ,1.36223 ,0.14816 ,1.45371 
354 ,67.0358 ,1.36417 ,0.13105 ,1.28582 
355 ,67.2278 ,1.36620 ,0.13105 ,1.28582 
356 ,67.4359 ,1.36831 ,0.13447 ,1.31940 
357 ,67.6440 ,1.37031 ,0.10025 ,0.98361 
358 ,67.8361 ,1.37229 ,0.09682 ,0.95004 
359 ,68.0279 ,1.37421 ,0.07971 ,0.78214 
360 ,68.2042 ,1.37606 ,0.06260 ,0.61425 
361 ,68.3963 ,1.37780 ,0.08314 ,0.81572 
362 ,68.5879 ,1.37982 ,0.05576 ,0.54710 
363 ,68.7802 ,1.38163 ,0.05576 ,0.54710 
364 ,68.9885 ,1.38376 ,0.02496 ,0.24489 
365 ,69.1806 ,1.38565 ,0.01811 ,0.17773 
366 ,69.3728 ,1.38762 ,0.01811 ,0.17773 
367 ,69.5647 ,1.38960 ,-0.00926 ,-0.09089 
368 ,69.7568 ,1.39146 ,-0.01611 ,-0.15805 
369 ,69.9329 ,1.39328 ,-0.00926 ,-0.09089 
370 ,70.1250 ,1.39516 ,-0.03322 ,-0.32594 
371 ,70.3010 ,1.39698 ,-0.02637 ,-0.25878 
372 ,70.4931 ,1.39883 ,-0.03664 ,-0.35952 
373 ,70.7012 ,1.40089 ,-0.06402 ,-0.62814 
374 ,70.9094 ,1.40282 ,-0.05033 ,-0.49383 
375 ,71.1171 ,1.40504 ,-0.08455 ,-0.82961 
376 ,71.2932 ,1.40685 ,-0.07086 ,-0.69530 
377 ,71.4856 ,1.40868 ,-0.10166 ,-0.99751 
378 ,71.6776 ,1.41062 ,-0.10851 ,-1.06466 
379 ,71.8533 ,1.41243 ,-0.11535 ,-1.13182 
380 ,72.0299 ,1.41421 ,-0.11877 ,-1.16540 
381 ,72.2219 ,1.41612 ,-0.14615 ,-1.43402 
382 ,72.4140 ,1.41800 ,-0.13931 ,-1.36687 
383 ,72.5900 ,1.41988 ,-0.17695 ,-1.73623 
384 ,72.7662 ,1.42160 ,-0.17011 ,-1.66907 
385 ,72.9417 ,1.42332 ,-0.17695 ,-1.73623 
386 ,73.1179 ,1.42507 ,-0.20433 ,-2.00485 
387 ,73.2943 ,1.42687 ,-0.19064 ,-1.87054 
388 ,73.4705 ,1.42859 ,-0.19748 ,-1.93770 
389 ,73.6786 ,1.43059 ,-0.21802 ,-2.13917 
390 ,73.8707 ,1.43254 ,-0.23170 ,-2.27348 
391 ,74.0786 ,1.43461 ,-0.23513 ,-2.30706 
392 ,74.2867 ,1.43673 ,-0.25224 ,-2.47495 
393 ,74.4628 ,1.43856 ,-0.25566 ,-2.50853 
394 ,74.6549 ,1.44037 ,-0.26593 ,-2.60926 
395 ,74.8470 ,1.44232 ,-0.28304 ,-2.77716 
396 ,75.0387 ,1.44428 ,-0.28646 ,-2.81073 
397 ,75.2312 ,1.44616 ,-0.29330 ,-2.87789 
398 ,75.4553 ,1.44833 ,-0.29330 ,-2.87789 
399 ,75.6472 ,1.45033 ,-0.31726 ,-3.11294 
400 ,75.8395 ,1.45227 ,-0.33779 ,-3.31441 
401 ,76.0313 ,1.45413 ,-0.32752 ,-3.21367 
402 ,76.2076 ,1.45608 ,-0.33437 ,-3.28083 
403 ,76.3996 ,1.45776 ,-0.35490 ,-3.48230 
404 ,76.5755 ,1.45971 ,-0.36517 ,-3.58303 
405 ,76.7678 ,1.46156 ,-0.36517 ,-3.58303 
406 ,76.9439 ,1.46336 ,-0.37201 ,-3.65019 
407 ,77.1518 ,1.46534 ,-0.36859 ,-3.61661 
408 ,77.3441 ,1.46731 ,-0.40281 ,-3.95240 
409 ,77.5201 ,1.46909 ,-0.41650 ,-4.08671 
410 ,77.7123 ,1.47102 ,-0.42677 ,-4.18744 
411 ,77.8884 ,1.47282 ,-0.41308 ,-4.05313 
412 ,78.0805 ,1.47464 ,-0.44730 ,-4.38891 
413 ,78.2721 ,1.47656 ,-0.43361 ,-4.25460 
414 ,78.4806 ,1.47854 ,-0.43361 ,-4.25460 
415 ,78.6886 ,1.48073 ,-0.45072 ,-4.42249 
416 ,78.8648 ,1.48257 ,-0.47468 ,-4.65754 
417 ,79.0728 ,1.48461 ,-0.48152 ,-4.72470 
418 ,79.2643 ,1.48650 ,-0.47810 ,-4.69112 
419 ,79.4569 ,1.48844 ,-0.50548 ,-4.95975 
420 ,79.6489 ,1.49028 ,-0.49863 ,-4.89259 
421 ,79.8250 ,1.49214 ,-0.50890 ,-4.99332 
422 ,80.0011 ,1.49389 ,-0.52601 ,-5.16121 
423 ,80.1773 ,1.49567 ,-0.53628 ,-5.26195 
424 ,80.3694 ,1.49758 ,-0.53628 ,-5.26195 
425 ,80.5454 ,1.49934 ,-0.55339 ,-5.42984 
426 ,80.7375 ,1.50122 ,-0.57392 ,-5.63131 
427 ,80.9136 ,1.50305 ,-0.57392 ,-5.63131 
428 ,81.1056 ,1.50485 ,-0.57734 ,-5.66489 
429 ,81.2817 ,1.50669 ,-0.57392 ,-5.63131 
430 ,81.4737 ,1.50861 ,-0.59788 ,-5.86636 
431 ,81.6659 ,1.51044 ,-0.60130 ,-5.89994 
432 ,81.8739 ,1.51252 ,-0.63210 ,-6.20214 
433 ,82.0660 ,1.51449 ,-0.62183 ,-6.10141 
434 ,82.2581 ,1.51643 ,-0.64236 ,-6.30288 
435 ,82.4498 ,1.51835 ,-0.63210 ,-6.20214 
436 ,82.6098 ,1.52009 ,-0.64236 ,-6.30288 
437 ,82.8025 ,1.52181 ,-0.65263 ,-6.40361 
438 ,82.9942 ,1.52380 ,-0.66974 ,-6.57150 
439 ,83.1705 ,1.52558 ,-0.68343 ,-6.70582 
440 ,83.3464 ,1.52740 ,-0.70054 ,-6.87371 
441 ,83.5226 ,1.52909 ,-0.67316 ,-6.60508 
442 ,83.6982 ,1.53091 ,-0.70054 ,-6.87371 
443 ,83.8748 ,1.53262 ,-0.71765 ,-7.04160 
444 ,84.0670 ,1.53449 ,-0.70739 ,-6.94086 
445 ,84.2590 ,1.53640 ,-0.73476 ,-7.20949 
446 ,84.4671 ,1.53848 ,-0.71423 ,-7.00802 
447 ,84.6750 ,1.54053 ,-0.75530 ,-7.41096 
448 ,84.8509 ,1.54236 ,-0.75872 ,-7.44454 
449 ,85.0432 ,1.54430 ,-0.76556 ,-7.51170 
450 ,85.2193 ,1.54607 ,-0.76556 ,-7.51170 
451 ,85.4112 ,1.54794 ,-0.77583 ,-7.61243 
452 ,85.6036 ,1.54982 ,-0.77925 ,-7.64601 
453 ,85.7951 ,1.55177 ,-0.81689 ,-8.01537 
454 ,85.9877 ,1.55368 ,-0.79294 ,-7.78032 
455 ,86.1796 ,1.55571 ,-0.83058 ,-8.14968 
456 ,86.3557 ,1.55741 ,-0.82374 ,-8.08253 
457 ,86.5316 ,1.55918 ,-0.84427 ,-8.28400 
458 ,86.7399 ,1.56119 ,-0.82716 ,-8.11611 
459 ,86.9156 ,1.56304 ,-0.85112 ,-8.35115 
460 ,87.0919 ,1.56479 ,-0.86823 ,-8.51904 
461 ,87.2841 ,1.56670 ,-0.85796 ,-8.41831 
462 ,87.4605 ,1.56843 ,-0.85796 ,-8.41831 
463 ,87.6524 ,1.57030 ,-0.88534 ,-8.68694 
