Data stamp = , 25-04-2022 03:49:53 961

Calibration Values: 
Slope = , 26.54 , g/V 
Offset Voltage at no contact = , -0.501760 , V 

No , Time , Stage Position ,   Mass , Force 
   ,  (s) ,      (mm)      ,   (g)  , (mN)  

1 ,0.0000 ,0.69945 ,5.25403 ,51.55254 
2 ,0.2037 ,0.69951 ,5.27114 ,51.72043 
3 ,0.6524 ,0.70106 ,5.24718 ,51.48538 
4 ,0.8602 ,0.70283 ,5.24718 ,51.48538 
5 ,1.0526 ,0.70476 ,5.24718 ,51.48538 
6 ,1.2604 ,0.70673 ,5.24376 ,51.45180 
7 ,1.4524 ,0.70868 ,5.25745 ,51.58611 
8 ,1.6606 ,0.71069 ,5.26772 ,51.68685 
9 ,1.8685 ,0.71288 ,5.26430 ,51.65327 
10 ,2.0608 ,0.71476 ,5.25061 ,51.51896 
11 ,2.2689 ,0.71686 ,5.24034 ,51.41822 
12 ,2.4446 ,0.71868 ,5.21981 ,51.21675 
13 ,2.6209 ,0.72041 ,5.19243 ,50.94813 
14 ,2.7971 ,0.72219 ,5.15821 ,50.61234 
15 ,2.9888 ,0.72406 ,5.16163 ,50.64592 
16 ,3.1653 ,0.72588 ,5.13768 ,50.41087 
17 ,3.3574 ,0.72779 ,5.09661 ,50.00793 
18 ,3.5335 ,0.72959 ,5.11372 ,50.17583 
19 ,3.7095 ,0.73136 ,5.08634 ,49.90720 
20 ,3.9016 ,0.73317 ,5.05554 ,49.60499 
21 ,4.0773 ,0.73503 ,5.05212 ,49.57142 
22 ,4.2537 ,0.73677 ,5.00763 ,49.13490 
23 ,4.4296 ,0.73857 ,4.99737 ,49.03416 
24 ,4.6220 ,0.74034 ,4.99394 ,49.00058 
25 ,4.8300 ,0.74249 ,4.96999 ,48.76554 
26 ,5.0060 ,0.74426 ,4.95630 ,48.63122 
27 ,5.1821 ,0.74602 ,4.92550 ,48.32902 
28 ,5.3581 ,0.74776 ,4.90497 ,48.12755 
29 ,5.5504 ,0.74969 ,4.89812 ,48.06039 
30 ,5.7579 ,0.75173 ,4.85706 ,47.65745 
31 ,5.9501 ,0.75364 ,4.86390 ,47.72461 
32 ,6.1261 ,0.75544 ,4.85021 ,47.59030 
33 ,6.3022 ,0.75726 ,4.83995 ,47.48956 
34 ,6.4787 ,0.75902 ,4.81257 ,47.22093 
35 ,6.6706 ,0.76095 ,4.78177 ,46.91873 
36 ,6.8624 ,0.76281 ,4.77493 ,46.85157 
37 ,7.0390 ,0.76463 ,4.75097 ,46.61653 
38 ,7.2311 ,0.76656 ,4.72017 ,46.31432 
39 ,7.4226 ,0.76838 ,4.71675 ,46.28074 
40 ,7.5990 ,0.77017 ,4.69279 ,46.04569 
41 ,7.7752 ,0.77195 ,4.66542 ,45.77707 
42 ,7.9828 ,0.77402 ,4.65515 ,45.67633 
43 ,8.1591 ,0.77574 ,4.63119 ,45.44128 
44 ,8.3350 ,0.77755 ,4.61066 ,45.23981 
45 ,8.5111 ,0.77933 ,4.58328 ,44.97119 
46 ,8.6876 ,0.78109 ,4.59697 ,45.10550 
47 ,8.8956 ,0.78312 ,4.55591 ,44.70256 
48 ,9.0877 ,0.78503 ,4.56617 ,44.80330 
49 ,9.2798 ,0.78701 ,4.52511 ,44.40036 
50 ,9.4555 ,0.78879 ,4.51142 ,44.26604 
51 ,9.6321 ,0.79052 ,4.50800 ,44.23247 
52 ,9.8239 ,0.79237 ,4.48404 ,43.99742 
53 ,10.0320 ,0.79444 ,4.45324 ,43.69521 
54 ,10.2081 ,0.79629 ,4.43955 ,43.56090 
55 ,10.4003 ,0.79816 ,4.41902 ,43.35943 
56 ,10.5924 ,0.80013 ,4.40533 ,43.22512 
57 ,10.7845 ,0.80201 ,4.40191 ,43.19154 
58 ,10.9766 ,0.80391 ,4.36427 ,42.82218 
59 ,11.1681 ,0.80590 ,4.36427 ,42.82218 
60 ,11.3605 ,0.80776 ,4.32320 ,42.41924 
61 ,11.5367 ,0.80953 ,4.31978 ,42.38566 
62 ,11.7288 ,0.81141 ,4.29582 ,42.15061 
63 ,11.9208 ,0.81337 ,4.28213 ,42.01630 
64 ,12.0968 ,0.81520 ,4.26160 ,41.81483 
65 ,12.2887 ,0.81700 ,4.26502 ,41.84841 
66 ,12.4649 ,0.81884 ,4.23765 ,41.57978 
67 ,12.6571 ,0.82076 ,4.21711 ,41.37831 
68 ,12.8332 ,0.82257 ,4.20342 ,41.24400 
69 ,13.0252 ,0.82441 ,4.18974 ,41.10968 
70 ,13.2013 ,0.82623 ,4.17605 ,40.97537 
71 ,13.3614 ,0.82791 ,4.14867 ,40.70674 
72 ,13.5373 ,0.82955 ,4.12814 ,40.50527 
73 ,13.7455 ,0.83151 ,4.10760 ,40.30380 
74 ,13.9378 ,0.83350 ,4.08023 ,40.03518 
75 ,14.1457 ,0.83560 ,4.08023 ,40.03518 
76 ,14.3377 ,0.83753 ,4.03574 ,39.59866 
77 ,14.5138 ,0.83941 ,4.04943 ,39.73297 
78 ,14.7059 ,0.84126 ,4.02547 ,39.49793 
79 ,14.8821 ,0.84301 ,4.01863 ,39.43077 
80 ,15.0741 ,0.84493 ,3.98098 ,39.06141 
81 ,15.2503 ,0.84669 ,3.96729 ,38.92709 
82 ,15.4425 ,0.84855 ,3.95703 ,38.82636 
83 ,15.6344 ,0.85050 ,3.92623 ,38.52415 
84 ,15.8427 ,0.85254 ,3.92281 ,38.49058 
85 ,16.0506 ,0.85452 ,3.88858 ,38.15479 
86 ,16.2428 ,0.85652 ,3.89885 ,38.25553 
87 ,16.4347 ,0.85856 ,3.87490 ,38.02048 
88 ,16.6106 ,0.86035 ,3.85779 ,37.85259 
89 ,16.7865 ,0.86198 ,3.83725 ,37.65112 
90 ,16.9629 ,0.86382 ,3.82356 ,37.51681 
91 ,17.1550 ,0.86579 ,3.79961 ,37.28176 
92 ,17.3310 ,0.86749 ,3.77565 ,37.04671 
93 ,17.5071 ,0.86920 ,3.76881 ,36.97955 
94 ,17.6831 ,0.87108 ,3.73801 ,36.67735 
95 ,17.8588 ,0.87273 ,3.73801 ,36.67735 
96 ,18.0353 ,0.87452 ,3.71748 ,36.47588 
97 ,18.2274 ,0.87636 ,3.70037 ,36.30799 
98 ,18.4356 ,0.87844 ,3.67983 ,36.10652 
99 ,18.6433 ,0.88052 ,3.66957 ,36.00578 
100 ,18.8357 ,0.88246 ,3.64561 ,35.77073 
101 ,19.0435 ,0.88458 ,3.64219 ,35.73716 
102 ,19.2197 ,0.88635 ,3.62166 ,35.53569 
103 ,19.4274 ,0.88834 ,3.60797 ,35.40137 
104 ,19.6040 ,0.89020 ,3.58059 ,35.13275 
105 ,19.7956 ,0.89210 ,3.56690 ,34.99843 
106 ,19.9880 ,0.89395 ,3.56006 ,34.93128 
107 ,20.1959 ,0.89605 ,3.50530 ,34.39402 
108 ,20.3722 ,0.89793 ,3.51215 ,34.46118 
109 ,20.5483 ,0.89960 ,3.49161 ,34.25971 
110 ,20.7405 ,0.90150 ,3.47108 ,34.05824 
111 ,20.9481 ,0.90363 ,3.46424 ,33.99108 
112 ,21.1407 ,0.90558 ,3.45739 ,33.92393 
113 ,21.3325 ,0.90745 ,3.41633 ,33.52099 
114 ,21.5087 ,0.90921 ,3.41633 ,33.52099 
115 ,21.6848 ,0.91100 ,3.39921 ,33.35310 
116 ,21.8609 ,0.91278 ,3.38553 ,33.21878 
117 ,22.0530 ,0.91465 ,3.35815 ,32.95016 
118 ,22.2450 ,0.91661 ,3.35815 ,32.95016 
119 ,22.4211 ,0.91835 ,3.33419 ,32.71511 
120 ,22.6132 ,0.92029 ,3.30339 ,32.41290 
121 ,22.7893 ,0.92211 ,3.28286 ,32.21143 
122 ,23.0130 ,0.92418 ,3.27944 ,32.17786 
123 ,23.1894 ,0.92606 ,3.25206 ,31.90923 
124 ,23.3976 ,0.92807 ,3.24522 ,31.84207 
125 ,23.5896 ,0.92994 ,3.22468 ,31.64060 
126 ,23.7975 ,0.93203 ,3.22126 ,31.60702 
127 ,23.9897 ,0.93406 ,3.17677 ,31.17051 
128 ,24.1657 ,0.93575 ,3.18362 ,31.23766 
129 ,24.3576 ,0.93765 ,3.15624 ,30.96904 
130 ,24.5340 ,0.93953 ,3.14597 ,30.86830 
131 ,24.7101 ,0.94125 ,3.12202 ,30.63325 
132 ,24.9021 ,0.94320 ,3.12886 ,30.70041 
133 ,25.0943 ,0.94506 ,3.10149 ,30.43178 
134 ,25.2862 ,0.94697 ,3.08438 ,30.26389 
135 ,25.4943 ,0.94901 ,3.06042 ,30.02884 
136 ,25.6704 ,0.95088 ,3.04673 ,29.89453 
137 ,25.8460 ,0.95263 ,3.03989 ,29.82737 
138 ,26.0227 ,0.95436 ,3.03304 ,29.76022 
139 ,26.2143 ,0.95622 ,2.99540 ,29.39086 
140 ,26.4227 ,0.95820 ,2.99882 ,29.42444 
141 ,26.6148 ,0.96024 ,2.96118 ,29.05507 
142 ,26.7910 ,0.96207 ,2.94064 ,28.85360 
143 ,26.9830 ,0.96394 ,2.95776 ,29.02150 
144 ,27.1908 ,0.96595 ,2.93380 ,28.78645 
145 ,27.3830 ,0.96804 ,2.90642 ,28.51782 
146 ,27.5592 ,0.96974 ,2.90300 ,28.48424 
147 ,27.7351 ,0.97149 ,2.86878 ,28.14846 
148 ,27.9273 ,0.97341 ,2.87220 ,28.18204 
149 ,28.1035 ,0.97516 ,2.85851 ,28.04772 
150 ,28.2952 ,0.97700 ,2.82429 ,27.71194 
151 ,28.4716 ,0.97879 ,2.81402 ,27.61121 
152 ,28.6636 ,0.98073 ,2.82087 ,27.67836 
153 ,28.8717 ,0.98267 ,2.77638 ,27.24185 
154 ,29.0477 ,0.98458 ,2.77296 ,27.20827 
155 ,29.2399 ,0.98653 ,2.77296 ,27.20827 
156 ,29.4159 ,0.98827 ,2.75585 ,27.04038 
157 ,29.5921 ,0.99012 ,2.71820 ,26.67101 
158 ,29.7682 ,0.99187 ,2.71478 ,26.63744 
159 ,29.9448 ,0.99357 ,2.71478 ,26.63744 
160 ,30.1204 ,0.99534 ,2.69425 ,26.43597 
161 ,30.3124 ,0.99729 ,2.68398 ,26.33523 
162 ,30.4886 ,0.99902 ,2.64634 ,25.96587 
163 ,30.6807 ,1.00085 ,2.65318 ,26.03303 
164 ,30.8728 ,1.00286 ,2.62581 ,25.76440 
165 ,31.0647 ,1.00471 ,2.62238 ,25.73082 
166 ,31.2410 ,1.00652 ,2.60527 ,25.56293 
167 ,31.4489 ,1.00854 ,2.57105 ,25.22715 
168 ,31.6246 ,1.01033 ,2.57447 ,25.26073 
169 ,31.8012 ,1.01214 ,2.55736 ,25.09283 
170 ,32.0092 ,1.01420 ,2.53683 ,24.89136 
171 ,32.2171 ,1.01622 ,2.50261 ,24.55558 
172 ,32.4094 ,1.01812 ,2.48892 ,24.42127 
173 ,32.6013 ,1.02017 ,2.47181 ,24.25338 
174 ,32.7612 ,1.02183 ,2.46496 ,24.18622 
175 ,32.9379 ,1.02348 ,2.46839 ,24.21980 
176 ,33.1296 ,1.02535 ,2.45127 ,24.05191 
177 ,33.3216 ,1.02721 ,2.42732 ,23.81686 
178 ,33.5139 ,1.02919 ,2.40336 ,23.58181 
179 ,33.7054 ,1.03113 ,2.39994 ,23.54823 
180 ,33.8980 ,1.03300 ,2.39994 ,23.54823 
181 ,34.1061 ,1.03511 ,2.37599 ,23.31318 
182 ,34.2982 ,1.03699 ,2.34519 ,23.01098 
183 ,34.4903 ,1.03893 ,2.33834 ,22.94382 
184 ,34.6823 ,1.04087 ,2.33834 ,22.94382 
185 ,34.8744 ,1.04276 ,2.31097 ,22.67520 
186 ,35.0659 ,1.04478 ,2.29385 ,22.50731 
187 ,35.2580 ,1.04663 ,2.26990 ,22.27226 
188 ,35.4342 ,1.04848 ,2.24252 ,22.00363 
189 ,35.6266 ,1.05033 ,2.25621 ,22.13794 
190 ,35.8349 ,1.05243 ,2.22541 ,21.83574 
191 ,36.0267 ,1.05432 ,2.21515 ,21.73500 
192 ,36.2350 ,1.05641 ,2.17066 ,21.29849 
193 ,36.4272 ,1.05832 ,2.17408 ,21.33206 
194 ,36.6191 ,1.06026 ,2.16039 ,21.19775 
195 ,36.7948 ,1.06206 ,2.14670 ,21.06344 
196 ,36.9548 ,1.06377 ,2.13644 ,20.96270 
197 ,37.1472 ,1.06547 ,2.13986 ,20.99628 
198 ,37.3554 ,1.06759 ,2.10906 ,20.69408 
199 ,37.5633 ,1.06964 ,2.11590 ,20.76123 
200 ,37.7555 ,1.07165 ,2.08168 ,20.42545 
201 ,37.9475 ,1.07355 ,2.05773 ,20.19040 
202 ,38.1552 ,1.07555 ,2.04061 ,20.02251 
203 ,38.3478 ,1.07751 ,2.04404 ,20.05609 
204 ,38.5558 ,1.07958 ,2.00297 ,19.65315 
205 ,38.7477 ,1.08148 ,2.02008 ,19.82104 
206 ,38.9400 ,1.08339 ,1.99613 ,19.58599 
207 ,39.1156 ,1.08530 ,1.96533 ,19.28379 
208 ,39.3082 ,1.08715 ,1.96875 ,19.31737 
209 ,39.5161 ,1.08917 ,1.93795 ,19.01516 
210 ,39.6922 ,1.09100 ,1.93111 ,18.94801 
211 ,39.8681 ,1.09277 ,1.91399 ,18.78011 
212 ,40.0764 ,1.09476 ,1.90373 ,18.67938 
213 ,40.2522 ,1.09659 ,1.89346 ,18.57864 
214 ,40.4285 ,1.09836 ,1.87977 ,18.44433 
215 ,40.6046 ,1.10010 ,1.86266 ,18.27644 
216 ,40.7808 ,1.10185 ,1.85240 ,18.17570 
217 ,40.9888 ,1.10394 ,1.84555 ,18.10855 
218 ,41.1810 ,1.10582 ,1.82844 ,17.94066 
219 ,41.3889 ,1.10786 ,1.80449 ,17.70561 
220 ,41.5810 ,1.10990 ,1.81475 ,17.80634 
221 ,41.7570 ,1.11168 ,1.76684 ,17.33625 
222 ,41.9331 ,1.11341 ,1.75657 ,17.23551 
223 ,42.1253 ,1.11538 ,1.76000 ,17.26909 
224 ,42.3014 ,1.11710 ,1.74289 ,17.10120 
225 ,42.5095 ,1.11905 ,1.71893 ,16.86615 
226 ,42.7176 ,1.12122 ,1.70524 ,16.73184 
227 ,42.9096 ,1.12309 ,1.67786 ,16.46321 
228 ,43.1017 ,1.12504 ,1.69155 ,16.59752 
229 ,43.2777 ,1.12687 ,1.66760 ,16.36248 
230 ,43.4534 ,1.12856 ,1.65049 ,16.19458 
231 ,43.6299 ,1.13039 ,1.63680 ,16.06027 
232 ,43.8060 ,1.13211 ,1.61284 ,15.82522 
233 ,43.9982 ,1.13399 ,1.63338 ,16.02669 
234 ,44.1903 ,1.13602 ,1.59916 ,15.69091 
235 ,44.3822 ,1.13780 ,1.58889 ,15.59018 
236 ,44.5743 ,1.13977 ,1.57520 ,15.45586 
237 ,44.7504 ,1.14159 ,1.53756 ,15.08650 
238 ,44.9430 ,1.14348 ,1.54440 ,15.15366 
239 ,45.1346 ,1.14533 ,1.52045 ,14.91861 
240 ,45.3264 ,1.14729 ,1.52387 ,14.95219 
241 ,45.5187 ,1.14922 ,1.51018 ,14.81787 
242 ,45.7266 ,1.15124 ,1.48280 ,14.54925 
243 ,45.9350 ,1.15335 ,1.46227 ,14.34778 
244 ,46.1430 ,1.15543 ,1.46227 ,14.34778 
245 ,46.3190 ,1.15723 ,1.45200 ,14.24704 
246 ,46.4950 ,1.15906 ,1.43831 ,14.11273 
247 ,46.6708 ,1.16081 ,1.42120 ,13.94484 
248 ,46.8790 ,1.16274 ,1.41436 ,13.87768 
249 ,47.0713 ,1.16475 ,1.38698 ,13.60906 
250 ,47.2794 ,1.16682 ,1.38698 ,13.60906 
251 ,47.4715 ,1.16867 ,1.35960 ,13.34043 
252 ,47.6636 ,1.17064 ,1.36303 ,13.37401 
253 ,47.8396 ,1.17252 ,1.32880 ,13.03822 
254 ,48.0156 ,1.17418 ,1.32880 ,13.03822 
255 ,48.2076 ,1.17603 ,1.32196 ,12.97107 
256 ,48.3839 ,1.17787 ,1.30827 ,12.83675 
257 ,48.5919 ,1.17991 ,1.28432 ,12.60171 
258 ,48.7680 ,1.18171 ,1.28774 ,12.63528 
259 ,48.9600 ,1.18359 ,1.27747 ,12.53455 
260 ,49.1521 ,1.18559 ,1.23983 ,12.16519 
261 ,49.3282 ,1.18734 ,1.23641 ,12.13161 
262 ,49.5201 ,1.18918 ,1.22956 ,12.06445 
263 ,49.7124 ,1.19117 ,1.19534 ,11.72867 
264 ,49.9041 ,1.19304 ,1.20561 ,11.82941 
265 ,50.0806 ,1.19488 ,1.18507 ,11.62794 
266 ,50.2884 ,1.19693 ,1.17138 ,11.49362 
267 ,50.4808 ,1.19875 ,1.17138 ,11.49362 
268 ,50.6887 ,1.20088 ,1.15085 ,11.29215 
269 ,50.8809 ,1.20280 ,1.14401 ,11.22500 
270 ,51.0564 ,1.20466 ,1.11663 ,10.95637 
271 ,51.2331 ,1.20638 ,1.10294 ,10.82206 
272 ,51.4249 ,1.20824 ,1.10636 ,10.85563 
273 ,51.6168 ,1.21014 ,1.08241 ,10.62059 
274 ,51.7932 ,1.21197 ,1.06530 ,10.45270 
275 ,51.9854 ,1.21390 ,1.05503 ,10.35196 
276 ,52.1771 ,1.21575 ,1.03108 ,10.11691 
277 ,52.3689 ,1.21770 ,1.02423 ,10.04976 
278 ,52.5612 ,1.21960 ,1.02081 ,10.01618 
279 ,52.7372 ,1.22139 ,1.01396 ,9.94902 
280 ,52.9134 ,1.22314 ,0.99001 ,9.71397 
281 ,53.0893 ,1.22492 ,0.96605 ,9.47892 
282 ,53.2815 ,1.22677 ,0.98317 ,9.64682 
283 ,53.4900 ,1.22889 ,0.95237 ,9.34461 
284 ,53.6820 ,1.23086 ,0.94210 ,9.24388 
285 ,53.8739 ,1.23268 ,0.92157 ,9.04241 
286 ,54.0502 ,1.23456 ,0.90788 ,8.90809 
287 ,54.2419 ,1.23634 ,0.90788 ,8.90809 
288 ,54.4343 ,1.23830 ,0.87708 ,8.60589 
289 ,54.6422 ,1.24029 ,0.88392 ,8.67305 
290 ,54.8185 ,1.24220 ,0.88050 ,8.63947 
291 ,55.0264 ,1.24424 ,0.87708 ,8.60589 
292 ,55.2186 ,1.24612 ,0.83943 ,8.23653 
293 ,55.3946 ,1.24800 ,0.82575 ,8.10221 
294 ,55.5866 ,1.24985 ,0.81206 ,7.96790 
295 ,55.7788 ,1.25185 ,0.81206 ,7.96790 
296 ,55.9709 ,1.25370 ,0.78468 ,7.69927 
297 ,56.1629 ,1.25560 ,0.77784 ,7.63212 
298 ,56.3546 ,1.25751 ,0.75388 ,7.39707 
299 ,56.5468 ,1.25940 ,0.76415 ,7.49780 
300 ,56.7393 ,1.26144 ,0.75730 ,7.43065 
301 ,56.9472 ,1.26339 ,0.74704 ,7.32991 
302 ,57.1233 ,1.26522 ,0.74361 ,7.29633 
303 ,57.3154 ,1.26716 ,0.70939 ,6.96055 
304 ,57.5073 ,1.26898 ,0.69570 ,6.82624 
305 ,57.6836 ,1.27084 ,0.69228 ,6.79266 
306 ,57.8756 ,1.27274 ,0.66833 ,6.55761 
307 ,58.0677 ,1.27466 ,0.65806 ,6.45688 
308 ,58.2599 ,1.27660 ,0.66490 ,6.52403 
309 ,58.4520 ,1.27854 ,0.63410 ,6.22183 
310 ,58.6440 ,1.28039 ,0.63068 ,6.18825 
311 ,58.8357 ,1.28234 ,0.61699 ,6.05394 
312 ,59.0443 ,1.28435 ,0.61357 ,6.02036 
313 ,59.2523 ,1.28647 ,0.58619 ,5.75173 
314 ,59.4604 ,1.28855 ,0.58277 ,5.71815 
315 ,59.6523 ,1.29049 ,0.55539 ,5.44953 
316 ,59.8283 ,1.29231 ,0.55197 ,5.41595 
317 ,60.0045 ,1.29403 ,0.56566 ,5.55026 
318 ,60.2126 ,1.29606 ,0.52802 ,5.18090 
319 ,60.4047 ,1.29803 ,0.53828 ,5.28164 
320 ,60.5808 ,1.29978 ,0.52459 ,5.14732 
321 ,60.7567 ,1.30161 ,0.51091 ,5.01301 
322 ,60.9488 ,1.30339 ,0.50406 ,4.94585 
323 ,61.1247 ,1.30524 ,0.48353 ,4.74438 
324 ,61.3011 ,1.30702 ,0.49037 ,4.81154 
325 ,61.5090 ,1.30903 ,0.44588 ,4.37502 
326 ,61.6852 ,1.31082 ,0.45615 ,4.47576 
327 ,61.8771 ,1.31281 ,0.44588 ,4.37502 
328 ,62.1014 ,1.31496 ,0.43220 ,4.24071 
329 ,62.2934 ,1.31686 ,0.40824 ,4.00566 
330 ,62.4696 ,1.31864 ,0.40482 ,3.97208 
331 ,62.6453 ,1.32052 ,0.40140 ,3.93850 
332 ,62.8373 ,1.32227 ,0.39797 ,3.90493 
333 ,63.0295 ,1.32419 ,0.37402 ,3.66988 
334 ,63.2219 ,1.32611 ,0.36718 ,3.60272 
335 ,63.4135 ,1.32808 ,0.34322 ,3.36767 
336 ,63.6060 ,1.33005 ,0.34664 ,3.40125 
337 ,63.7979 ,1.33186 ,0.33638 ,3.30052 
338 ,63.9741 ,1.33371 ,0.31584 ,3.09905 
339 ,64.1660 ,1.33556 ,0.30558 ,2.99831 
340 ,64.3583 ,1.33753 ,0.30900 ,3.03189 
341 ,64.5662 ,1.33960 ,0.28847 ,2.83042 
342 ,64.7583 ,1.34158 ,0.26451 ,2.59537 
343 ,64.9345 ,1.34340 ,0.26109 ,2.56179 
344 ,65.1427 ,1.34524 ,0.26451 ,2.59537 
345 ,65.3503 ,1.34744 ,0.23713 ,2.32675 
346 ,65.5267 ,1.34922 ,0.23371 ,2.29317 
347 ,65.7188 ,1.35117 ,0.23713 ,2.32675 
348 ,65.8947 ,1.35289 ,0.19949 ,1.95738 
349 ,66.0866 ,1.35474 ,0.20976 ,2.05812 
350 ,66.2628 ,1.35658 ,0.19949 ,1.95738 
351 ,66.4390 ,1.35837 ,0.18580 ,1.82307 
352 ,66.6152 ,1.36010 ,0.17211 ,1.68876 
353 ,66.7913 ,1.36190 ,0.14816 ,1.45371 
354 ,66.9674 ,1.36363 ,0.15158 ,1.48729 
355 ,67.1594 ,1.36547 ,0.14131 ,1.38655 
356 ,67.3516 ,1.36736 ,0.13789 ,1.35298 
357 ,67.5597 ,1.36948 ,0.11393 ,1.11793 
358 ,67.7517 ,1.37140 ,0.10709 ,1.05077 
359 ,67.9278 ,1.37324 ,0.08998 ,0.88288 
360 ,68.1038 ,1.37499 ,0.10709 ,1.05077 
361 ,68.2799 ,1.37675 ,0.07629 ,0.74857 
362 ,68.4721 ,1.37856 ,0.06602 ,0.64783 
363 ,68.6641 ,1.38054 ,0.06260 ,0.61425 
364 ,68.8404 ,1.38242 ,0.05918 ,0.58067 
365 ,69.0161 ,1.38418 ,0.02838 ,0.27847 
366 ,69.2239 ,1.38616 ,0.04207 ,0.41278 
367 ,69.4162 ,1.38802 ,0.01127 ,0.11058 
368 ,69.5923 ,1.38990 ,-0.01269 ,-0.12447 
369 ,69.8005 ,1.39186 ,-0.00242 ,-0.02373 
370 ,69.9765 ,1.39370 ,-0.00926 ,-0.09089 
371 ,70.1687 ,1.39567 ,-0.01611 ,-0.15805 
372 ,70.3444 ,1.39746 ,-0.03322 ,-0.32594 
373 ,70.5367 ,1.39927 ,-0.05717 ,-0.56099 
374 ,70.7289 ,1.40127 ,-0.05375 ,-0.52741 
375 ,70.9206 ,1.40315 ,-0.05717 ,-0.56099 
376 ,71.0971 ,1.40492 ,-0.07428 ,-0.72888 
377 ,71.2891 ,1.40677 ,-0.08797 ,-0.86319 
378 ,71.4811 ,1.40883 ,-0.09482 ,-0.93035 
379 ,71.6573 ,1.41052 ,-0.10166 ,-0.99751 
380 ,71.8494 ,1.41237 ,-0.10851 ,-1.06466 
381 ,72.0416 ,1.41428 ,-0.11535 ,-1.13182 
382 ,72.2336 ,1.41625 ,-0.13931 ,-1.36687 
383 ,72.4416 ,1.41830 ,-0.13931 ,-1.36687 
384 ,72.6337 ,1.42023 ,-0.15984 ,-1.56834 
385 ,72.8417 ,1.42233 ,-0.15642 ,-1.53476 
386 ,73.0179 ,1.42411 ,-0.18037 ,-1.76981 
387 ,73.2259 ,1.42615 ,-0.17353 ,-1.70265 
388 ,73.4021 ,1.42800 ,-0.18722 ,-1.83696 
389 ,73.6100 ,1.42999 ,-0.20090 ,-1.97128 
390 ,73.7862 ,1.43180 ,-0.21117 ,-2.07201 
391 ,73.9622 ,1.43370 ,-0.23170 ,-2.27348 
392 ,74.1542 ,1.43544 ,-0.24539 ,-2.40779 
393 ,74.3304 ,1.43722 ,-0.24881 ,-2.44137 
394 ,74.5385 ,1.43928 ,-0.25224 ,-2.47495 
395 ,74.7145 ,1.44113 ,-0.26593 ,-2.60926 
396 ,74.9067 ,1.44297 ,-0.25908 ,-2.54211 
397 ,75.0986 ,1.44486 ,-0.27277 ,-2.67642 
398 ,75.2748 ,1.44668 ,-0.27619 ,-2.71000 
399 ,75.4668 ,1.44856 ,-0.31041 ,-3.04578 
400 ,75.6746 ,1.45065 ,-0.31726 ,-3.11294 
401 ,75.8669 ,1.45254 ,-0.30699 ,-3.01220 
402 ,76.0591 ,1.45444 ,-0.33095 ,-3.24725 
403 ,76.2353 ,1.45626 ,-0.33779 ,-3.31441 
404 ,76.4272 ,1.45817 ,-0.34464 ,-3.38156 
405 ,76.6193 ,1.46012 ,-0.34464 ,-3.38156 
406 ,76.7950 ,1.46193 ,-0.34121 ,-3.34799 
407 ,76.9715 ,1.46369 ,-0.38228 ,-3.75093 
408 ,77.1474 ,1.46540 ,-0.38228 ,-3.75093 
409 ,77.3234 ,1.46719 ,-0.38912 ,-3.81808 
410 ,77.5158 ,1.46901 ,-0.39255 ,-3.85166 
411 ,77.7076 ,1.47098 ,-0.41992 ,-4.12029 
412 ,77.8835 ,1.47282 ,-0.41308 ,-4.05313 
413 ,78.0759 ,1.47461 ,-0.43019 ,-4.22102 
414 ,78.2520 ,1.47658 ,-0.45414 ,-4.45607 
415 ,78.4441 ,1.47825 ,-0.45072 ,-4.42249 
416 ,78.6361 ,1.48026 ,-0.44730 ,-4.38891 
417 ,78.8283 ,1.48220 ,-0.47126 ,-4.62396 
418 ,79.0039 ,1.48403 ,-0.46441 ,-4.55681 
419 ,79.1804 ,1.48573 ,-0.47468 ,-4.65754 
420 ,79.3726 ,1.48765 ,-0.48837 ,-4.79185 
421 ,79.5644 ,1.48956 ,-0.49863 ,-4.89259 
422 ,79.7726 ,1.49153 ,-0.48494 ,-4.75828 
423 ,79.9646 ,1.49348 ,-0.52259 ,-5.12764 
424 ,80.1248 ,1.49528 ,-0.51574 ,-5.06048 
425 ,80.3009 ,1.49695 ,-0.52259 ,-5.12764 
426 ,80.4930 ,1.49886 ,-0.53628 ,-5.26195 
427 ,80.7011 ,1.50085 ,-0.53628 ,-5.26195 
428 ,80.8931 ,1.50278 ,-0.56708 ,-5.56415 
429 ,81.0853 ,1.50475 ,-0.57050 ,-5.59773 
430 ,81.2772 ,1.50657 ,-0.57392 ,-5.63131 
431 ,81.5013 ,1.50877 ,-0.58077 ,-5.69847 
432 ,81.6935 ,1.51080 ,-0.60472 ,-5.93352 
433 ,81.8854 ,1.51271 ,-0.59788 ,-5.86636 
434 ,82.0616 ,1.51458 ,-0.60472 ,-5.93352 
435 ,82.2534 ,1.51637 ,-0.63894 ,-6.26930 
436 ,82.4296 ,1.51822 ,-0.64236 ,-6.30288 
437 ,82.6058 ,1.51997 ,-0.64579 ,-6.33646 
438 ,82.7978 ,1.52180 ,-0.64921 ,-6.37003 
439 ,83.0058 ,1.52393 ,-0.66974 ,-6.57150 
440 ,83.1821 ,1.52573 ,-0.66290 ,-6.50435 
441 ,83.3741 ,1.52762 ,-0.68685 ,-6.73940 
442 ,83.5661 ,1.52950 ,-0.67316 ,-6.60508 
443 ,83.7578 ,1.53154 ,-0.70739 ,-6.94086 
444 ,83.9342 ,1.53328 ,-0.70739 ,-6.94086 
445 ,84.1265 ,1.53508 ,-0.71081 ,-6.97444 
446 ,84.3185 ,1.53701 ,-0.70396 ,-6.90729 
447 ,84.5106 ,1.53893 ,-0.73818 ,-7.24307 
448 ,84.7186 ,1.54102 ,-0.73476 ,-7.20949 
449 ,84.8946 ,1.54284 ,-0.74161 ,-7.27665 
450 ,85.0707 ,1.54460 ,-0.76214 ,-7.47812 
451 ,85.2465 ,1.54635 ,-0.76556 ,-7.51170 
452 ,85.4224 ,1.54811 ,-0.75872 ,-7.44454 
453 ,85.5990 ,1.54989 ,-0.76556 ,-7.51170 
454 ,85.7909 ,1.55180 ,-0.79294 ,-7.78032 
455 ,85.9665 ,1.55352 ,-0.79978 ,-7.84748 
456 ,86.3354 ,1.55714 ,-0.81005 ,-7.94821 
457 ,86.5432 ,1.55931 ,-0.81005 ,-7.94821 
458 ,86.7196 ,1.56112 ,-0.81689 ,-8.01537 
459 ,86.9115 ,1.56292 ,-0.84427 ,-8.28400 
460 ,87.1197 ,1.56507 ,-0.85112 ,-8.35115 
461 ,87.3116 ,1.56692 ,-0.85796 ,-8.41831 
462 ,87.5036 ,1.56885 ,-0.85796 ,-8.41831 
463 ,87.6798 ,1.57069 ,-0.86481 ,-8.48547 
