Data stamp = , 24-04-2022 00:36:41 134

Calibration Values: 
Slope = , 26.54 , g/V 
Offset Voltage at no contact = , -0.501760 , V 

No , Time , Stage Position ,   Mass , Force 
   ,  (s) ,      (mm)      ,   (g)  , (mN)  

1 ,0.0000 ,0.69939 ,5.27456 ,51.75401 
2 ,0.2061 ,0.69945 ,5.29852 ,51.98905 
3 ,0.6383 ,0.70089 ,5.29852 ,51.98905 
4 ,0.8307 ,0.70257 ,5.29510 ,51.95548 
5 ,1.0227 ,0.70439 ,5.29167 ,51.92190 
6 ,1.1988 ,0.70616 ,5.28141 ,51.82116 
7 ,1.3909 ,0.70793 ,5.31221 ,52.12337 
8 ,1.5670 ,0.70982 ,5.30878 ,52.08979 
9 ,1.7426 ,0.71156 ,5.29510 ,51.95548 
10 ,1.9190 ,0.71336 ,5.26772 ,51.68685 
11 ,2.1273 ,0.71534 ,5.24376 ,51.45180 
12 ,2.3192 ,0.71732 ,5.22665 ,51.28391 
13 ,2.5275 ,0.71933 ,5.23350 ,51.35107 
14 ,2.7192 ,0.72137 ,5.19585 ,50.98170 
15 ,2.8952 ,0.72309 ,5.17874 ,50.81381 
16 ,3.0717 ,0.72486 ,5.17190 ,50.74666 
17 ,3.2477 ,0.72662 ,5.16163 ,50.64592 
18 ,3.4399 ,0.72843 ,5.15479 ,50.57876 
19 ,3.6320 ,0.73038 ,5.13083 ,50.34372 
20 ,3.8240 ,0.73235 ,5.10688 ,50.10867 
21 ,4.0161 ,0.73435 ,5.08292 ,49.87362 
22 ,4.2081 ,0.73623 ,5.08292 ,49.87362 
23 ,4.4002 ,0.73805 ,5.03159 ,49.36995 
24 ,4.6084 ,0.74015 ,5.05212 ,49.57142 
25 ,4.8002 ,0.74211 ,5.00079 ,49.06774 
26 ,4.9920 ,0.74401 ,4.99394 ,49.00058 
27 ,5.1684 ,0.74585 ,4.96315 ,48.69838 
28 ,5.3765 ,0.74781 ,4.94603 ,48.53049 
29 ,5.5526 ,0.74966 ,4.93235 ,48.39618 
30 ,5.7287 ,0.75141 ,4.91866 ,48.26186 
31 ,5.9207 ,0.75335 ,4.89128 ,47.99324 
32 ,6.1288 ,0.75533 ,4.88101 ,47.89250 
33 ,6.3046 ,0.75719 ,4.86048 ,47.69103 
34 ,6.4809 ,0.75896 ,4.85021 ,47.59030 
35 ,6.6732 ,0.76079 ,4.82626 ,47.35525 
36 ,6.8492 ,0.76265 ,4.80230 ,47.12020 
37 ,7.0572 ,0.76465 ,4.76808 ,46.78442 
38 ,7.2173 ,0.76640 ,4.75097 ,46.61653 
39 ,7.4252 ,0.76822 ,4.75097 ,46.61653 
40 ,7.6015 ,0.77013 ,4.72359 ,46.34790 
41 ,7.7932 ,0.77198 ,4.71333 ,46.24716 
42 ,7.9856 ,0.77389 ,4.69964 ,46.11285 
43 ,8.1932 ,0.77599 ,4.67226 ,45.84422 
44 ,8.3699 ,0.77785 ,4.64831 ,45.60918 
45 ,8.5776 ,0.77984 ,4.62435 ,45.37413 
46 ,8.7535 ,0.78166 ,4.60382 ,45.17266 
47 ,8.9299 ,0.78344 ,4.60040 ,45.13908 
48 ,9.1218 ,0.78526 ,4.57302 ,44.87045 
49 ,9.3138 ,0.78727 ,4.56275 ,44.76972 
50 ,9.5061 ,0.78909 ,4.54222 ,44.56825 
51 ,9.6982 ,0.79122 ,4.51826 ,44.33320 
52 ,9.8743 ,0.79281 ,4.49773 ,44.13173 
53 ,10.0505 ,0.79462 ,4.50115 ,44.16531 
54 ,10.2426 ,0.79648 ,4.46693 ,43.82953 
55 ,10.4504 ,0.79859 ,4.45324 ,43.69521 
56 ,10.6588 ,0.80068 ,4.41218 ,43.29227 
57 ,10.8667 ,0.80275 ,4.41560 ,43.32585 
58 ,11.0589 ,0.80464 ,4.39507 ,43.12438 
59 ,11.2509 ,0.80651 ,4.39164 ,43.09080 
60 ,11.4426 ,0.80854 ,4.36769 ,42.85576 
61 ,11.6348 ,0.81040 ,4.33689 ,42.55355 
62 ,11.8271 ,0.81230 ,4.34031 ,42.58713 
63 ,12.0032 ,0.81415 ,4.30267 ,42.21777 
64 ,12.1792 ,0.81594 ,4.28213 ,42.01630 
65 ,12.3553 ,0.81769 ,4.26502 ,41.84841 
66 ,12.5311 ,0.81955 ,4.27187 ,41.91556 
67 ,12.7075 ,0.82122 ,4.23765 ,41.57978 
68 ,12.9155 ,0.82321 ,4.20685 ,41.27758 
69 ,13.1077 ,0.82522 ,4.21369 ,41.34473 
70 ,13.3154 ,0.82725 ,4.16578 ,40.87464 
71 ,13.4918 ,0.82900 ,4.16578 ,40.87464 
72 ,13.6677 ,0.83075 ,4.15894 ,40.80748 
73 ,13.8600 ,0.83260 ,4.13840 ,40.60601 
74 ,14.0518 ,0.83457 ,4.12814 ,40.50527 
75 ,14.2281 ,0.83640 ,4.11445 ,40.37096 
76 ,14.4362 ,0.83842 ,4.06996 ,39.93444 
77 ,14.6441 ,0.84049 ,4.05285 ,39.76655 
78 ,14.8364 ,0.84247 ,4.03916 ,39.63224 
79 ,15.0605 ,0.84460 ,4.03232 ,39.56508 
80 ,15.2686 ,0.84669 ,3.99467 ,39.19572 
81 ,15.4766 ,0.84879 ,3.97414 ,38.99425 
82 ,15.6526 ,0.85062 ,3.95703 ,38.82636 
83 ,15.8287 ,0.85241 ,3.95361 ,38.79278 
84 ,16.0367 ,0.85438 ,3.92623 ,38.52415 
85 ,16.2129 ,0.85618 ,3.91254 ,38.38984 
86 ,16.4049 ,0.85812 ,3.90570 ,38.32268 
87 ,16.5970 ,0.85996 ,3.86463 ,37.91975 
88 ,16.7732 ,0.86181 ,3.85436 ,37.81901 
89 ,16.9812 ,0.86386 ,3.84752 ,37.75185 
90 ,17.1573 ,0.86569 ,3.80987 ,37.38249 
91 ,17.3333 ,0.86749 ,3.82699 ,37.55038 
92 ,17.5094 ,0.86917 ,3.79276 ,37.21460 
93 ,17.7015 ,0.87111 ,3.78250 ,37.11387 
94 ,17.8773 ,0.87286 ,3.75854 ,36.87882 
95 ,18.0534 ,0.87468 ,3.74143 ,36.71093 
96 ,18.2453 ,0.87647 ,3.73117 ,36.61019 
97 ,18.4218 ,0.87828 ,3.70721 ,36.37514 
98 ,18.6459 ,0.88039 ,3.66957 ,36.00578 
99 ,18.8374 ,0.88243 ,3.66614 ,35.97220 
100 ,19.0295 ,0.88431 ,3.66957 ,36.00578 
101 ,19.1896 ,0.88608 ,3.65246 ,35.83789 
102 ,19.3659 ,0.88778 ,3.62508 ,35.56926 
103 ,19.5582 ,0.88969 ,3.59770 ,35.30064 
104 ,19.7343 ,0.89143 ,3.58401 ,35.16632 
105 ,19.9423 ,0.89342 ,3.54979 ,34.83054 
106 ,20.1342 ,0.89533 ,3.54637 ,34.79696 
107 ,20.3262 ,0.89727 ,3.54979 ,34.83054 
108 ,20.5025 ,0.89911 ,3.51557 ,34.49476 
109 ,20.7108 ,0.90105 ,3.50188 ,34.36045 
110 ,20.9184 ,0.90322 ,3.47108 ,34.05824 
111 ,21.0945 ,0.90503 ,3.46081 ,33.95751 
112 ,21.2867 ,0.90685 ,3.46081 ,33.95751 
113 ,21.4792 ,0.90892 ,3.42317 ,33.58814 
114 ,21.6550 ,0.91061 ,3.40606 ,33.42025 
115 ,21.8312 ,0.91240 ,3.41975 ,33.55457 
116 ,22.0233 ,0.91427 ,3.37868 ,33.15163 
117 ,22.1829 ,0.91602 ,3.35130 ,32.88300 
118 ,22.3594 ,0.91769 ,3.34788 ,32.84942 
119 ,22.5675 ,0.91967 ,3.34104 ,32.78227 
120 ,22.7596 ,0.92163 ,3.31366 ,32.51364 
121 ,22.9356 ,0.92346 ,3.29997 ,32.37933 
122 ,23.1115 ,0.92521 ,3.29313 ,32.31217 
123 ,23.3033 ,0.92709 ,3.26917 ,32.07712 
124 ,23.4800 ,0.92884 ,3.25206 ,31.90923 
125 ,23.6720 ,0.93077 ,3.25206 ,31.90923 
126 ,23.8480 ,0.93259 ,3.22468 ,31.64060 
127 ,24.0561 ,0.93454 ,3.20073 ,31.40555 
128 ,24.2482 ,0.93647 ,3.18704 ,31.27124 
129 ,24.4402 ,0.93842 ,3.15282 ,30.93546 
130 ,24.6483 ,0.94055 ,3.16993 ,31.10335 
131 ,24.8246 ,0.94228 ,3.12886 ,30.70041 
132 ,25.0003 ,0.94406 ,3.11518 ,30.56610 
133 ,25.1763 ,0.94578 ,3.09464 ,30.36463 
134 ,25.3523 ,0.94757 ,3.09122 ,30.33105 
135 ,25.5286 ,0.94931 ,3.08095 ,30.23031 
136 ,25.7368 ,0.95133 ,3.05700 ,29.99527 
137 ,25.9449 ,0.95347 ,3.06042 ,30.02884 
138 ,26.1529 ,0.95552 ,3.03304 ,29.76022 
139 ,26.3287 ,0.95737 ,3.01935 ,29.62590 
140 ,26.5047 ,0.95906 ,3.00224 ,29.45801 
141 ,26.6812 ,0.96088 ,2.97487 ,29.18939 
142 ,26.8892 ,0.96292 ,2.97487 ,29.18939 
143 ,27.0652 ,0.96476 ,2.94064 ,28.85360 
144 ,27.2415 ,0.96646 ,2.92011 ,28.65213 
145 ,27.4174 ,0.96825 ,2.91669 ,28.61856 
146 ,27.5931 ,0.97009 ,2.90985 ,28.55140 
147 ,27.7697 ,0.97174 ,2.88931 ,28.34993 
148 ,27.9777 ,0.97372 ,2.86878 ,28.14846 
149 ,28.1538 ,0.97557 ,2.86536 ,28.11488 
150 ,28.3457 ,0.97739 ,2.82771 ,27.74552 
151 ,28.5218 ,0.97923 ,2.82429 ,27.71194 
152 ,28.6819 ,0.98096 ,2.81060 ,27.57763 
153 ,28.8581 ,0.98266 ,2.77980 ,27.27542 
154 ,29.0342 ,0.98445 ,2.79007 ,27.37616 
155 ,29.2102 ,0.98614 ,2.77638 ,27.24185 
156 ,29.3863 ,0.98787 ,2.75585 ,27.04038 
157 ,29.5784 ,0.98983 ,2.73189 ,26.80533 
158 ,29.7544 ,0.99158 ,2.73189 ,26.80533 
159 ,29.9306 ,0.99334 ,2.73189 ,26.80533 
160 ,30.1387 ,0.99528 ,2.67714 ,26.26807 
161 ,30.3308 ,0.99726 ,2.68740 ,26.36881 
162 ,30.5388 ,0.99931 ,2.64976 ,25.99945 
163 ,30.7465 ,1.00140 ,2.65660 ,26.06661 
164 ,30.9229 ,1.00328 ,2.62923 ,25.79798 
165 ,31.1147 ,1.00525 ,2.62238 ,25.73082 
166 ,31.2910 ,1.00692 ,2.60527 ,25.56293 
167 ,31.4673 ,1.00866 ,2.58474 ,25.36146 
168 ,31.6592 ,1.01058 ,2.56421 ,25.15999 
169 ,31.8509 ,1.01249 ,2.56421 ,25.15999 
170 ,32.0275 ,1.01439 ,2.55394 ,25.05926 
171 ,32.2194 ,1.01622 ,2.51630 ,24.68989 
172 ,32.3955 ,1.01793 ,2.51287 ,24.65632 
173 ,32.5717 ,1.01976 ,2.48892 ,24.42127 
174 ,32.7639 ,1.02169 ,2.47181 ,24.25338 
175 ,32.9556 ,1.02355 ,2.46154 ,24.15264 
176 ,33.1319 ,1.02532 ,2.46154 ,24.15264 
177 ,33.3236 ,1.02727 ,2.44101 ,23.95117 
178 ,33.5002 ,1.02903 ,2.40336 ,23.58181 
179 ,33.7083 ,1.03100 ,2.40336 ,23.58181 
180 ,33.9003 ,1.03304 ,2.37256 ,23.27961 
181 ,34.0923 ,1.03489 ,2.37941 ,23.34676 
182 ,34.2845 ,1.03688 ,2.33834 ,22.94382 
183 ,34.4921 ,1.03890 ,2.35888 ,23.14529 
184 ,34.6842 ,1.04078 ,2.31781 ,22.74235 
185 ,34.8603 ,1.04268 ,2.30412 ,22.60804 
186 ,35.0364 ,1.04443 ,2.28017 ,22.37299 
187 ,35.2290 ,1.04626 ,2.28017 ,22.37299 
188 ,35.4049 ,1.04810 ,2.26990 ,22.27226 
189 ,35.5807 ,1.04980 ,2.23910 ,21.97005 
190 ,35.7570 ,1.05155 ,2.23226 ,21.90290 
191 ,35.9331 ,1.05332 ,2.21857 ,21.76858 
192 ,36.1248 ,1.05521 ,2.20488 ,21.63427 
193 ,36.3014 ,1.05706 ,2.18092 ,21.39922 
194 ,36.5095 ,1.05902 ,2.19119 ,21.49996 
195 ,36.7013 ,1.06101 ,2.15697 ,21.16417 
196 ,36.8776 ,1.06281 ,2.13644 ,20.96270 
197 ,37.0537 ,1.06453 ,2.13644 ,20.96270 
198 ,37.2293 ,1.06630 ,2.13986 ,20.99628 
199 ,37.4057 ,1.06805 ,2.11590 ,20.76123 
200 ,37.6139 ,1.07006 ,2.11590 ,20.76123 
201 ,37.7899 ,1.07190 ,2.09537 ,20.55976 
202 ,37.9657 ,1.07365 ,2.08168 ,20.42545 
203 ,38.1581 ,1.07562 ,2.04061 ,20.02251 
204 ,38.3338 ,1.07738 ,2.04061 ,20.02251 
205 ,38.5103 ,1.07909 ,2.03035 ,19.92178 
206 ,38.7182 ,1.08107 ,2.01324 ,19.75388 
207 ,38.8943 ,1.08298 ,2.00297 ,19.65315 
208 ,39.1022 ,1.08499 ,1.97902 ,19.41810 
209 ,39.2944 ,1.08696 ,1.95848 ,19.21663 
210 ,39.4866 ,1.08881 ,1.95164 ,19.14948 
211 ,39.6946 ,1.09088 ,1.95506 ,19.18305 
212 ,39.8707 ,1.09270 ,1.93111 ,18.94801 
213 ,40.0307 ,1.09442 ,1.91399 ,18.78011 
214 ,40.2067 ,1.09605 ,1.91399 ,18.78011 
215 ,40.3989 ,1.09789 ,1.89004 ,18.54507 
216 ,40.5747 ,1.09977 ,1.85924 ,18.24286 
217 ,40.7670 ,1.10171 ,1.87293 ,18.37717 
218 ,40.9591 ,1.10354 ,1.82502 ,17.90708 
219 ,41.1513 ,1.10545 ,1.83528 ,18.00781 
220 ,41.3433 ,1.10738 ,1.80106 ,17.67203 
221 ,41.5514 ,1.10942 ,1.80791 ,17.73919 
222 ,41.7273 ,1.11128 ,1.77711 ,17.43698 
223 ,41.9196 ,1.11321 ,1.76000 ,17.26909 
224 ,42.1272 ,1.11516 ,1.76684 ,17.33625 
225 ,42.3035 ,1.11701 ,1.74631 ,17.13478 
226 ,42.4800 ,1.11881 ,1.72920 ,16.96689 
227 ,42.6720 ,1.12067 ,1.73604 ,17.03404 
228 ,42.8801 ,1.12277 ,1.70182 ,16.69826 
229 ,43.0721 ,1.12469 ,1.69155 ,16.59752 
230 ,43.2642 ,1.12655 ,1.66075 ,16.29532 
231 ,43.4562 ,1.12850 ,1.66075 ,16.29532 
232 ,43.6638 ,1.13052 ,1.63338 ,16.02669 
233 ,43.8403 ,1.13242 ,1.61627 ,15.85880 
234 ,44.0324 ,1.13431 ,1.61969 ,15.89238 
235 ,44.2084 ,1.13608 ,1.61284 ,15.82522 
236 ,44.3848 ,1.13781 ,1.58889 ,15.59018 
237 ,44.5766 ,1.13977 ,1.57862 ,15.48944 
238 ,44.7522 ,1.14154 ,1.55809 ,15.28797 
239 ,44.9123 ,1.14322 ,1.57862 ,15.48944 
240 ,45.0889 ,1.14488 ,1.55809 ,15.28797 
241 ,45.2811 ,1.14676 ,1.50676 ,14.78430 
242 ,45.4730 ,1.14871 ,1.53071 ,15.01934 
243 ,45.6492 ,1.15049 ,1.51360 ,14.85145 
244 ,45.8087 ,1.15220 ,1.49649 ,14.68356 
245 ,46.0008 ,1.15387 ,1.48622 ,14.58283 
246 ,46.1775 ,1.15577 ,1.46569 ,14.38136 
247 ,46.3533 ,1.15755 ,1.45542 ,14.28062 
248 ,46.5615 ,1.15960 ,1.42805 ,14.01199 
249 ,46.7852 ,1.16169 ,1.41094 ,13.84410 
250 ,46.9617 ,1.16358 ,1.39725 ,13.70979 
251 ,47.1696 ,1.16558 ,1.40409 ,13.77695 
252 ,47.3619 ,1.16753 ,1.38014 ,13.54190 
253 ,47.5536 ,1.16948 ,1.36645 ,13.40759 
254 ,47.7298 ,1.17129 ,1.36987 ,13.44116 
255 ,47.9058 ,1.17300 ,1.34591 ,13.20612 
256 ,48.1138 ,1.17501 ,1.33565 ,13.10538 
257 ,48.3059 ,1.17699 ,1.31854 ,12.93749 
258 ,48.4983 ,1.17897 ,1.30827 ,12.83675 
259 ,48.6743 ,1.18078 ,1.30485 ,12.80318 
260 ,48.8505 ,1.18247 ,1.30143 ,12.76960 
261 ,49.0420 ,1.18437 ,1.26720 ,12.43381 
262 ,49.2187 ,1.18616 ,1.25009 ,12.26592 
263 ,49.4107 ,1.18802 ,1.25009 ,12.26592 
264 ,49.6028 ,1.18995 ,1.22614 ,12.03088 
265 ,49.7791 ,1.19176 ,1.22614 ,12.03088 
266 ,49.9709 ,1.19367 ,1.23298 ,12.09803 
267 ,50.1310 ,1.19536 ,1.19192 ,11.69509 
268 ,50.3068 ,1.19706 ,1.19534 ,11.72867 
269 ,50.4992 ,1.19890 ,1.16796 ,11.46004 
270 ,50.6912 ,1.20091 ,1.15427 ,11.32573 
271 ,50.8834 ,1.20276 ,1.13716 ,11.15784 
272 ,51.0594 ,1.20455 ,1.12690 ,11.05710 
273 ,51.2354 ,1.20624 ,1.13032 ,11.09068 
274 ,51.4111 ,1.20817 ,1.10636 ,10.85563 
275 ,51.5877 ,1.20984 ,1.08925 ,10.68774 
276 ,51.7796 ,1.21178 ,1.09267 ,10.72132 
277 ,51.9557 ,1.21355 ,1.08925 ,10.68774 
278 ,52.1479 ,1.21546 ,1.06530 ,10.45270 
279 ,52.3399 ,1.21731 ,1.04134 ,10.21765 
280 ,52.5637 ,1.21945 ,1.02423 ,10.04976 
281 ,52.7559 ,1.22143 ,1.03792 ,10.18407 
282 ,52.9479 ,1.22346 ,1.01054 ,9.91544 
283 ,53.1403 ,1.22525 ,0.99343 ,9.74755 
284 ,53.3321 ,1.22722 ,0.99001 ,9.71397 
285 ,53.5084 ,1.22901 ,0.97290 ,9.54608 
286 ,53.7004 ,1.23091 ,0.96263 ,9.44535 
287 ,53.8767 ,1.23273 ,0.94210 ,9.24388 
288 ,54.0526 ,1.23448 ,0.94210 ,9.24388 
289 ,54.2287 ,1.23621 ,0.92499 ,9.07598 
290 ,54.4048 ,1.23795 ,0.90788 ,8.90809 
291 ,54.5969 ,1.23978 ,0.89077 ,8.74020 
292 ,54.8049 ,1.24193 ,0.87023 ,8.53873 
293 ,54.9813 ,1.24378 ,0.86339 ,8.47158 
294 ,55.1732 ,1.24566 ,0.86339 ,8.47158 
295 ,55.3651 ,1.24761 ,0.85654 ,8.40442 
296 ,55.5573 ,1.24953 ,0.83943 ,8.23653 
297 ,55.7652 ,1.25149 ,0.81548 ,8.00148 
298 ,55.9414 ,1.25334 ,0.82232 ,8.06864 
299 ,56.1173 ,1.25509 ,0.80521 ,7.90074 
300 ,56.2936 ,1.25691 ,0.78126 ,7.66570 
301 ,56.4854 ,1.25866 ,0.78468 ,7.69927 
302 ,56.6778 ,1.26073 ,0.77441 ,7.59854 
303 ,56.8536 ,1.26248 ,0.76757 ,7.53138 
304 ,57.0459 ,1.26430 ,0.76072 ,7.46423 
305 ,57.2379 ,1.26634 ,0.73677 ,7.22918 
306 ,57.4140 ,1.26807 ,0.72992 ,7.16202 
307 ,57.5898 ,1.26984 ,0.71624 ,7.02771 
308 ,57.7661 ,1.27159 ,0.70597 ,6.92697 
309 ,57.9422 ,1.27335 ,0.68886 ,6.75908 
310 ,58.1343 ,1.27524 ,0.68544 ,6.72550 
311 ,58.3422 ,1.27730 ,0.67517 ,6.62477 
312 ,58.5344 ,1.27919 ,0.65806 ,6.45688 
313 ,58.7101 ,1.28100 ,0.66490 ,6.52403 
314 ,58.8866 ,1.28280 ,0.62726 ,6.15467 
315 ,59.0946 ,1.28484 ,0.63068 ,6.18825 
316 ,59.2866 ,1.28676 ,0.59646 ,5.85247 
317 ,59.4628 ,1.28858 ,0.58962 ,5.78531 
318 ,59.6707 ,1.29056 ,0.59304 ,5.81889 
319 ,59.8627 ,1.29249 ,0.57251 ,5.61742 
320 ,60.0550 ,1.29443 ,0.57251 ,5.61742 
321 ,60.2309 ,1.29626 ,0.55539 ,5.44953 
322 ,60.4070 ,1.29801 ,0.54171 ,5.31522 
323 ,60.5992 ,1.29995 ,0.53486 ,5.24806 
324 ,60.7912 ,1.30187 ,0.52802 ,5.18090 
325 ,60.9675 ,1.30365 ,0.52459 ,5.14732 
326 ,61.1755 ,1.30568 ,0.50748 ,4.97943 
327 ,61.3676 ,1.30759 ,0.47668 ,4.67723 
328 ,61.5598 ,1.30945 ,0.47326 ,4.64365 
329 ,61.7518 ,1.31145 ,0.47668 ,4.67723 
330 ,61.9273 ,1.31316 ,0.44931 ,4.40860 
331 ,62.1039 ,1.31495 ,0.43220 ,4.24071 
332 ,62.2799 ,1.31668 ,0.43904 ,4.30787 
333 ,62.4557 ,1.31849 ,0.43562 ,4.27429 
334 ,62.6323 ,1.32025 ,0.42877 ,4.20713 
335 ,62.8241 ,1.32213 ,0.39113 ,3.83777 
336 ,63.0158 ,1.32397 ,0.38429 ,3.77061 
337 ,63.1922 ,1.32581 ,0.40482 ,3.97208 
338 ,63.3682 ,1.32761 ,0.37402 ,3.66988 
339 ,63.5605 ,1.32955 ,0.35691 ,3.50199 
340 ,63.7684 ,1.33152 ,0.34664 ,3.40125 
341 ,63.9607 ,1.33346 ,0.34322 ,3.36767 
342 ,64.1525 ,1.33544 ,0.33295 ,3.26694 
343 ,64.3446 ,1.33734 ,0.30900 ,3.03189 
344 ,64.5367 ,1.33926 ,0.30900 ,3.03189 
345 ,64.7290 ,1.34116 ,0.27478 ,2.69611 
346 ,64.9371 ,1.34320 ,0.29531 ,2.89758 
347 ,65.1128 ,1.34511 ,0.27135 ,2.66253 
348 ,65.3048 ,1.34687 ,0.26451 ,2.59537 
349 ,65.4973 ,1.34876 ,0.24055 ,2.36032 
350 ,65.6892 ,1.35079 ,0.25082 ,2.46106 
351 ,65.8814 ,1.35264 ,0.23371 ,2.29317 
352 ,66.0574 ,1.35449 ,0.24398 ,2.39390 
353 ,66.2335 ,1.35631 ,0.21660 ,2.12528 
354 ,66.4096 ,1.35802 ,0.20633 ,2.02454 
355 ,66.5858 ,1.35974 ,0.18580 ,1.82307 
356 ,66.7777 ,1.36169 ,0.17553 ,1.72234 
357 ,66.9538 ,1.36343 ,0.17553 ,1.72234 
358 ,67.1137 ,1.36513 ,0.15842 ,1.55445 
359 ,67.2895 ,1.36678 ,0.16869 ,1.65518 
360 ,67.4658 ,1.36854 ,0.13447 ,1.31940 
361 ,67.6423 ,1.37031 ,0.12078 ,1.18508 
362 ,67.8342 ,1.37227 ,0.11736 ,1.15151 
363 ,68.0102 ,1.37398 ,0.12420 ,1.21866 
364 ,68.2184 ,1.37608 ,0.11736 ,1.15151 
365 ,68.4105 ,1.37799 ,0.08656 ,0.84930 
366 ,68.6023 ,1.37984 ,0.07287 ,0.71499 
367 ,68.7785 ,1.38166 ,0.06945 ,0.68141 
368 ,68.9707 ,1.38354 ,0.04207 ,0.41278 
369 ,69.1624 ,1.38549 ,0.03865 ,0.37920 
370 ,69.3544 ,1.38737 ,0.04891 ,0.47994 
371 ,69.5466 ,1.38933 ,0.02154 ,0.21131 
372 ,69.7227 ,1.39111 ,0.00785 ,0.07700 
373 ,69.8990 ,1.39288 ,0.00785 ,0.07700 
374 ,70.0910 ,1.39481 ,0.00443 ,0.04342 
375 ,70.2672 ,1.39656 ,-0.02637 ,-0.25878 
376 ,70.4429 ,1.39831 ,-0.02637 ,-0.25878 
377 ,70.6353 ,1.40019 ,-0.02295 ,-0.22520 
378 ,70.8274 ,1.40221 ,-0.05033 ,-0.49383 
379 ,71.0034 ,1.40398 ,-0.04691 ,-0.46025 
380 ,71.1799 ,1.40568 ,-0.05717 ,-0.56099 
381 ,71.3717 ,1.40753 ,-0.07771 ,-0.76246 
382 ,71.5633 ,1.40950 ,-0.08113 ,-0.79604 
383 ,71.7398 ,1.41126 ,-0.09482 ,-0.93035 
384 ,71.9318 ,1.41322 ,-0.10166 ,-0.99751 
385 ,72.1078 ,1.41495 ,-0.11193 ,-1.09824 
386 ,72.3156 ,1.41695 ,-0.11877 ,-1.16540 
387 ,72.4921 ,1.41878 ,-0.12219 ,-1.19898 
388 ,72.6682 ,1.42055 ,-0.15642 ,-1.53476 
389 ,72.8442 ,1.42231 ,-0.15642 ,-1.53476 
390 ,73.0358 ,1.42421 ,-0.15299 ,-1.50118 
391 ,73.2284 ,1.42613 ,-0.17695 ,-1.73623 
392 ,73.4523 ,1.42820 ,-0.18037 ,-1.76981 
393 ,73.6285 ,1.43017 ,-0.20090 ,-1.97128 
394 ,73.8208 ,1.43208 ,-0.21117 ,-2.07201 
395 ,74.0287 ,1.43412 ,-0.21802 ,-2.13917 
396 ,74.2047 ,1.43590 ,-0.21802 ,-2.13917 
397 ,74.3969 ,1.43776 ,-0.21802 ,-2.13917 
398 ,74.5726 ,1.43963 ,-0.24197 ,-2.37422 
399 ,74.7487 ,1.44133 ,-0.25566 ,-2.50853 
400 ,74.9250 ,1.44317 ,-0.26935 ,-2.64284 
401 ,75.1170 ,1.44502 ,-0.25224 ,-2.47495 
402 ,75.3092 ,1.44686 ,-0.28304 ,-2.77716 
403 ,75.5014 ,1.44875 ,-0.28988 ,-2.84431 
404 ,75.6933 ,1.45082 ,-0.29673 ,-2.91147 
405 ,75.8693 ,1.45253 ,-0.31726 ,-3.11294 
406 ,76.0614 ,1.45451 ,-0.30699 ,-3.01220 
407 ,76.2376 ,1.45623 ,-0.31384 ,-3.07936 
408 ,76.4139 ,1.45795 ,-0.32752 ,-3.21367 
409 ,76.5897 ,1.45982 ,-0.34121 ,-3.34799 
410 ,76.7818 ,1.46162 ,-0.34806 ,-3.41514 
411 ,76.9417 ,1.46336 ,-0.34121 ,-3.34799 
412 ,77.1180 ,1.46502 ,-0.35832 ,-3.51588 
413 ,77.2940 ,1.46683 ,-0.38570 ,-3.78450 
414 ,77.4697 ,1.46856 ,-0.39597 ,-3.88524 
415 ,77.6460 ,1.47031 ,-0.39597 ,-3.88524 
416 ,77.8223 ,1.47207 ,-0.39939 ,-3.91882 
417 ,78.0142 ,1.47397 ,-0.40623 ,-3.98597 
418 ,78.1905 ,1.47578 ,-0.41992 ,-4.12029 
419 ,78.3665 ,1.47754 ,-0.43703 ,-4.28818 
420 ,78.5586 ,1.47936 ,-0.42335 ,-4.15387 
421 ,78.7503 ,1.48128 ,-0.45757 ,-4.48965 
422 ,78.9103 ,1.48305 ,-0.45414 ,-4.45607 
423 ,79.0702 ,1.48468 ,-0.47810 ,-4.69112 
424 ,79.2306 ,1.48626 ,-0.47810 ,-4.69112 
425 ,79.4069 ,1.48793 ,-0.48494 ,-4.75828 
426 ,79.5989 ,1.48984 ,-0.46783 ,-4.59038 
427 ,79.7911 ,1.49162 ,-0.49521 ,-4.85901 
428 ,79.9833 ,1.49370 ,-0.51232 ,-5.02690 
429 ,80.1749 ,1.49561 ,-0.51232 ,-5.02690 
430 ,80.3673 ,1.49754 ,-0.53970 ,-5.29553 
431 ,80.5432 ,1.49931 ,-0.52259 ,-5.12764 
432 ,80.7192 ,1.50103 ,-0.54654 ,-5.36268 
433 ,80.8950 ,1.50275 ,-0.53970 ,-5.29553 
434 ,81.0716 ,1.50453 ,-0.54997 ,-5.39626 
435 ,81.2636 ,1.50643 ,-0.56023 ,-5.49700 
436 ,81.4556 ,1.50838 ,-0.56365 ,-5.53058 
437 ,81.6478 ,1.51028 ,-0.59788 ,-5.86636 
438 ,81.8399 ,1.51216 ,-0.58077 ,-5.69847 
439 ,82.0317 ,1.51408 ,-0.61156 ,-6.00067 
440 ,82.2237 ,1.51605 ,-0.61499 ,-6.03425 
441 ,82.4162 ,1.51794 ,-0.61499 ,-6.03425 
442 ,82.6082 ,1.51992 ,-0.64579 ,-6.33646 
443 ,82.8003 ,1.52172 ,-0.63894 ,-6.26930 
444 ,82.9924 ,1.52377 ,-0.64236 ,-6.30288 
445 ,83.1843 ,1.52562 ,-0.64921 ,-6.37003 
446 ,83.3600 ,1.52750 ,-0.66632 ,-6.53793 
447 ,83.5365 ,1.52915 ,-0.66290 ,-6.50435 
448 ,83.7126 ,1.53093 ,-0.68343 ,-6.70582 
449 ,83.9044 ,1.53282 ,-0.67659 ,-6.63866 
450 ,84.0808 ,1.53463 ,-0.68685 ,-6.73940 
451 ,84.2567 ,1.53641 ,-0.70739 ,-6.94086 
452 ,84.4490 ,1.53830 ,-0.72450 ,-7.10876 
453 ,84.6250 ,1.54005 ,-0.73818 ,-7.24307 
454 ,84.8011 ,1.54185 ,-0.72107 ,-7.07518 
455 ,84.9930 ,1.54373 ,-0.74503 ,-7.31023 
456 ,85.1852 ,1.54559 ,-0.74845 ,-7.34380 
457 ,85.3933 ,1.54772 ,-0.76898 ,-7.54527 
458 ,85.5853 ,1.54959 ,-0.76214 ,-7.47812 
459 ,85.7776 ,1.55161 ,-0.77241 ,-7.57885 
460 ,85.9696 ,1.55354 ,-0.79294 ,-7.78032 
461 ,86.1776 ,1.55549 ,-0.79294 ,-7.78032 
462 ,86.3698 ,1.55741 ,-0.79978 ,-7.84748 
463 ,86.5614 ,1.55938 ,-0.79636 ,-7.81390 
