Data stamp = , 24-04-2022 04:56:55 996

Calibration Values: 
Slope = , 26.54 , g/V 
Offset Voltage at no contact = , -0.501760 , V 

No , Time , Stage Position ,   Mass , Force 
   ,  (s) ,      (mm)      ,   (g)  , (mN)  

1 ,0.0000 ,0.69936 ,5.28483 ,51.85474 
2 ,0.2028 ,0.69944 ,5.29852 ,51.98905 
3 ,0.6514 ,0.70089 ,5.29852 ,51.98905 
4 ,0.8435 ,0.70266 ,5.31221 ,52.12337 
5 ,1.0354 ,0.70450 ,5.28141 ,51.82116 
6 ,1.2115 ,0.70630 ,5.30194 ,52.02263 
7 ,1.4037 ,0.70807 ,5.30536 ,52.05621 
8 ,1.6114 ,0.71009 ,5.28483 ,51.85474 
9 ,1.7877 ,0.71200 ,5.29510 ,51.95548 
10 ,1.9640 ,0.71381 ,5.27798 ,51.78758 
11 ,2.1402 ,0.71560 ,5.25403 ,51.55254 
12 ,2.3156 ,0.71726 ,5.23007 ,51.31749 
13 ,2.4922 ,0.71904 ,5.21981 ,51.21675 
14 ,2.6523 ,0.72079 ,5.21296 ,51.14960 
15 ,2.8445 ,0.72255 ,5.19927 ,51.01528 
16 ,3.0204 ,0.72435 ,5.17532 ,50.78023 
17 ,3.1962 ,0.72610 ,5.14452 ,50.47803 
18 ,3.3725 ,0.72793 ,5.14110 ,50.44445 
19 ,3.5486 ,0.72961 ,5.11030 ,50.14225 
20 ,3.7246 ,0.73140 ,5.11030 ,50.14225 
21 ,3.8844 ,0.73309 ,5.09661 ,50.00793 
22 ,4.0604 ,0.73475 ,5.07950 ,49.84004 
23 ,4.2205 ,0.73647 ,5.04528 ,49.50426 
24 ,4.3966 ,0.73809 ,5.03501 ,49.40352 
25 ,4.5729 ,0.73988 ,5.00421 ,49.10132 
26 ,4.9248 ,0.74264 ,4.99052 ,48.96701 
27 ,5.1171 ,0.74526 ,4.95972 ,48.66480 
28 ,5.3093 ,0.74725 ,4.94603 ,48.53049 
29 ,5.4852 ,0.74894 ,4.93919 ,48.46333 
30 ,5.6615 ,0.75076 ,4.92208 ,48.29544 
31 ,5.8535 ,0.75270 ,4.88786 ,47.95966 
32 ,6.0454 ,0.75459 ,4.87075 ,47.79177 
33 ,6.2376 ,0.75643 ,4.86732 ,47.75819 
34 ,6.4138 ,0.75828 ,4.81941 ,47.28809 
35 ,6.6058 ,0.76010 ,4.81941 ,47.28809 
36 ,6.7814 ,0.76197 ,4.80230 ,47.12020 
37 ,6.9580 ,0.76369 ,4.75782 ,46.68368 
38 ,7.1501 ,0.76558 ,4.76124 ,46.71726 
39 ,7.3423 ,0.76755 ,4.75097 ,46.61653 
40 ,7.5498 ,0.76955 ,4.72702 ,46.38148 
41 ,7.7271 ,0.77141 ,4.69279 ,46.04569 
42 ,7.9180 ,0.77336 ,4.68595 ,45.97854 
43 ,8.1104 ,0.77519 ,4.66884 ,45.81065 
44 ,8.3025 ,0.77704 ,4.64831 ,45.60918 
45 ,8.4946 ,0.77906 ,4.62093 ,45.34055 
46 ,8.6701 ,0.78096 ,4.61408 ,45.27339 
47 ,8.8628 ,0.78263 ,4.60724 ,45.20624 
48 ,9.0709 ,0.78481 ,4.58328 ,44.97119 
49 ,9.2630 ,0.78666 ,4.57302 ,44.87045 
50 ,9.4550 ,0.78861 ,4.53195 ,44.46751 
51 ,9.6470 ,0.79052 ,4.53880 ,44.53467 
52 ,9.8553 ,0.79259 ,4.48062 ,43.96384 
53 ,10.0470 ,0.79463 ,4.48746 ,44.03100 
54 ,10.2233 ,0.79641 ,4.47378 ,43.89668 
55 ,10.4154 ,0.79820 ,4.44298 ,43.59448 
56 ,10.6234 ,0.80015 ,4.43613 ,43.52732 
57 ,10.8151 ,0.80222 ,4.39849 ,43.15796 
58 ,10.9914 ,0.80406 ,4.38480 ,43.02365 
59 ,11.1836 ,0.80588 ,4.39164 ,43.09080 
60 ,11.3598 ,0.80773 ,4.36084 ,42.78860 
61 ,11.5678 ,0.80972 ,4.34716 ,42.65429 
62 ,11.7599 ,0.81165 ,4.33004 ,42.48639 
63 ,11.9358 ,0.81353 ,4.29582 ,42.15061 
64 ,12.0960 ,0.81520 ,4.28556 ,42.04988 
65 ,12.2722 ,0.81686 ,4.26160 ,41.81483 
66 ,12.4801 ,0.81885 ,4.24107 ,41.61336 
67 ,12.6560 ,0.82066 ,4.23080 ,41.51262 
68 ,12.8323 ,0.82247 ,4.22396 ,41.44547 
69 ,13.0245 ,0.82426 ,4.21711 ,41.37831 
70 ,13.2161 ,0.82626 ,4.17262 ,40.94179 
71 ,13.3926 ,0.82804 ,4.15894 ,40.80748 
72 ,13.5686 ,0.82982 ,4.14867 ,40.70674 
73 ,13.7605 ,0.83171 ,4.13156 ,40.53885 
74 ,13.9370 ,0.83352 ,4.11445 ,40.37096 
75 ,14.1127 ,0.83527 ,4.10418 ,40.27023 
76 ,14.3210 ,0.83721 ,4.08707 ,40.10233 
77 ,14.4969 ,0.83906 ,4.04600 ,39.69940 
78 ,14.6891 ,0.84091 ,4.04600 ,39.69940 
79 ,14.8811 ,0.84295 ,4.02889 ,39.53150 
80 ,15.0568 ,0.84462 ,4.00836 ,39.33003 
81 ,15.2491 ,0.84652 ,3.98783 ,39.12856 
82 ,15.4254 ,0.84834 ,3.98441 ,39.09499 
83 ,15.6174 ,0.85025 ,3.96387 ,38.89352 
84 ,15.7935 ,0.85203 ,3.93650 ,38.62489 
85 ,15.9695 ,0.85375 ,3.92281 ,38.49058 
86 ,16.1453 ,0.85553 ,3.90570 ,38.32268 
87 ,16.3213 ,0.85736 ,3.90912 ,38.35626 
88 ,16.5298 ,0.85932 ,3.88174 ,38.08764 
89 ,16.7379 ,0.86143 ,3.86121 ,37.88617 
90 ,16.9140 ,0.86324 ,3.83725 ,37.65112 
91 ,17.1058 ,0.86512 ,3.82699 ,37.55038 
92 ,17.3140 ,0.86713 ,3.78934 ,37.18102 
93 ,17.4900 ,0.86902 ,3.78250 ,37.11387 
94 ,17.6660 ,0.87073 ,3.77223 ,37.01313 
95 ,17.8424 ,0.87252 ,3.76881 ,36.97955 
96 ,18.0502 ,0.87453 ,3.72432 ,36.54303 
97 ,18.2264 ,0.87641 ,3.72090 ,36.50946 
98 ,18.4026 ,0.87808 ,3.71748 ,36.47588 
99 ,18.6107 ,0.88012 ,3.68668 ,36.17367 
100 ,18.7867 ,0.88201 ,3.67299 ,36.03936 
101 ,18.9629 ,0.88370 ,3.67299 ,36.03936 
102 ,19.1550 ,0.88558 ,3.61481 ,35.46853 
103 ,19.3467 ,0.88755 ,3.61481 ,35.46853 
104 ,19.5229 ,0.88936 ,3.59428 ,35.26706 
105 ,19.6991 ,0.89114 ,3.57717 ,35.09917 
106 ,19.9072 ,0.89312 ,3.57375 ,35.06559 
107 ,20.0994 ,0.89498 ,3.55663 ,34.89770 
108 ,20.2914 ,0.89701 ,3.51215 ,34.46118 
109 ,20.4829 ,0.89889 ,3.52584 ,34.59549 
110 ,20.6595 ,0.90065 ,3.50188 ,34.36045 
111 ,20.8356 ,0.90242 ,3.47792 ,34.12540 
112 ,21.0118 ,0.90421 ,3.45055 ,33.85677 
113 ,21.2198 ,0.90619 ,3.43686 ,33.72246 
114 ,21.4117 ,0.90810 ,3.42659 ,33.62172 
115 ,21.6039 ,0.91005 ,3.41975 ,33.55457 
116 ,21.7959 ,0.91195 ,3.38553 ,33.21878 
117 ,21.9721 ,0.91379 ,3.37184 ,33.08447 
118 ,22.1483 ,0.91551 ,3.35130 ,32.88300 
119 ,22.3242 ,0.91730 ,3.35815 ,32.95016 
120 ,22.5164 ,0.91924 ,3.31708 ,32.54722 
121 ,22.6923 ,0.92099 ,3.30339 ,32.41290 
122 ,22.8843 ,0.92287 ,3.29997 ,32.37933 
123 ,23.0920 ,0.92497 ,3.26917 ,32.07712 
124 ,23.2681 ,0.92673 ,3.26917 ,32.07712 
125 ,23.4447 ,0.92849 ,3.24864 ,31.87565 
126 ,23.6207 ,0.93023 ,3.22811 ,31.67418 
127 ,23.7969 ,0.93202 ,3.20757 ,31.47271 
128 ,24.0208 ,0.93416 ,3.19046 ,31.30482 
129 ,24.2129 ,0.93612 ,3.16993 ,31.10335 
130 ,24.3890 ,0.93794 ,3.16993 ,31.10335 
131 ,24.5812 ,0.93989 ,3.15966 ,31.00262 
132 ,24.7728 ,0.94170 ,3.12202 ,30.63325 
133 ,24.9492 ,0.94351 ,3.11175 ,30.53252 
134 ,25.1252 ,0.94530 ,3.10833 ,30.49894 
135 ,25.3014 ,0.94711 ,3.09122 ,30.33105 
136 ,25.4934 ,0.94904 ,3.07069 ,30.12958 
137 ,25.6691 ,0.95081 ,3.04673 ,29.89453 
138 ,25.8771 ,0.95276 ,3.03989 ,29.82737 
139 ,26.0532 ,0.95460 ,3.01593 ,29.59233 
140 ,26.2297 ,0.95639 ,3.00567 ,29.49159 
141 ,26.4379 ,0.95846 ,2.98171 ,29.25654 
142 ,26.6139 ,0.96019 ,2.96802 ,29.12223 
143 ,26.7898 ,0.96196 ,2.96118 ,29.05507 
144 ,26.9821 ,0.96385 ,2.95433 ,28.98792 
145 ,27.1741 ,0.96586 ,2.92353 ,28.68571 
146 ,27.3500 ,0.96753 ,2.92011 ,28.65213 
147 ,27.5262 ,0.96936 ,2.89958 ,28.45066 
148 ,27.7023 ,0.97107 ,2.89958 ,28.45066 
149 ,27.8782 ,0.97285 ,2.86193 ,28.08130 
150 ,28.0705 ,0.97480 ,2.83798 ,27.84625 
151 ,28.2624 ,0.97669 ,2.84482 ,27.91341 
152 ,28.4548 ,0.97850 ,2.81060 ,27.57763 
153 ,28.6467 ,0.98043 ,2.82087 ,27.67836 
154 ,28.8227 ,0.98223 ,2.81060 ,27.57763 
155 ,28.9984 ,0.98398 ,2.77638 ,27.24185 
156 ,29.1750 ,0.98580 ,2.74900 ,26.97322 
157 ,29.3989 ,0.98796 ,2.74558 ,26.93964 
158 ,29.5750 ,0.98978 ,2.72505 ,26.73817 
159 ,29.7512 ,0.99156 ,2.70794 ,26.57028 
160 ,29.9435 ,0.99344 ,2.70794 ,26.57028 
161 ,30.1351 ,0.99534 ,2.68056 ,26.30165 
162 ,30.3112 ,0.99713 ,2.65318 ,26.03303 
163 ,30.4874 ,0.99895 ,2.67029 ,26.20092 
164 ,30.6955 ,1.00086 ,2.63949 ,25.89871 
165 ,30.9035 ,1.00303 ,2.63265 ,25.83156 
166 ,31.0797 ,1.00484 ,2.61554 ,25.66367 
167 ,31.2876 ,1.00689 ,2.59843 ,25.49577 
168 ,31.4798 ,1.00885 ,2.57105 ,25.22715 
169 ,31.6719 ,1.01070 ,2.56421 ,25.15999 
170 ,31.8640 ,1.01264 ,2.53683 ,24.89136 
171 ,32.0558 ,1.01455 ,2.52656 ,24.79063 
172 ,32.2636 ,1.01660 ,2.50945 ,24.62274 
173 ,32.4403 ,1.01847 ,2.49918 ,24.52200 
174 ,32.6319 ,1.02036 ,2.46154 ,24.15264 
175 ,32.8243 ,1.02221 ,2.46496 ,24.18622 
176 ,33.0160 ,1.02420 ,2.43759 ,23.91759 
177 ,33.2084 ,1.02610 ,2.44101 ,23.95117 
178 ,33.4166 ,1.02809 ,2.40336 ,23.58181 
179 ,33.6087 ,1.03004 ,2.42048 ,23.74970 
180 ,33.8005 ,1.03195 ,2.38625 ,23.41392 
181 ,33.9926 ,1.03387 ,2.37256 ,23.27961 
182 ,34.1528 ,1.03567 ,2.35203 ,23.07814 
183 ,34.3289 ,1.03731 ,2.35545 ,23.11171 
184 ,34.5210 ,1.03924 ,2.35203 ,23.07814 
185 ,34.7287 ,1.04126 ,2.33492 ,22.91024 
186 ,34.9051 ,1.04310 ,2.31097 ,22.67520 
187 ,35.0970 ,1.04499 ,2.27674 ,22.33941 
188 ,35.2893 ,1.04692 ,2.26648 ,22.23868 
189 ,35.4650 ,1.04865 ,2.26306 ,22.20510 
190 ,35.6573 ,1.05052 ,2.23568 ,21.93647 
191 ,35.8495 ,1.05249 ,2.22541 ,21.83574 
192 ,36.0253 ,1.05426 ,2.20488 ,21.63427 
193 ,36.2017 ,1.05603 ,2.19803 ,21.56711 
194 ,36.3933 ,1.05797 ,2.16723 ,21.26491 
195 ,36.5696 ,1.05970 ,2.17750 ,21.36564 
196 ,36.7617 ,1.06152 ,2.16723 ,21.26491 
197 ,36.9379 ,1.06343 ,2.13644 ,20.96270 
198 ,37.1299 ,1.06521 ,2.11932 ,20.79481 
199 ,37.3222 ,1.06721 ,2.10564 ,20.66050 
200 ,37.5298 ,1.06925 ,2.09195 ,20.52619 
201 ,37.7060 ,1.07106 ,2.09537 ,20.55976 
202 ,37.8821 ,1.07289 ,2.06115 ,20.22398 
203 ,38.0582 ,1.07458 ,2.07141 ,20.32472 
204 ,38.2182 ,1.07627 ,2.03377 ,19.95535 
205 ,38.4106 ,1.07808 ,2.01666 ,19.78746 
206 ,38.6187 ,1.08008 ,2.01324 ,19.75388 
207 ,38.7948 ,1.08199 ,1.99613 ,19.58599 
208 ,38.9868 ,1.08382 ,2.00297 ,19.65315 
209 ,39.2110 ,1.08595 ,1.96190 ,19.25021 
210 ,39.4031 ,1.08808 ,1.95848 ,19.21663 
211 ,39.5951 ,1.08989 ,1.93111 ,18.94801 
212 ,39.7708 ,1.09169 ,1.93111 ,18.94801 
213 ,39.9634 ,1.09358 ,1.91399 ,18.78011 
214 ,40.1550 ,1.09554 ,1.87635 ,18.41075 
215 ,40.3473 ,1.09741 ,1.88662 ,18.51149 
216 ,40.5234 ,1.09925 ,1.89004 ,18.54507 
217 ,40.7157 ,1.10105 ,1.87293 ,18.37717 
218 ,40.9234 ,1.10333 ,1.82844 ,17.94066 
219 ,41.0997 ,1.10502 ,1.82502 ,17.90708 
220 ,41.2918 ,1.10690 ,1.80791 ,17.73919 
221 ,41.4679 ,1.10870 ,1.80449 ,17.70561 
222 ,41.6599 ,1.11060 ,1.78395 ,17.50414 
223 ,41.8358 ,1.11239 ,1.77026 ,17.36983 
224 ,42.0118 ,1.11411 ,1.74289 ,17.10120 
225 ,42.1881 ,1.11589 ,1.75657 ,17.23551 
226 ,42.3642 ,1.11765 ,1.73946 ,17.06762 
227 ,42.5404 ,1.11940 ,1.72235 ,16.89973 
228 ,42.7323 ,1.12137 ,1.70524 ,16.73184 
229 ,42.9244 ,1.12316 ,1.68813 ,16.56395 
230 ,43.0845 ,1.12494 ,1.66760 ,16.36248 
231 ,43.2607 ,1.12660 ,1.66075 ,16.29532 
232 ,43.4528 ,1.12853 ,1.64364 ,16.12743 
233 ,43.6606 ,1.13047 ,1.64022 ,16.09385 
234 ,43.8525 ,1.13243 ,1.64022 ,16.09385 
235 ,44.0452 ,1.13437 ,1.60942 ,15.79164 
236 ,44.2369 ,1.13633 ,1.57862 ,15.48944 
237 ,44.4292 ,1.13819 ,1.59916 ,15.69091 
238 ,44.6213 ,1.14010 ,1.57178 ,15.42228 
239 ,44.8133 ,1.14211 ,1.54782 ,15.18724 
240 ,45.0054 ,1.14401 ,1.54782 ,15.18724 
241 ,45.1811 ,1.14586 ,1.51702 ,14.88503 
242 ,45.3736 ,1.14769 ,1.52387 ,14.95219 
243 ,45.5657 ,1.14957 ,1.49991 ,14.71714 
244 ,45.7577 ,1.15151 ,1.45542 ,14.28062 
245 ,45.9501 ,1.15341 ,1.48622 ,14.58283 
246 ,46.1415 ,1.15529 ,1.44516 ,14.17989 
247 ,46.3174 ,1.15717 ,1.43147 ,14.04557 
248 ,46.4936 ,1.15892 ,1.42805 ,14.01199 
249 ,46.6701 ,1.16068 ,1.43489 ,14.07915 
250 ,46.8459 ,1.16242 ,1.42462 ,13.97842 
251 ,47.0384 ,1.16440 ,1.38356 ,13.57548 
252 ,47.2304 ,1.16622 ,1.38698 ,13.60906 
253 ,47.4059 ,1.16803 ,1.36987 ,13.44116 
254 ,47.5821 ,1.16981 ,1.36303 ,13.37401 
255 ,47.7582 ,1.17153 ,1.33907 ,13.13896 
256 ,47.9345 ,1.17330 ,1.32196 ,12.97107 
257 ,48.1264 ,1.17524 ,1.32880 ,13.03822 
258 ,48.3188 ,1.17708 ,1.28774 ,12.63528 
259 ,48.4947 ,1.17897 ,1.29458 ,12.70244 
260 ,48.6710 ,1.18069 ,1.29458 ,12.70244 
261 ,48.8631 ,1.18254 ,1.25694 ,12.33308 
262 ,49.0550 ,1.18448 ,1.25009 ,12.26592 
263 ,49.2312 ,1.18629 ,1.25352 ,12.29950 
264 ,49.4233 ,1.18813 ,1.22956 ,12.06445 
265 ,49.6153 ,1.19004 ,1.21587 ,11.93014 
266 ,49.8072 ,1.19199 ,1.21587 ,11.93014 
267 ,49.9835 ,1.19380 ,1.18850 ,11.66151 
268 ,50.1756 ,1.19565 ,1.18165 ,11.59436 
269 ,50.3674 ,1.19756 ,1.16454 ,11.42647 
270 ,50.5753 ,1.19955 ,1.14401 ,11.22500 
271 ,50.7678 ,1.20155 ,1.14058 ,11.19142 
272 ,50.9439 ,1.20340 ,1.13374 ,11.12426 
273 ,51.1354 ,1.20531 ,1.09952 ,10.78848 
274 ,51.3119 ,1.20706 ,1.11663 ,10.95637 
275 ,51.4879 ,1.20882 ,1.10979 ,10.88921 
276 ,51.6637 ,1.21070 ,1.06187 ,10.41912 
277 ,51.8560 ,1.21245 ,1.07214 ,10.51985 
278 ,52.0643 ,1.21454 ,1.04819 ,10.28480 
279 ,52.2560 ,1.21651 ,1.02423 ,10.04976 
280 ,52.4324 ,1.21827 ,1.02765 ,10.08333 
281 ,52.6081 ,1.22005 ,1.02423 ,10.04976 
282 ,52.7842 ,1.22183 ,1.00370 ,9.84829 
283 ,52.9605 ,1.22357 ,0.98317 ,9.64682 
284 ,53.1363 ,1.22544 ,0.98659 ,9.68039 
285 ,53.3128 ,1.22703 ,0.97974 ,9.61324 
286 ,53.5210 ,1.22907 ,0.95579 ,9.37819 
287 ,53.7129 ,1.23102 ,0.96263 ,9.44535 
288 ,53.8886 ,1.23283 ,0.93525 ,9.17672 
289 ,54.0647 ,1.23462 ,0.93525 ,9.17672 
290 ,54.2413 ,1.23636 ,0.89077 ,8.74020 
291 ,54.4332 ,1.23819 ,0.89761 ,8.80736 
292 ,54.6093 ,1.24004 ,0.89077 ,8.74020 
293 ,54.7854 ,1.24178 ,0.87708 ,8.60589 
294 ,54.9933 ,1.24381 ,0.86339 ,8.47158 
295 ,55.1695 ,1.24564 ,0.85312 ,8.37084 
296 ,55.3457 ,1.24739 ,0.82917 ,8.13579 
297 ,55.5536 ,1.24942 ,0.82575 ,8.10221 
298 ,55.7296 ,1.25124 ,0.83259 ,8.16937 
299 ,55.9378 ,1.25325 ,0.79495 ,7.80001 
300 ,56.1458 ,1.25531 ,0.79152 ,7.76643 
301 ,56.3540 ,1.25738 ,0.77784 ,7.63212 
302 ,56.5459 ,1.25939 ,0.76072 ,7.46423 
303 ,56.7382 ,1.26130 ,0.74704 ,7.32991 
304 ,56.9463 ,1.26325 ,0.74019 ,7.26276 
305 ,57.1378 ,1.26532 ,0.72308 ,7.09486 
306 ,57.3144 ,1.26702 ,0.71624 ,7.02771 
307 ,57.5062 ,1.26898 ,0.69570 ,6.82624 
308 ,57.6825 ,1.27076 ,0.67517 ,6.62477 
309 ,57.8906 ,1.27275 ,0.69228 ,6.79266 
310 ,58.0827 ,1.27471 ,0.65806 ,6.45688 
311 ,58.2907 ,1.27679 ,0.66833 ,6.55761 
312 ,58.4667 ,1.27857 ,0.64095 ,6.28899 
313 ,58.6429 ,1.28033 ,0.62042 ,6.08752 
314 ,58.8191 ,1.28214 ,0.61015 ,5.98678 
315 ,59.0111 ,1.28406 ,0.61015 ,5.98678 
316 ,59.2031 ,1.28590 ,0.59304 ,5.81889 
317 ,59.3952 ,1.28785 ,0.59988 ,5.88605 
318 ,59.6032 ,1.28995 ,0.56224 ,5.51668 
319 ,59.7794 ,1.29169 ,0.55882 ,5.48311 
320 ,59.9714 ,1.29360 ,0.54513 ,5.34879 
321 ,60.1634 ,1.29565 ,0.53144 ,5.21448 
322 ,60.3231 ,1.29725 ,0.51775 ,5.08017 
323 ,60.4994 ,1.29896 ,0.51091 ,5.01301 
324 ,60.7074 ,1.30090 ,0.49722 ,4.87870 
325 ,60.8837 ,1.30276 ,0.49037 ,4.81154 
326 ,61.0754 ,1.30466 ,0.49037 ,4.81154 
327 ,61.2519 ,1.30642 ,0.49037 ,4.81154 
328 ,61.4436 ,1.30833 ,0.46642 ,4.57649 
329 ,61.6201 ,1.31015 ,0.43562 ,4.27429 
330 ,61.8116 ,1.31209 ,0.44246 ,4.34144 
331 ,61.9881 ,1.31377 ,0.42535 ,4.17355 
332 ,62.1802 ,1.31568 ,0.41851 ,4.10640 
333 ,62.3564 ,1.31744 ,0.40482 ,3.97208 
334 ,62.5322 ,1.31929 ,0.40140 ,3.93850 
335 ,62.7084 ,1.32103 ,0.39797 ,3.90493 
336 ,62.9006 ,1.32294 ,0.37402 ,3.66988 
337 ,63.0927 ,1.32483 ,0.36718 ,3.60272 
338 ,63.3007 ,1.32684 ,0.36033 ,3.53557 
339 ,63.4928 ,1.32881 ,0.37060 ,3.63630 
340 ,63.7009 ,1.33089 ,0.32611 ,3.19978 
341 ,63.8925 ,1.33292 ,0.31926 ,3.13263 
342 ,64.0525 ,1.33454 ,0.31584 ,3.09905 
343 ,64.2287 ,1.33620 ,0.31926 ,3.13263 
344 ,64.4049 ,1.33796 ,0.29189 ,2.86400 
345 ,64.5971 ,1.33984 ,0.28847 ,2.83042 
346 ,64.8051 ,1.34180 ,0.26793 ,2.62895 
347 ,64.9815 ,1.34375 ,0.25424 ,2.49464 
348 ,65.1733 ,1.34559 ,0.26109 ,2.56179 
349 ,65.3653 ,1.34751 ,0.24055 ,2.36032 
350 ,65.5253 ,1.34926 ,0.22344 ,2.19243 
351 ,65.7013 ,1.35101 ,0.22344 ,2.19243 
352 ,65.8775 ,1.35271 ,0.20633 ,2.02454 
353 ,66.0855 ,1.35468 ,0.17896 ,1.75592 
354 ,66.2617 ,1.35649 ,0.19264 ,1.89023 
355 ,66.4540 ,1.35840 ,0.19607 ,1.92381 
356 ,66.6460 ,1.36035 ,0.16869 ,1.65518 
357 ,66.8220 ,1.36212 ,0.16185 ,1.58802 
358 ,66.9982 ,1.36385 ,0.14473 ,1.42013 
359 ,67.1743 ,1.36563 ,0.15500 ,1.52087 
360 ,67.3662 ,1.36755 ,0.12762 ,1.25224 
361 ,67.5584 ,1.36948 ,0.11736 ,1.15151 
362 ,67.7504 ,1.37137 ,0.11051 ,1.08435 
363 ,67.9583 ,1.37350 ,0.09340 ,0.91646 
364 ,68.1509 ,1.37531 ,0.07287 ,0.71499 
365 ,68.3429 ,1.37735 ,0.07971 ,0.78214 
366 ,68.5346 ,1.37923 ,0.09340 ,0.91646 
367 ,68.7109 ,1.38101 ,0.05576 ,0.54710 
368 ,68.9025 ,1.38293 ,0.03180 ,0.31205 
369 ,69.1111 ,1.38482 ,0.04549 ,0.44636 
370 ,69.3191 ,1.38702 ,0.03522 ,0.34563 
371 ,69.5112 ,1.38896 ,0.00785 ,0.07700 
372 ,69.7035 ,1.39089 ,-0.00584 ,-0.05731 
373 ,69.9114 ,1.39288 ,-0.00584 ,-0.05731 
374 ,70.1195 ,1.39504 ,-0.00926 ,-0.09089 
375 ,70.3434 ,1.39717 ,-0.02980 ,-0.29236 
376 ,70.5516 ,1.39931 ,-0.03664 ,-0.35952 
377 ,70.7116 ,1.40110 ,-0.04691 ,-0.46025 
378 ,70.8874 ,1.40269 ,-0.06060 ,-0.59457 
379 ,71.0794 ,1.40465 ,-0.05717 ,-0.56099 
380 ,71.2559 ,1.40642 ,-0.05717 ,-0.56099 
381 ,71.4640 ,1.40844 ,-0.08455 ,-0.82961 
382 ,71.6401 ,1.41026 ,-0.09140 ,-0.89677 
383 ,71.8482 ,1.41218 ,-0.11877 ,-1.16540 
384 ,72.0242 ,1.41415 ,-0.11535 ,-1.13182 
385 ,72.1999 ,1.41587 ,-0.11877 ,-1.16540 
386 ,72.3761 ,1.41762 ,-0.12904 ,-1.26613 
387 ,72.5684 ,1.41948 ,-0.15984 ,-1.56834 
388 ,72.7605 ,1.42144 ,-0.13588 ,-1.33329 
389 ,72.9846 ,1.42358 ,-0.15642 ,-1.53476 
390 ,73.1607 ,1.42550 ,-0.17695 ,-1.73623 
391 ,73.3528 ,1.42740 ,-0.18722 ,-1.83696 
392 ,73.5609 ,1.42941 ,-0.21117 ,-2.07201 
393 ,73.7529 ,1.43136 ,-0.20090 ,-1.97128 
394 ,73.9611 ,1.43348 ,-0.22828 ,-2.23990 
395 ,74.1691 ,1.43547 ,-0.24197 ,-2.37422 
396 ,74.3611 ,1.43754 ,-0.22828 ,-2.23990 
397 ,74.5372 ,1.43926 ,-0.22828 ,-2.23990 
398 ,74.7292 ,1.44111 ,-0.24197 ,-2.37422 
399 ,74.9212 ,1.44304 ,-0.26250 ,-2.57569 
400 ,75.0971 ,1.44486 ,-0.26935 ,-2.64284 
401 ,75.2734 ,1.44660 ,-0.27277 ,-2.67642 
402 ,75.4497 ,1.44830 ,-0.29330 ,-2.87789 
403 ,75.6576 ,1.45038 ,-0.29673 ,-2.91147 
404 ,75.8337 ,1.45221 ,-0.30699 ,-3.01220 
405 ,76.0418 ,1.45425 ,-0.30357 ,-2.97863 
406 ,76.2178 ,1.45607 ,-0.33437 ,-3.28083 
407 ,76.3938 ,1.45776 ,-0.34121 ,-3.34799 
408 ,76.5700 ,1.45963 ,-0.34121 ,-3.34799 
409 ,76.7777 ,1.46155 ,-0.34464 ,-3.38156 
410 ,76.9536 ,1.46336 ,-0.36517 ,-3.58303 
411 ,77.1621 ,1.46535 ,-0.38570 ,-3.78450 
412 ,77.3698 ,1.46751 ,-0.39939 ,-3.91882 
413 ,77.5619 ,1.46942 ,-0.37544 ,-3.68377 
414 ,77.7384 ,1.47127 ,-0.38912 ,-3.81808 
415 ,77.9146 ,1.47299 ,-0.41650 ,-4.08671 
416 ,78.0906 ,1.47478 ,-0.42677 ,-4.18744 
417 ,78.2824 ,1.47674 ,-0.41650 ,-4.08671 
418 ,78.4587 ,1.47846 ,-0.43361 ,-4.25460 
419 ,78.6344 ,1.48022 ,-0.45072 ,-4.42249 
420 ,78.8266 ,1.48201 ,-0.45414 ,-4.45607 
421 ,79.0350 ,1.48414 ,-0.47126 ,-4.62396 
422 ,79.2108 ,1.48593 ,-0.48152 ,-4.72470 
423 ,79.4192 ,1.48796 ,-0.46783 ,-4.59038 
424 ,79.6109 ,1.48996 ,-0.49521 ,-4.85901 
425 ,79.7711 ,1.49166 ,-0.50890 ,-4.99332 
426 ,79.9475 ,1.49331 ,-0.52601 ,-5.16121 
427 ,80.1394 ,1.49525 ,-0.50890 ,-4.99332 
428 ,80.3155 ,1.49701 ,-0.50548 ,-4.95975 
429 ,80.5075 ,1.49885 ,-0.54312 ,-5.32911 
430 ,80.6836 ,1.50066 ,-0.54654 ,-5.36268 
431 ,80.8597 ,1.50242 ,-0.55339 ,-5.42984 
432 ,81.0359 ,1.50423 ,-0.55681 ,-5.46342 
433 ,81.2275 ,1.50612 ,-0.57734 ,-5.66489 
434 ,81.4041 ,1.50790 ,-0.58419 ,-5.73205 
435 ,81.6119 ,1.50987 ,-0.60130 ,-5.89994 
436 ,81.8037 ,1.51179 ,-0.60130 ,-5.89994 
437 ,81.9961 ,1.51369 ,-0.59788 ,-5.86636 
438 ,82.1881 ,1.51568 ,-0.62868 ,-6.16856 
439 ,82.3643 ,1.51749 ,-0.62868 ,-6.16856 
440 ,82.5725 ,1.51950 ,-0.64921 ,-6.37003 
441 ,82.7644 ,1.52148 ,-0.65263 ,-6.40361 
442 ,82.9400 ,1.52331 ,-0.64921 ,-6.37003 
443 ,83.1324 ,1.52503 ,-0.65605 ,-6.43719 
444 ,83.3087 ,1.52688 ,-0.68001 ,-6.67224 
445 ,83.4848 ,1.52864 ,-0.67659 ,-6.63866 
446 ,83.6767 ,1.53059 ,-0.67659 ,-6.63866 
447 ,83.8527 ,1.53237 ,-0.69370 ,-6.80655 
448 ,84.0450 ,1.53433 ,-0.68001 ,-6.67224 
449 ,84.2210 ,1.53607 ,-0.70396 ,-6.90729 
450 ,84.3969 ,1.53777 ,-0.71765 ,-7.04160 
451 ,84.5732 ,1.53957 ,-0.72450 ,-7.10876 
452 ,84.7653 ,1.54145 ,-0.73134 ,-7.17591 
453 ,84.9572 ,1.54333 ,-0.73134 ,-7.17591 
454 ,85.1333 ,1.54514 ,-0.74845 ,-7.34380 
455 ,85.3416 ,1.54714 ,-0.75530 ,-7.41096 
456 ,85.5335 ,1.54911 ,-0.77583 ,-7.61243 
457 ,85.7097 ,1.55091 ,-0.78610 ,-7.71317 
458 ,85.8858 ,1.55265 ,-0.80321 ,-7.88106 
459 ,86.0777 ,1.55456 ,-0.79978 ,-7.84748 
460 ,86.2855 ,1.55661 ,-0.81689 ,-8.01537 
461 ,86.4455 ,1.55840 ,-0.81005 ,-7.94821 
462 ,86.6216 ,1.56001 ,-0.81005 ,-7.94821 
463 ,86.8302 ,1.56211 ,-0.84769 ,-8.31758 
