Data stamp = , 24-04-2022 02:27:18 577

Calibration Values: 
Slope = , 26.54 , g/V 
Offset Voltage at no contact = , -0.501760 , V 

No , Time , Stage Position ,   Mass , Force 
   ,  (s) ,      (mm)      ,   (g)  , (mN)  

1 ,0.0000 ,0.69948 ,5.30536 ,52.05621 
2 ,0.1995 ,0.69954 ,5.28141 ,51.82116 
3 ,0.6320 ,0.70095 ,5.28483 ,51.85474 
4 ,0.8240 ,0.70261 ,5.29510 ,51.95548 
5 ,1.0162 ,0.70441 ,5.29167 ,51.92190 
6 ,1.2243 ,0.70642 ,5.29510 ,51.95548 
7 ,1.4164 ,0.70840 ,5.29510 ,51.95548 
8 ,1.6084 ,0.71025 ,5.30536 ,52.05621 
9 ,1.8005 ,0.71223 ,5.27114 ,51.72043 
10 ,1.9922 ,0.71413 ,5.28141 ,51.82116 
11 ,2.1687 ,0.71594 ,5.25745 ,51.58611 
12 ,2.3766 ,0.71795 ,5.22323 ,51.25033 
13 ,2.5525 ,0.71980 ,5.22665 ,51.28391 
14 ,2.7447 ,0.72164 ,5.19585 ,50.98170 
15 ,2.9209 ,0.72344 ,5.17874 ,50.81381 
16 ,3.1290 ,0.72550 ,5.16848 ,50.71308 
17 ,3.3210 ,0.72745 ,5.15136 ,50.54519 
18 ,3.5290 ,0.72942 ,5.14110 ,50.44445 
19 ,3.6892 ,0.73127 ,5.11372 ,50.17583 
20 ,3.8656 ,0.73292 ,5.10688 ,50.10867 
21 ,4.0576 ,0.73480 ,5.07608 ,49.80646 
22 ,4.2656 ,0.73690 ,5.06239 ,49.67215 
23 ,4.4736 ,0.73886 ,5.03843 ,49.43710 
24 ,4.6813 ,0.74101 ,5.01106 ,49.16848 
25 ,4.8582 ,0.74287 ,5.00421 ,49.10132 
26 ,5.0816 ,0.74502 ,4.98026 ,48.86627 
27 ,5.2738 ,0.74700 ,4.95288 ,48.59764 
28 ,5.4499 ,0.74870 ,4.94946 ,48.56407 
29 ,5.6262 ,0.75052 ,4.94261 ,48.49691 
30 ,5.8176 ,0.75242 ,4.89470 ,48.02681 
31 ,5.9943 ,0.75420 ,4.87075 ,47.79177 
32 ,6.1704 ,0.75596 ,4.87075 ,47.79177 
33 ,6.3626 ,0.75791 ,4.85364 ,47.62387 
34 ,6.5546 ,0.75979 ,4.82626 ,47.35525 
35 ,6.7464 ,0.76172 ,4.82968 ,47.38883 
36 ,6.9062 ,0.76342 ,4.80230 ,47.12020 
37 ,7.0825 ,0.76507 ,4.78177 ,46.91873 
38 ,7.2748 ,0.76700 ,4.74413 ,46.54937 
39 ,7.4668 ,0.76888 ,4.75097 ,46.61653 
40 ,7.6429 ,0.77070 ,4.73386 ,46.44863 
41 ,7.8188 ,0.77240 ,4.69964 ,46.11285 
42 ,7.9951 ,0.77418 ,4.67226 ,45.84422 
43 ,8.1710 ,0.77590 ,4.67226 ,45.84422 
44 ,8.3473 ,0.77771 ,4.65173 ,45.64275 
45 ,8.5233 ,0.77947 ,4.64488 ,45.57560 
46 ,8.6991 ,0.78121 ,4.61751 ,45.30697 
47 ,8.8915 ,0.78313 ,4.60040 ,45.13908 
48 ,9.0833 ,0.78516 ,4.57644 ,44.90403 
49 ,9.2757 ,0.78693 ,4.55249 ,44.66898 
50 ,9.4517 ,0.78876 ,4.54564 ,44.60183 
51 ,9.6437 ,0.79053 ,4.53195 ,44.46751 
52 ,9.8197 ,0.79243 ,4.51826 ,44.33320 
53 ,9.9960 ,0.79416 ,4.48062 ,43.96384 
54 ,10.1556 ,0.79587 ,4.46009 ,43.76237 
55 ,10.3321 ,0.79756 ,4.44982 ,43.66163 
56 ,10.5081 ,0.79929 ,4.44640 ,43.62806 
57 ,10.7003 ,0.80116 ,4.41218 ,43.29227 
58 ,10.9082 ,0.80327 ,4.40191 ,43.19154 
59 ,11.0843 ,0.80510 ,4.40191 ,43.19154 
60 ,11.2765 ,0.80695 ,4.35400 ,42.72144 
61 ,11.4687 ,0.80891 ,4.35058 ,42.68786 
62 ,11.6607 ,0.81072 ,4.35058 ,42.68786 
63 ,11.8686 ,0.81286 ,4.31636 ,42.35208 
64 ,12.0449 ,0.81473 ,4.29240 ,42.11703 
65 ,12.2364 ,0.81667 ,4.27871 ,41.98272 
66 ,12.4286 ,0.81840 ,4.25133 ,41.71409 
67 ,12.6210 ,0.82039 ,4.24791 ,41.68051 
68 ,12.8288 ,0.82237 ,4.22053 ,41.41189 
69 ,13.0053 ,0.82429 ,4.20685 ,41.27758 
70 ,13.2133 ,0.82629 ,4.16578 ,40.87464 
71 ,13.4054 ,0.82821 ,4.17262 ,40.94179 
72 ,13.5973 ,0.83017 ,4.14867 ,40.70674 
73 ,13.7735 ,0.83194 ,4.12814 ,40.50527 
74 ,13.9492 ,0.83372 ,4.10076 ,40.23665 
75 ,14.1256 ,0.83550 ,4.10076 ,40.23665 
76 ,14.3017 ,0.83718 ,4.08365 ,40.06876 
77 ,14.4778 ,0.83901 ,4.07338 ,39.96802 
78 ,14.6857 ,0.84097 ,4.04258 ,39.66582 
79 ,14.8941 ,0.84308 ,4.01520 ,39.39719 
80 ,15.0857 ,0.84502 ,4.01520 ,39.39719 
81 ,15.2622 ,0.84681 ,3.99809 ,39.22930 
82 ,15.4377 ,0.84863 ,3.97756 ,39.02783 
83 ,15.6141 ,0.85038 ,3.94676 ,38.72562 
84 ,15.8064 ,0.85225 ,3.93650 ,38.62489 
85 ,15.9980 ,0.85413 ,3.92281 ,38.49058 
86 ,16.1745 ,0.85594 ,3.90227 ,38.28911 
87 ,16.3505 ,0.85768 ,3.88174 ,38.08764 
88 ,16.5586 ,0.85971 ,3.86121 ,37.88617 
89 ,16.7665 ,0.86182 ,3.86121 ,37.88617 
90 ,16.9585 ,0.86370 ,3.84752 ,37.75185 
91 ,17.1348 ,0.86560 ,3.80645 ,37.34891 
92 ,17.3270 ,0.86741 ,3.79961 ,37.28176 
93 ,17.5030 ,0.86921 ,3.78934 ,37.18102 
94 ,17.6949 ,0.87109 ,3.76196 ,36.91240 
95 ,17.8872 ,0.87308 ,3.74828 ,36.77808 
96 ,18.0952 ,0.87520 ,3.72432 ,36.54303 
97 ,18.2713 ,0.87692 ,3.70037 ,36.30799 
98 ,18.4635 ,0.87878 ,3.70037 ,36.30799 
99 ,18.6551 ,0.88080 ,3.67641 ,36.07294 
100 ,18.8315 ,0.88252 ,3.65588 ,35.87147 
101 ,19.0076 ,0.88424 ,3.62850 ,35.60284 
102 ,19.1837 ,0.88606 ,3.62508 ,35.56926 
103 ,19.3914 ,0.88803 ,3.60112 ,35.33422 
104 ,19.5680 ,0.88984 ,3.59086 ,35.23348 
105 ,19.7438 ,0.89165 ,3.58401 ,35.16632 
106 ,19.9199 ,0.89339 ,3.57717 ,35.09917 
107 ,20.1120 ,0.89532 ,3.53610 ,34.69623 
108 ,20.2881 ,0.89707 ,3.52584 ,34.59549 
109 ,20.4801 ,0.89895 ,3.52241 ,34.56192 
110 ,20.6564 ,0.90073 ,3.49504 ,34.29329 
111 ,20.8484 ,0.90266 ,3.46766 ,34.02466 
112 ,21.0402 ,0.90460 ,3.46766 ,34.02466 
113 ,21.2326 ,0.90642 ,3.43686 ,33.72246 
114 ,21.4245 ,0.90852 ,3.43344 ,33.68888 
115 ,21.6165 ,0.91030 ,3.40264 ,33.38667 
116 ,21.7926 ,0.91215 ,3.40264 ,33.38667 
117 ,22.0009 ,0.91416 ,3.37526 ,33.11805 
118 ,22.2087 ,0.91621 ,3.35815 ,32.95016 
119 ,22.3851 ,0.91807 ,3.33077 ,32.68153 
120 ,22.5931 ,0.91995 ,3.32051 ,32.58080 
121 ,22.7853 ,0.92204 ,3.31024 ,32.48006 
122 ,22.9772 ,0.92393 ,3.30339 ,32.41290 
123 ,23.1535 ,0.92572 ,3.26917 ,32.07712 
124 ,23.3455 ,0.92763 ,3.24180 ,31.80849 
125 ,23.5215 ,0.92937 ,3.24180 ,31.80849 
126 ,23.7293 ,0.93128 ,3.22811 ,31.67418 
127 ,23.9216 ,0.93326 ,3.20073 ,31.40555 
128 ,24.0976 ,0.93514 ,3.20757 ,31.47271 
129 ,24.2898 ,0.93703 ,3.16651 ,31.06977 
130 ,24.4660 ,0.93884 ,3.15966 ,31.00262 
131 ,24.6739 ,0.94085 ,3.13229 ,30.73399 
132 ,24.8659 ,0.94281 ,3.11860 ,30.59968 
133 ,25.0419 ,0.94464 ,3.10833 ,30.49894 
134 ,25.2342 ,0.94645 ,3.08780 ,30.29747 
135 ,25.4263 ,0.94842 ,3.08095 ,30.23031 
136 ,25.6023 ,0.95025 ,3.06384 ,30.06242 
137 ,25.7945 ,0.95213 ,3.04673 ,29.89453 
138 ,25.9865 ,0.95398 ,3.03989 ,29.82737 
139 ,26.1783 ,0.95595 ,3.01935 ,29.62590 
140 ,26.3547 ,0.95775 ,3.00567 ,29.49159 
141 ,26.5629 ,0.95970 ,2.97144 ,29.15581 
142 ,26.7387 ,0.96161 ,2.97144 ,29.15581 
143 ,26.9149 ,0.96333 ,2.95433 ,28.98792 
144 ,27.0910 ,0.96508 ,2.92696 ,28.71929 
145 ,27.2826 ,0.96699 ,2.91669 ,28.61856 
146 ,27.4752 ,0.96882 ,2.90985 ,28.55140 
147 ,27.6669 ,0.97082 ,2.87562 ,28.21562 
148 ,27.8434 ,0.97263 ,2.86878 ,28.14846 
149 ,28.0355 ,0.97452 ,2.87220 ,28.18204 
150 ,28.2115 ,0.97629 ,2.84825 ,27.94699 
151 ,28.4191 ,0.97821 ,2.82771 ,27.74552 
152 ,28.5957 ,0.98015 ,2.82429 ,27.71194 
153 ,28.7876 ,0.98201 ,2.79349 ,27.40974 
154 ,28.9637 ,0.98379 ,2.76954 ,27.17469 
155 ,29.1398 ,0.98558 ,2.77296 ,27.20827 
156 ,29.3318 ,0.98741 ,2.74216 ,26.90606 
157 ,29.5076 ,0.98920 ,2.73531 ,26.83891 
158 ,29.7159 ,0.99131 ,2.72163 ,26.70459 
159 ,29.8919 ,0.99305 ,2.69767 ,26.46954 
160 ,30.0679 ,0.99488 ,2.69083 ,26.40239 
161 ,30.2761 ,0.99690 ,2.67372 ,26.23450 
162 ,30.4680 ,0.99880 ,2.65318 ,26.03303 
163 ,30.6602 ,1.00066 ,2.63949 ,25.89871 
164 ,30.8525 ,1.00262 ,2.62238 ,25.73082 
165 ,31.0442 ,1.00458 ,2.60185 ,25.52935 
166 ,31.2205 ,1.00630 ,2.59501 ,25.46220 
167 ,31.3966 ,1.00812 ,2.58816 ,25.39504 
168 ,31.5888 ,1.01012 ,2.56078 ,25.12641 
169 ,31.7648 ,1.01179 ,2.53341 ,24.85779 
170 ,31.9408 ,1.01357 ,2.53683 ,24.89136 
171 ,32.1650 ,1.01563 ,2.49918 ,24.52200 
172 ,32.3731 ,1.01784 ,2.50261 ,24.55558 
173 ,32.5492 ,1.01960 ,2.48550 ,24.38769 
174 ,32.7252 ,1.02146 ,2.47865 ,24.32053 
175 ,32.9333 ,1.02339 ,2.45127 ,24.05191 
176 ,33.1413 ,1.02545 ,2.43759 ,23.91759 
177 ,33.3174 ,1.02731 ,2.42390 ,23.78328 
178 ,33.4772 ,1.02903 ,2.41363 ,23.68255 
179 ,33.6532 ,1.03068 ,2.39994 ,23.54823 
180 ,33.8297 ,1.03245 ,2.38625 ,23.41392 
181 ,34.0218 ,1.03425 ,2.36230 ,23.17887 
182 ,34.2139 ,1.03616 ,2.36230 ,23.17887 
183 ,34.4058 ,1.03814 ,2.33492 ,22.91024 
184 ,34.5821 ,1.03998 ,2.31439 ,22.70877 
185 ,34.7738 ,1.04186 ,2.32123 ,22.77593 
186 ,34.9503 ,1.04365 ,2.29043 ,22.47373 
187 ,35.1423 ,1.04556 ,2.25963 ,22.17152 
188 ,35.3344 ,1.04746 ,2.27332 ,22.30584 
189 ,35.5265 ,1.04932 ,2.24937 ,22.07079 
190 ,35.7182 ,1.05125 ,2.23910 ,21.97005 
191 ,35.9266 ,1.05333 ,2.21172 ,21.70143 
192 ,36.1188 ,1.05527 ,2.20830 ,21.66785 
193 ,36.3107 ,1.05730 ,2.20146 ,21.60069 
194 ,36.4868 ,1.05903 ,2.16381 ,21.23133 
195 ,36.6629 ,1.06075 ,2.15012 ,21.09702 
196 ,36.8388 ,1.06254 ,2.14328 ,21.02986 
197 ,37.0471 ,1.06456 ,2.12275 ,20.82839 
198 ,37.2392 ,1.06651 ,2.10906 ,20.69408 
199 ,37.4152 ,1.06832 ,2.10221 ,20.62692 
200 ,37.6070 ,1.07012 ,2.08510 ,20.45903 
201 ,37.7834 ,1.07197 ,2.06799 ,20.29114 
202 ,37.9591 ,1.07377 ,2.07826 ,20.39187 
203 ,38.1356 ,1.07550 ,2.03719 ,19.98893 
204 ,38.3436 ,1.07753 ,2.01324 ,19.75388 
205 ,38.5356 ,1.07948 ,2.03035 ,19.92178 
206 ,38.7113 ,1.08126 ,2.01666 ,19.78746 
207 ,38.9038 ,1.08317 ,1.98928 ,19.51884 
208 ,39.0794 ,1.08503 ,1.97902 ,19.41810 
209 ,39.2558 ,1.08670 ,1.96533 ,19.28379 
210 ,39.4481 ,1.08855 ,1.94137 ,19.04874 
211 ,39.6399 ,1.09044 ,1.94137 ,19.04874 
212 ,39.8163 ,1.09228 ,1.92768 ,18.91443 
213 ,40.0082 ,1.09417 ,1.91742 ,18.81369 
214 ,40.1843 ,1.09595 ,1.89346 ,18.57864 
215 ,40.3605 ,1.09770 ,1.87635 ,18.41075 
216 ,40.5687 ,1.09976 ,1.86951 ,18.34360 
217 ,40.7446 ,1.10159 ,1.85240 ,18.17570 
218 ,40.9367 ,1.10341 ,1.84897 ,18.14213 
219 ,41.1286 ,1.10531 ,1.81475 ,17.80634 
220 ,41.2884 ,1.10710 ,1.80449 ,17.70561 
221 ,41.4645 ,1.10875 ,1.79422 ,17.60487 
222 ,41.6406 ,1.11054 ,1.77711 ,17.43698 
223 ,41.8168 ,1.11226 ,1.75657 ,17.23551 
224 ,42.0089 ,1.11420 ,1.77711 ,17.43698 
225 ,42.1851 ,1.11596 ,1.74631 ,17.13478 
226 ,42.3771 ,1.11783 ,1.72578 ,16.93331 
227 ,42.5690 ,1.11977 ,1.72578 ,16.93331 
228 ,42.7452 ,1.12156 ,1.70182 ,16.69826 
229 ,42.9535 ,1.12347 ,1.69498 ,16.63110 
230 ,43.1456 ,1.12558 ,1.68129 ,16.49679 
231 ,43.3372 ,1.12748 ,1.64364 ,16.12743 
232 ,43.5137 ,1.12927 ,1.64707 ,16.16101 
233 ,43.7058 ,1.13114 ,1.64022 ,16.09385 
234 ,43.8978 ,1.13299 ,1.62311 ,15.92596 
235 ,44.0899 ,1.13503 ,1.61969 ,15.89238 
236 ,44.2662 ,1.13675 ,1.60600 ,15.75807 
237 ,44.4581 ,1.13861 ,1.59573 ,15.65733 
238 ,44.6342 ,1.14045 ,1.57178 ,15.42228 
239 ,44.8263 ,1.14236 ,1.56493 ,15.35513 
240 ,45.0182 ,1.14430 ,1.53071 ,15.01934 
241 ,45.2261 ,1.14629 ,1.52045 ,14.91861 
242 ,45.4184 ,1.14820 ,1.51702 ,14.88503 
243 ,45.6104 ,1.15011 ,1.51702 ,14.88503 
244 ,45.8027 ,1.15214 ,1.48280 ,14.54925 
245 ,45.9948 ,1.15398 ,1.48280 ,14.54925 
246 ,46.1869 ,1.15599 ,1.46911 ,14.41493 
247 ,46.3788 ,1.15784 ,1.43147 ,14.04557 
248 ,46.5546 ,1.15963 ,1.43489 ,14.07915 
249 ,46.7311 ,1.16145 ,1.42462 ,13.97842 
250 ,46.9230 ,1.16330 ,1.41436 ,13.87768 
251 ,47.0992 ,1.16510 ,1.37671 ,13.50832 
252 ,47.2913 ,1.16690 ,1.39040 ,13.64263 
253 ,47.4829 ,1.16896 ,1.37329 ,13.47474 
254 ,47.6592 ,1.17069 ,1.34591 ,13.20612 
255 ,47.8678 ,1.17269 ,1.33565 ,13.10538 
256 ,48.0595 ,1.17473 ,1.32880 ,13.03822 
257 ,48.2516 ,1.17647 ,1.31512 ,12.90391 
258 ,48.4437 ,1.17840 ,1.32196 ,12.97107 
259 ,48.6197 ,1.18029 ,1.27747 ,12.53455 
260 ,48.7955 ,1.18212 ,1.28432 ,12.60171 
261 ,48.9719 ,1.18380 ,1.27747 ,12.53455 
262 ,49.1640 ,1.18575 ,1.26036 ,12.36666 
263 ,49.3720 ,1.18763 ,1.26036 ,12.36666 
264 ,49.5640 ,1.18964 ,1.22614 ,12.03088 
265 ,49.7399 ,1.19149 ,1.20903 ,11.86298 
266 ,49.9162 ,1.19318 ,1.19876 ,11.76225 
267 ,50.0763 ,1.19495 ,1.20561 ,11.82941 
268 ,50.2524 ,1.19664 ,1.17823 ,11.56078 
269 ,50.4444 ,1.19852 ,1.16454 ,11.42647 
270 ,50.6364 ,1.20033 ,1.15427 ,11.32573 
271 ,50.8285 ,1.20224 ,1.14743 ,11.25857 
272 ,51.0207 ,1.20422 ,1.12690 ,11.05710 
273 ,51.1963 ,1.20607 ,1.12347 ,11.02353 
274 ,51.3883 ,1.20786 ,1.10294 ,10.82206 
275 ,51.5644 ,1.20973 ,1.10294 ,10.82206 
276 ,51.7410 ,1.21151 ,1.07556 ,10.55343 
277 ,51.9487 ,1.21347 ,1.07556 ,10.55343 
278 ,52.1414 ,1.21543 ,1.05503 ,10.35196 
279 ,52.3490 ,1.21750 ,1.05503 ,10.35196 
280 ,52.5253 ,1.21930 ,1.03792 ,10.18407 
281 ,52.7014 ,1.22105 ,1.01739 ,9.98260 
282 ,52.9093 ,1.22308 ,1.02423 ,10.04976 
283 ,53.0854 ,1.22502 ,0.98317 ,9.64682 
284 ,53.2616 ,1.22668 ,0.98659 ,9.68039 
285 ,53.4695 ,1.22869 ,0.97290 ,9.54608 
286 ,53.6455 ,1.23048 ,0.96948 ,9.51250 
287 ,53.8377 ,1.23232 ,0.94552 ,9.27745 
288 ,54.0139 ,1.23421 ,0.93525 ,9.17672 
289 ,54.2058 ,1.23605 ,0.93525 ,9.17672 
290 ,54.4140 ,1.23818 ,0.91130 ,8.94167 
291 ,54.6060 ,1.24009 ,0.90788 ,8.90809 
292 ,54.7823 ,1.24188 ,0.88050 ,8.63947 
293 ,54.9740 ,1.24379 ,0.87023 ,8.53873 
294 ,55.1662 ,1.24570 ,0.87366 ,8.57231 
295 ,55.3743 ,1.24770 ,0.83943 ,8.23653 
296 ,55.5665 ,1.24974 ,0.85654 ,8.40442 
297 ,55.7586 ,1.25156 ,0.82232 ,8.06864 
298 ,55.9506 ,1.25363 ,0.80521 ,7.90074 
299 ,56.1425 ,1.25541 ,0.79495 ,7.80001 
300 ,56.3184 ,1.25716 ,0.77784 ,7.63212 
301 ,56.4946 ,1.25902 ,0.77099 ,7.56496 
302 ,56.6867 ,1.26089 ,0.77099 ,7.56496 
303 ,57.1032 ,1.26393 ,0.77784 ,7.63212 
304 ,57.2951 ,1.26704 ,0.71966 ,7.06129 
305 ,57.4870 ,1.26883 ,0.71966 ,7.06129 
306 ,57.6956 ,1.27092 ,0.69570 ,6.82624 
307 ,57.8874 ,1.27283 ,0.69570 ,6.82624 
308 ,58.0791 ,1.27475 ,0.68544 ,6.72550 
309 ,58.2557 ,1.27661 ,0.65806 ,6.45688 
310 ,58.4473 ,1.27844 ,0.66148 ,6.49046 
311 ,58.6397 ,1.28036 ,0.64779 ,6.35614 
312 ,58.8477 ,1.28243 ,0.64095 ,6.28899 
313 ,59.0239 ,1.28430 ,0.63410 ,6.22183 
314 ,59.2157 ,1.28619 ,0.59988 ,5.88605 
315 ,59.3921 ,1.28797 ,0.59304 ,5.81889 
316 ,59.5999 ,1.28998 ,0.57593 ,5.65100 
317 ,59.7922 ,1.29196 ,0.56566 ,5.55026 
318 ,59.9684 ,1.29370 ,0.57593 ,5.65100 
319 ,60.1765 ,1.29565 ,0.55882 ,5.48311 
320 ,60.3684 ,1.29768 ,0.55539 ,5.44953 
321 ,60.5441 ,1.29960 ,0.51775 ,5.08017 
322 ,60.7525 ,1.30139 ,0.51433 ,5.04659 
323 ,60.9447 ,1.30345 ,0.51091 ,5.01301 
324 ,61.1208 ,1.30527 ,0.49037 ,4.81154 
325 ,61.3130 ,1.30711 ,0.49380 ,4.84512 
326 ,61.5206 ,1.30913 ,0.48353 ,4.74438 
327 ,61.6971 ,1.31100 ,0.45957 ,4.50934 
328 ,61.8891 ,1.31285 ,0.46642 ,4.57649 
329 ,62.0811 ,1.31489 ,0.45615 ,4.47576 
330 ,62.2732 ,1.31676 ,0.42877 ,4.20713 
331 ,62.4655 ,1.31862 ,0.42193 ,4.13997 
332 ,62.6575 ,1.32059 ,0.39797 ,3.90493 
333 ,62.8655 ,1.32260 ,0.40482 ,3.97208 
334 ,63.0575 ,1.32461 ,0.37402 ,3.66988 
335 ,63.2336 ,1.32638 ,0.36375 ,3.56914 
336 ,63.3937 ,1.32807 ,0.36375 ,3.56914 
337 ,63.5700 ,1.32970 ,0.35349 ,3.46841 
338 ,63.7775 ,1.33171 ,0.33638 ,3.30052 
339 ,63.9539 ,1.33358 ,0.32611 ,3.19978 
340 ,64.1461 ,1.33547 ,0.31926 ,3.13263 
341 ,64.3376 ,1.33748 ,0.30558 ,2.99831 
342 ,64.5302 ,1.33922 ,0.29873 ,2.93116 
343 ,64.7223 ,1.34127 ,0.28847 ,2.83042 
344 ,64.9142 ,1.34308 ,0.27135 ,2.66253 
345 ,65.0904 ,1.34492 ,0.26793 ,2.62895 
346 ,65.2824 ,1.34685 ,0.26109 ,2.56179 
347 ,65.4583 ,1.34866 ,0.24398 ,2.39390 
348 ,65.6347 ,1.35037 ,0.23029 ,2.25959 
349 ,65.8587 ,1.35250 ,0.23371 ,2.29317 
350 ,66.0508 ,1.35451 ,0.22002 ,2.15885 
351 ,66.2428 ,1.35645 ,0.20976 ,2.05812 
352 ,66.4350 ,1.35831 ,0.18238 ,1.78949 
353 ,66.6270 ,1.36022 ,0.19949 ,1.95738 
354 ,66.8031 ,1.36207 ,0.18580 ,1.82307 
355 ,66.9788 ,1.36381 ,0.16869 ,1.65518 
356 ,67.1713 ,1.36566 ,0.15842 ,1.55445 
357 ,67.3789 ,1.36774 ,0.14131 ,1.38655 
358 ,67.5555 ,1.36956 ,0.12420 ,1.21866 
359 ,67.7475 ,1.37149 ,0.12420 ,1.21866 
360 ,67.9393 ,1.37335 ,0.11051 ,1.08435 
361 ,68.1152 ,1.37515 ,0.09682 ,0.95004 
362 ,68.2917 ,1.37689 ,0.08314 ,0.81572 
363 ,68.4995 ,1.37892 ,0.07629 ,0.74857 
364 ,68.6918 ,1.38083 ,0.06260 ,0.61425 
365 ,68.8839 ,1.38283 ,0.05918 ,0.58067 
366 ,69.0921 ,1.38487 ,0.04891 ,0.47994 
367 ,69.2681 ,1.38675 ,0.04549 ,0.44636 
368 ,69.4759 ,1.38872 ,0.01811 ,0.17773 
369 ,69.6684 ,1.39065 ,0.01127 ,0.11058 
370 ,69.8442 ,1.39245 ,0.01811 ,0.17773 
371 ,70.0359 ,1.39430 ,0.00100 ,0.00984 
372 ,70.2122 ,1.39616 ,-0.02980 ,-0.29236 
373 ,70.4043 ,1.39801 ,-0.01611 ,-0.15805 
374 ,70.6126 ,1.40010 ,-0.02980 ,-0.29236 
375 ,70.8043 ,1.40204 ,-0.03322 ,-0.32594 
376 ,70.9807 ,1.40377 ,-0.05033 ,-0.49383 
377 ,71.1725 ,1.40565 ,-0.07428 ,-0.72888 
378 ,71.3485 ,1.40750 ,-0.07771 ,-0.76246 
379 ,71.5249 ,1.40927 ,-0.06744 ,-0.66172 
380 ,71.7330 ,1.41128 ,-0.08455 ,-0.82961 
381 ,71.9569 ,1.41352 ,-0.10851 ,-1.06466 
382 ,72.1491 ,1.41545 ,-0.11877 ,-1.16540 
383 ,72.3411 ,1.41731 ,-0.12562 ,-1.23255 
384 ,72.5334 ,1.41927 ,-0.13246 ,-1.29971 
385 ,72.7253 ,1.42122 ,-0.12562 ,-1.23255 
386 ,72.9336 ,1.42329 ,-0.14957 ,-1.46760 
387 ,73.1416 ,1.42524 ,-0.15984 ,-1.56834 
388 ,73.3495 ,1.42733 ,-0.16668 ,-1.63549 
389 ,73.5258 ,1.42928 ,-0.18722 ,-1.83696 
390 ,73.7018 ,1.43101 ,-0.18722 ,-1.83696 
391 ,73.8939 ,1.43295 ,-0.21802 ,-2.13917 
392 ,74.0699 ,1.43472 ,-0.21802 ,-2.13917 
393 ,74.2618 ,1.43654 ,-0.21459 ,-2.10559 
394 ,74.4542 ,1.43853 ,-0.24539 ,-2.40779 
395 ,74.6460 ,1.44039 ,-0.22828 ,-2.23990 
396 ,74.8542 ,1.44250 ,-0.25566 ,-2.50853 
397 ,75.0303 ,1.44426 ,-0.26935 ,-2.64284 
398 ,75.2064 ,1.44603 ,-0.26593 ,-2.60926 
399 ,75.3984 ,1.44792 ,-0.27619 ,-2.71000 
400 ,75.6062 ,1.44998 ,-0.28646 ,-2.81073 
401 ,75.7827 ,1.45183 ,-0.28646 ,-2.81073 
402 ,75.9748 ,1.45371 ,-0.30357 ,-2.97863 
403 ,76.1669 ,1.45557 ,-0.30357 ,-2.97863 
404 ,76.3589 ,1.45757 ,-0.33095 ,-3.24725 
405 ,76.5349 ,1.45931 ,-0.34464 ,-3.38156 
406 ,76.7107 ,1.46107 ,-0.34121 ,-3.34799 
407 ,76.9032 ,1.46295 ,-0.35490 ,-3.48230 
408 ,77.0953 ,1.46493 ,-0.36175 ,-3.54946 
409 ,77.2872 ,1.46675 ,-0.36859 ,-3.61661 
410 ,77.4635 ,1.46859 ,-0.36859 ,-3.61661 
411 ,77.6555 ,1.47048 ,-0.39597 ,-3.88524 
412 ,77.8634 ,1.47255 ,-0.39939 ,-3.91882 
413 ,78.0557 ,1.47439 ,-0.39939 ,-3.91882 
414 ,78.2477 ,1.47642 ,-0.41308 ,-4.05313 
415 ,78.4398 ,1.47830 ,-0.42335 ,-4.15387 
416 ,78.6158 ,1.48015 ,-0.44046 ,-4.32176 
417 ,78.7920 ,1.48187 ,-0.44388 ,-4.35534 
418 ,78.9839 ,1.48388 ,-0.44730 ,-4.38891 
419 ,79.1761 ,1.48573 ,-0.47126 ,-4.62396 
420 ,79.3680 ,1.48758 ,-0.48152 ,-4.72470 
421 ,79.5442 ,1.48939 ,-0.47468 ,-4.65754 
422 ,79.7363 ,1.49128 ,-0.49179 ,-4.82543 
423 ,79.9281 ,1.49322 ,-0.49863 ,-4.89259 
424 ,80.1205 ,1.49509 ,-0.51574 ,-5.06048 
425 ,80.3125 ,1.49708 ,-0.51917 ,-5.09406 
426 ,80.5206 ,1.49901 ,-0.51232 ,-5.02690 
427 ,80.6967 ,1.50096 ,-0.53285 ,-5.22837 
428 ,80.8885 ,1.50286 ,-0.55339 ,-5.42984 
429 ,81.0650 ,1.50468 ,-0.53628 ,-5.26195 
430 ,81.2410 ,1.50637 ,-0.54997 ,-5.39626 
431 ,81.4169 ,1.50813 ,-0.57050 ,-5.59773 
432 ,81.5927 ,1.50984 ,-0.58761 ,-5.76562 
433 ,81.7851 ,1.51175 ,-0.59445 ,-5.83278 
434 ,81.9612 ,1.51357 ,-0.57392 ,-5.63131 
435 ,82.1373 ,1.51530 ,-0.58077 ,-5.69847 
436 ,82.3292 ,1.51716 ,-0.60814 ,-5.96709 
437 ,82.5054 ,1.51898 ,-0.62183 ,-6.10141 
438 ,82.6814 ,1.52077 ,-0.61499 ,-6.03425 
439 ,82.8734 ,1.52259 ,-0.63552 ,-6.23572 
440 ,83.0659 ,1.52457 ,-0.63894 ,-6.26930 
441 ,83.2576 ,1.52647 ,-0.65263 ,-6.40361 
442 ,83.4498 ,1.52844 ,-0.66974 ,-6.57150 
443 ,83.6419 ,1.53032 ,-0.67316 ,-6.60508 
444 ,83.8335 ,1.53226 ,-0.68001 ,-6.67224 
445 ,84.0101 ,1.53406 ,-0.69027 ,-6.77297 
446 ,84.2178 ,1.53605 ,-0.69712 ,-6.84013 
447 ,84.3943 ,1.53788 ,-0.70396 ,-6.90729 
448 ,84.5863 ,1.53981 ,-0.71765 ,-7.04160 
449 ,84.7785 ,1.54173 ,-0.71423 ,-7.00802 
450 ,84.9706 ,1.54367 ,-0.73818 ,-7.24307 
451 ,85.1627 ,1.54549 ,-0.72450 ,-7.10876 
452 ,85.3382 ,1.54739 ,-0.74845 ,-7.34380 
453 ,85.5147 ,1.54909 ,-0.75187 ,-7.37738 
454 ,85.7068 ,1.55096 ,-0.76898 ,-7.54527 
455 ,85.8989 ,1.55285 ,-0.77583 ,-7.61243 
456 ,86.1230 ,1.55499 ,-0.79978 ,-7.84748 
457 ,86.3151 ,1.55703 ,-0.79636 ,-7.81390 
458 ,86.4911 ,1.55891 ,-0.80663 ,-7.91464 
459 ,86.6832 ,1.56074 ,-0.82032 ,-8.04895 
460 ,86.8912 ,1.56266 ,-0.82032 ,-8.04895 
461 ,87.0991 ,1.56483 ,-0.82032 ,-8.04895 
462 ,87.2914 ,1.56676 ,-0.83743 ,-8.21684 
463 ,87.4832 ,1.56874 ,-0.85796 ,-8.41831 
