Data stamp = , 25-04-2022 09:02:17 132

Calibration Values: 
Slope = , 26.54 , g/V 
Offset Voltage at no contact = , -0.501760 , V 

No , Time , Stage Position ,   Mass , Force 
   ,  (s) ,      (mm)      ,   (g)  , (mN)  

1 ,0.0000 ,0.69942 ,5.22665 ,51.28391 
2 ,0.2200 ,0.69951 ,5.20954 ,51.11602 
3 ,0.6845 ,0.70091 ,5.22665 ,51.28391 
4 ,0.8927 ,0.70315 ,5.24376 ,51.45180 
5 ,1.0844 ,0.70508 ,5.21981 ,51.21675 
6 ,1.2606 ,0.70683 ,5.23350 ,51.35107 
7 ,1.4687 ,0.70874 ,5.25061 ,51.51896 
8 ,1.6449 ,0.71069 ,5.21296 ,51.14960 
9 ,1.8209 ,0.71241 ,5.19927 ,51.01528 
10 ,1.9972 ,0.71420 ,5.19585 ,50.98170 
11 ,2.2051 ,0.71623 ,5.17190 ,50.74666 
12 ,2.3815 ,0.71804 ,5.16505 ,50.67950 
13 ,2.5734 ,0.71990 ,5.14794 ,50.51161 
14 ,2.7655 ,0.72180 ,5.13083 ,50.34372 
15 ,2.9572 ,0.72371 ,5.12399 ,50.27656 
16 ,3.1336 ,0.72554 ,5.11030 ,50.14225 
17 ,3.3097 ,0.72731 ,5.09661 ,50.00793 
18 ,3.5177 ,0.72936 ,5.07265 ,49.77289 
19 ,3.7099 ,0.73127 ,5.04870 ,49.53784 
20 ,3.9016 ,0.73322 ,5.02474 ,49.30279 
21 ,4.0938 ,0.73515 ,5.03159 ,49.36995 
22 ,4.2697 ,0.73694 ,4.99737 ,49.03416 
23 ,4.4621 ,0.73878 ,4.97683 ,48.83269 
24 ,4.6380 ,0.74057 ,4.98026 ,48.86627 
25 ,4.8144 ,0.74233 ,4.95288 ,48.59764 
26 ,5.0063 ,0.74417 ,4.91866 ,48.26186 
27 ,5.1984 ,0.74614 ,4.91866 ,48.26186 
28 ,5.3900 ,0.74802 ,4.87417 ,47.82534 
29 ,5.5665 ,0.74991 ,4.88101 ,47.89250 
30 ,5.7427 ,0.75165 ,4.86048 ,47.69103 
31 ,5.9507 ,0.75367 ,4.83995 ,47.48956 
32 ,6.1269 ,0.75544 ,4.81599 ,47.25451 
33 ,6.3188 ,0.75733 ,4.81257 ,47.22093 
34 ,6.4945 ,0.75920 ,4.78177 ,46.91873 
35 ,6.6869 ,0.76095 ,4.75782 ,46.68368 
36 ,6.8788 ,0.76293 ,4.75097 ,46.61653 
37 ,7.0552 ,0.76472 ,4.74755 ,46.58295 
38 ,7.2313 ,0.76650 ,4.70648 ,46.18001 
39 ,7.4394 ,0.76860 ,4.70648 ,46.18001 
40 ,7.6154 ,0.77036 ,4.68253 ,45.94496 
41 ,7.8077 ,0.77227 ,4.65857 ,45.70991 
42 ,8.0155 ,0.77430 ,4.62777 ,45.40771 
43 ,8.2238 ,0.77622 ,4.62093 ,45.34055 
44 ,8.4157 ,0.77829 ,4.57986 ,44.93761 
45 ,8.6077 ,0.78020 ,4.57644 ,44.90403 
46 ,8.8321 ,0.78234 ,4.55933 ,44.73614 
47 ,9.0400 ,0.78453 ,4.54564 ,44.60183 
48 ,9.2322 ,0.78641 ,4.52169 ,44.36678 
49 ,9.4241 ,0.78833 ,4.52169 ,44.36678 
50 ,9.6001 ,0.79016 ,4.49431 ,44.09815 
51 ,9.7764 ,0.79188 ,4.46009 ,43.76237 
52 ,9.9524 ,0.79371 ,4.43271 ,43.49374 
53 ,10.1284 ,0.79543 ,4.44298 ,43.59448 
54 ,10.3205 ,0.79728 ,4.40875 ,43.25870 
55 ,10.4964 ,0.79915 ,4.39164 ,43.09080 
56 ,10.7044 ,0.80116 ,4.37111 ,42.88933 
57 ,10.8968 ,0.80310 ,4.36769 ,42.85576 
58 ,11.1207 ,0.80526 ,4.35400 ,42.72144 
59 ,11.3129 ,0.80725 ,4.31293 ,42.31850 
60 ,11.4886 ,0.80902 ,4.31978 ,42.38566 
61 ,11.6649 ,0.81078 ,4.29924 ,42.18419 
62 ,11.8568 ,0.81270 ,4.26502 ,41.84841 
63 ,12.0492 ,0.81458 ,4.26845 ,41.88198 
64 ,12.2414 ,0.81665 ,4.24107 ,41.61336 
65 ,12.4333 ,0.81851 ,4.21027 ,41.31115 
66 ,12.6095 ,0.82024 ,4.20342 ,41.24400 
67 ,12.8174 ,0.82232 ,4.18631 ,41.07611 
68 ,12.9931 ,0.82410 ,4.16578 ,40.87464 
69 ,13.1533 ,0.82582 ,4.14867 ,40.70674 
70 ,13.3296 ,0.82750 ,4.13156 ,40.53885 
71 ,13.5219 ,0.82936 ,4.12471 ,40.47170 
72 ,13.7299 ,0.83140 ,4.09734 ,40.20307 
73 ,13.9220 ,0.83339 ,4.08023 ,40.03518 
74 ,14.1141 ,0.83522 ,4.06996 ,39.93444 
75 ,14.3222 ,0.83726 ,4.04600 ,39.69940 
76 ,14.5302 ,0.83938 ,4.03232 ,39.56508 
77 ,14.7063 ,0.84124 ,4.00836 ,39.33003 
78 ,14.9145 ,0.84320 ,3.97414 ,38.99425 
79 ,15.1062 ,0.84522 ,3.96387 ,38.89352 
80 ,15.2984 ,0.84706 ,3.95361 ,38.79278 
81 ,15.5064 ,0.84917 ,3.93992 ,38.65847 
82 ,15.6824 ,0.85101 ,3.90570 ,38.32268 
83 ,15.8587 ,0.85273 ,3.89543 ,38.22195 
84 ,16.0510 ,0.85462 ,3.88858 ,38.15479 
85 ,16.2429 ,0.85650 ,3.86121 ,37.88617 
86 ,16.4190 ,0.85840 ,3.85094 ,37.78543 
87 ,16.6269 ,0.86040 ,3.83383 ,37.61754 
88 ,16.8192 ,0.86225 ,3.79961 ,37.28176 
89 ,17.0108 ,0.86430 ,3.80645 ,37.34891 
90 ,17.1875 ,0.86601 ,3.77223 ,37.01313 
91 ,17.3634 ,0.86784 ,3.76539 ,36.94597 
92 ,17.5556 ,0.86967 ,3.75512 ,36.84524 
93 ,17.7473 ,0.87155 ,3.71748 ,36.47588 
94 ,17.9394 ,0.87347 ,3.72090 ,36.50946 
95 ,18.1475 ,0.87558 ,3.67983 ,36.10652 
96 ,18.3395 ,0.87761 ,3.68325 ,36.14010 
97 ,18.5319 ,0.87942 ,3.65588 ,35.87147 
98 ,18.7079 ,0.88128 ,3.63534 ,35.67000 
99 ,18.8841 ,0.88299 ,3.61823 ,35.50211 
100 ,19.0762 ,0.88485 ,3.61481 ,35.46853 
101 ,19.2682 ,0.88684 ,3.59428 ,35.26706 
102 ,19.4439 ,0.88860 ,3.55663 ,34.89770 
103 ,19.6523 ,0.89049 ,3.57375 ,35.06559 
104 ,19.8284 ,0.89240 ,3.53268 ,34.66265 
105 ,20.0206 ,0.89428 ,3.53610 ,34.69623 
106 ,20.2126 ,0.89618 ,3.51215 ,34.46118 
107 ,20.3883 ,0.89799 ,3.48477 ,34.19255 
108 ,20.5643 ,0.89975 ,3.48135 ,34.15898 
109 ,20.7408 ,0.90154 ,3.47450 ,34.09182 
110 ,20.9169 ,0.90326 ,3.45055 ,33.85677 
111 ,21.0927 ,0.90505 ,3.42317 ,33.58814 
112 ,21.2691 ,0.90680 ,3.39237 ,33.28594 
113 ,21.4609 ,0.90873 ,3.39237 ,33.28594 
114 ,21.6528 ,0.91071 ,3.37868 ,33.15163 
115 ,21.8293 ,0.91244 ,3.34446 ,32.81584 
116 ,22.0373 ,0.91441 ,3.35130 ,32.88300 
117 ,22.2294 ,0.91634 ,3.33077 ,32.68153 
118 ,22.4057 ,0.91817 ,3.29997 ,32.37933 
119 ,22.6134 ,0.92017 ,3.28971 ,32.27859 
120 ,22.8057 ,0.92217 ,3.28286 ,32.21143 
121 ,22.9977 ,0.92408 ,3.26233 ,32.00996 
122 ,23.1739 ,0.92588 ,3.24180 ,31.80849 
123 ,23.3660 ,0.92776 ,3.23837 ,31.77492 
124 ,23.5578 ,0.92964 ,3.20073 ,31.40555 
125 ,23.7338 ,0.93148 ,3.17335 ,31.13693 
126 ,23.9102 ,0.93327 ,3.16993 ,31.10335 
127 ,24.1022 ,0.93524 ,3.15282 ,30.93546 
128 ,24.2785 ,0.93689 ,3.14597 ,30.86830 
129 ,24.4706 ,0.93878 ,3.11860 ,30.59968 
130 ,24.6628 ,0.94068 ,3.11860 ,30.59968 
131 ,24.8543 ,0.94270 ,3.10149 ,30.43178 
132 ,25.0467 ,0.94455 ,3.07411 ,30.16316 
133 ,25.2548 ,0.94667 ,3.05358 ,29.96169 
134 ,25.4307 ,0.94837 ,3.03304 ,29.76022 
135 ,25.6067 ,0.95017 ,3.03647 ,29.79380 
136 ,25.7832 ,0.95196 ,3.00567 ,29.49159 
137 ,25.9747 ,0.95390 ,2.99882 ,29.42444 
138 ,26.1512 ,0.95565 ,2.97144 ,29.15581 
139 ,26.3433 ,0.95748 ,2.96802 ,29.12223 
140 ,26.5194 ,0.95928 ,2.95433 ,28.98792 
141 ,26.7112 ,0.96121 ,2.94407 ,28.88718 
142 ,26.9035 ,0.96311 ,2.93380 ,28.78645 
143 ,27.0791 ,0.96490 ,2.88931 ,28.34993 
144 ,27.2557 ,0.96667 ,2.87562 ,28.21562 
145 ,27.4638 ,0.96874 ,2.87905 ,28.24919 
146 ,27.6559 ,0.97062 ,2.85509 ,28.01415 
147 ,27.8478 ,0.97257 ,2.84140 ,27.87983 
148 ,28.0400 ,0.97445 ,2.81060 ,27.57763 
149 ,28.2321 ,0.97636 ,2.80376 ,27.51047 
150 ,28.4562 ,0.97849 ,2.79691 ,27.44332 
151 ,28.6322 ,0.98040 ,2.77638 ,27.24185 
152 ,28.8243 ,0.98220 ,2.77638 ,27.24185 
153 ,29.0166 ,0.98417 ,2.75585 ,27.04038 
154 ,29.2240 ,0.98631 ,2.72847 ,26.77175 
155 ,29.4326 ,0.98828 ,2.70452 ,26.53670 
156 ,29.6406 ,0.99047 ,2.68740 ,26.36881 
157 ,29.8487 ,0.99241 ,2.68740 ,26.36881 
158 ,30.0405 ,0.99451 ,2.64634 ,25.96587 
159 ,30.2328 ,0.99637 ,2.64634 ,25.96587 
160 ,30.4248 ,0.99834 ,2.63265 ,25.83156 
161 ,30.6329 ,1.00035 ,2.61896 ,25.69724 
162 ,30.7929 ,1.00211 ,2.59843 ,25.49577 
163 ,30.9688 ,1.00376 ,2.58816 ,25.39504 
164 ,31.1452 ,1.00555 ,2.57105 ,25.22715 
165 ,31.3529 ,1.00764 ,2.56078 ,25.12641 
166 ,31.5293 ,1.00943 ,2.54710 ,24.99210 
167 ,31.7535 ,1.01147 ,2.51630 ,24.68989 
168 ,31.9454 ,1.01361 ,2.48550 ,24.38769 
169 ,32.1217 ,1.01532 ,2.47865 ,24.32053 
170 ,32.3136 ,1.01721 ,2.48892 ,24.42127 
171 ,32.5053 ,1.01909 ,2.44785 ,24.01833 
172 ,32.6820 ,1.02092 ,2.43074 ,23.85044 
173 ,32.8740 ,1.02283 ,2.41705 ,23.71612 
174 ,33.0660 ,1.02471 ,2.39994 ,23.54823 
175 ,33.2581 ,1.02664 ,2.40679 ,23.61539 
176 ,33.4503 ,1.02854 ,2.38968 ,23.44750 
177 ,33.6423 ,1.03045 ,2.36230 ,23.17887 
178 ,33.8342 ,1.03243 ,2.36572 ,23.21245 
179 ,34.0265 ,1.03430 ,2.32465 ,22.80951 
180 ,34.2344 ,1.03638 ,2.32808 ,22.84309 
181 ,34.4107 ,1.03814 ,2.31781 ,22.74235 
182 ,34.6182 ,1.04035 ,2.28701 ,22.44015 
183 ,34.8268 ,1.04230 ,2.24937 ,22.07079 
184 ,35.0186 ,1.04424 ,2.26306 ,22.20510 
185 ,35.2269 ,1.04618 ,2.22199 ,21.80216 
186 ,35.4188 ,1.04822 ,2.22883 ,21.86932 
187 ,35.5951 ,1.05002 ,2.22199 ,21.80216 
188 ,35.7551 ,1.05173 ,2.19119 ,21.49996 
189 ,35.9312 ,1.05342 ,2.19461 ,21.53353 
190 ,36.1391 ,1.05537 ,2.16039 ,21.19775 
191 ,36.3315 ,1.05741 ,2.16381 ,21.23133 
192 ,36.5235 ,1.05922 ,2.12959 ,20.89555 
193 ,36.7152 ,1.06112 ,2.12275 ,20.82839 
194 ,36.9073 ,1.06308 ,2.08852 ,20.49261 
195 ,37.0997 ,1.06508 ,2.09537 ,20.55976 
196 ,37.2914 ,1.06700 ,2.07484 ,20.35829 
197 ,37.4679 ,1.06874 ,2.05088 ,20.12325 
198 ,37.6758 ,1.07079 ,2.04404 ,20.05609 
199 ,37.8516 ,1.07259 ,2.04061 ,20.02251 
200 ,38.0440 ,1.07442 ,2.00639 ,19.68673 
201 ,38.2202 ,1.07629 ,2.00639 ,19.68673 
202 ,38.4281 ,1.07827 ,1.99270 ,19.55241 
203 ,38.6043 ,1.08011 ,1.98244 ,19.45168 
204 ,38.7803 ,1.08183 ,1.96875 ,19.31737 
205 ,38.9560 ,1.08368 ,1.96190 ,19.25021 
206 ,39.1485 ,1.08549 ,1.93453 ,18.98158 
207 ,39.3405 ,1.08748 ,1.92426 ,18.88085 
208 ,39.5327 ,1.08939 ,1.90031 ,18.64580 
209 ,39.7245 ,1.09124 ,1.90715 ,18.71296 
210 ,39.9168 ,1.09318 ,1.87293 ,18.37717 
211 ,40.1088 ,1.09506 ,1.87293 ,18.37717 
212 ,40.3008 ,1.09699 ,1.85924 ,18.24286 
213 ,40.4772 ,1.09885 ,1.84213 ,18.07497 
214 ,40.8128 ,1.10150 ,1.82160 ,17.87350 
215 ,40.9894 ,1.10398 ,1.78737 ,17.53772 
216 ,41.1812 ,1.10591 ,1.77711 ,17.43698 
217 ,41.3734 ,1.10773 ,1.76684 ,17.33625 
218 ,41.5495 ,1.10955 ,1.73604 ,17.03404 
219 ,41.7415 ,1.11140 ,1.75315 ,17.20193 
220 ,41.9496 ,1.11344 ,1.72920 ,16.96689 
221 ,42.1413 ,1.11535 ,1.72235 ,16.89973 
222 ,42.3338 ,1.11735 ,1.68129 ,16.49679 
223 ,42.5098 ,1.11927 ,1.68813 ,16.56395 
224 ,42.7015 ,1.12096 ,1.67102 ,16.39605 
225 ,42.8936 ,1.12293 ,1.65391 ,16.22816 
226 ,43.0697 ,1.12480 ,1.64707 ,16.16101 
227 ,43.2458 ,1.12647 ,1.63680 ,16.06027 
228 ,43.4221 ,1.12824 ,1.61969 ,15.89238 
229 ,43.6299 ,1.13025 ,1.60600 ,15.75807 
230 ,43.8219 ,1.13235 ,1.57862 ,15.48944 
231 ,44.0139 ,1.13412 ,1.56151 ,15.32155 
232 ,44.2060 ,1.13603 ,1.56151 ,15.32155 
233 ,44.3983 ,1.13796 ,1.53071 ,15.01934 
234 ,44.5903 ,1.13982 ,1.52729 ,14.98577 
235 ,44.7667 ,1.14169 ,1.51018 ,14.81787 
236 ,44.9428 ,1.14348 ,1.52387 ,14.95219 
237 ,45.1191 ,1.14520 ,1.48280 ,14.54925 
238 ,45.3110 ,1.14710 ,1.47938 ,14.51567 
239 ,45.5030 ,1.14908 ,1.47596 ,14.48209 
240 ,45.6790 ,1.15083 ,1.43831 ,14.11273 
241 ,45.8710 ,1.15265 ,1.45885 ,14.31420 
242 ,46.0794 ,1.15481 ,1.41436 ,13.87768 
243 ,46.2715 ,1.15670 ,1.41094 ,13.84410 
244 ,46.4635 ,1.15864 ,1.39040 ,13.64263 
245 ,46.6553 ,1.16059 ,1.38014 ,13.54190 
246 ,46.8474 ,1.16246 ,1.38698 ,13.60906 
247 ,47.0395 ,1.16441 ,1.34934 ,13.23969 
248 ,47.2158 ,1.16619 ,1.34249 ,13.17254 
249 ,47.4236 ,1.16822 ,1.33223 ,13.07180 
250 ,47.5995 ,1.17001 ,1.31854 ,12.93749 
251 ,47.7919 ,1.17188 ,1.33907 ,13.13896 
252 ,47.9842 ,1.17386 ,1.28432 ,12.60171 
253 ,48.1759 ,1.17575 ,1.28774 ,12.63528 
254 ,48.3843 ,1.17779 ,1.26378 ,12.40024 
255 ,48.5762 ,1.17972 ,1.26378 ,12.40024 
256 ,48.7681 ,1.18166 ,1.24325 ,12.19877 
257 ,48.9603 ,1.18361 ,1.22614 ,12.03088 
258 ,49.1686 ,1.18558 ,1.21929 ,11.96372 
259 ,49.3768 ,1.18773 ,1.19534 ,11.72867 
260 ,49.5528 ,1.18957 ,1.19534 ,11.72867 
261 ,49.7445 ,1.19138 ,1.17481 ,11.52720 
262 ,49.9529 ,1.19340 ,1.17823 ,11.56078 
263 ,50.1610 ,1.19555 ,1.14058 ,11.19142 
264 ,50.3531 ,1.19744 ,1.15085 ,11.29215 
265 ,50.5452 ,1.19945 ,1.13032 ,11.09068 
266 ,50.7371 ,1.20136 ,1.10294 ,10.82206 
267 ,50.9452 ,1.20343 ,1.09610 ,10.75490 
268 ,51.1372 ,1.20540 ,1.09610 ,10.75490 
269 ,51.3297 ,1.20735 ,1.08583 ,10.65416 
270 ,51.5216 ,1.20916 ,1.06187 ,10.41912 
271 ,51.7294 ,1.21120 ,1.05161 ,10.31838 
272 ,51.9213 ,1.21327 ,1.03108 ,10.11691 
273 ,52.1138 ,1.21512 ,1.03792 ,10.18407 
274 ,52.3059 ,1.21707 ,1.00028 ,9.81471 
275 ,52.4819 ,1.21881 ,0.99685 ,9.78113 
276 ,52.6577 ,1.22056 ,0.98317 ,9.64682 
277 ,52.8501 ,1.22242 ,0.97290 ,9.54608 
278 ,53.0422 ,1.22441 ,0.95921 ,9.41177 
279 ,53.2185 ,1.22618 ,0.95579 ,9.37819 
280 ,53.4103 ,1.22801 ,0.93183 ,9.14314 
281 ,53.5863 ,1.22987 ,0.91130 ,8.94167 
282 ,53.7782 ,1.23174 ,0.92841 ,9.10956 
283 ,53.9545 ,1.23354 ,0.91130 ,8.94167 
284 ,54.1466 ,1.23538 ,0.88050 ,8.63947 
285 ,54.3227 ,1.23723 ,0.88734 ,8.70662 
286 ,54.5148 ,1.23920 ,0.86339 ,8.47158 
287 ,54.6908 ,1.24092 ,0.84970 ,8.33726 
288 ,54.8827 ,1.24286 ,0.84970 ,8.33726 
289 ,55.0751 ,1.24474 ,0.84286 ,8.27011 
290 ,55.2834 ,1.24676 ,0.84286 ,8.27011 
291 ,55.4911 ,1.24882 ,0.79837 ,7.83359 
292 ,55.6991 ,1.25080 ,0.78126 ,7.66570 
293 ,55.8911 ,1.25281 ,0.79152 ,7.76643 
294 ,56.0836 ,1.25484 ,0.76415 ,7.49780 
295 ,56.2751 ,1.25666 ,0.76072 ,7.46423 
296 ,56.4516 ,1.25853 ,0.72992 ,7.16202 
297 ,56.6435 ,1.26036 ,0.74704 ,7.32991 
298 ,56.8357 ,1.26227 ,0.72308 ,7.09486 
299 ,57.0118 ,1.26411 ,0.71966 ,7.06129 
300 ,57.2039 ,1.26600 ,0.72308 ,7.09486 
301 ,57.3960 ,1.26791 ,0.69228 ,6.79266 
302 ,57.5882 ,1.26987 ,0.65464 ,6.42330 
303 ,57.7801 ,1.27175 ,0.65121 ,6.38972 
304 ,57.9563 ,1.27354 ,0.65464 ,6.42330 
305 ,58.1483 ,1.27551 ,0.63410 ,6.22183 
306 ,58.3404 ,1.27736 ,0.63410 ,6.22183 
307 ,58.5644 ,1.27946 ,0.61699 ,6.05394 
308 ,58.7725 ,1.28163 ,0.60673 ,5.95320 
309 ,58.9645 ,1.28360 ,0.58962 ,5.78531 
310 ,59.1406 ,1.28535 ,0.57593 ,5.65100 
311 ,59.3006 ,1.28712 ,0.56224 ,5.51668 
312 ,59.4924 ,1.28887 ,0.54513 ,5.34879 
313 ,59.6850 ,1.29077 ,0.55539 ,5.44953 
314 ,59.8768 ,1.29272 ,0.52117 ,5.11375 
315 ,60.0691 ,1.29459 ,0.53144 ,5.21448 
316 ,60.2771 ,1.29671 ,0.51433 ,5.04659 
317 ,60.4533 ,1.29855 ,0.50064 ,4.91228 
318 ,60.6451 ,1.30042 ,0.49722 ,4.87870 
319 ,60.8211 ,1.30221 ,0.48011 ,4.71081 
320 ,61.0134 ,1.30415 ,0.47668 ,4.67723 
321 ,61.2216 ,1.30607 ,0.45615 ,4.47576 
322 ,61.4296 ,1.30820 ,0.46642 ,4.57649 
323 ,61.6215 ,1.31023 ,0.42877 ,4.20713 
324 ,61.8618 ,1.31243 ,0.42535 ,4.17355 
325 ,62.0537 ,1.31453 ,0.41166 ,4.03924 
326 ,62.2300 ,1.31625 ,0.40140 ,3.93850 
327 ,62.4219 ,1.31816 ,0.38429 ,3.77061 
328 ,62.6141 ,1.32006 ,0.37060 ,3.63630 
329 ,62.8061 ,1.32209 ,0.35349 ,3.46841 
330 ,62.9822 ,1.32378 ,0.35349 ,3.46841 
331 ,63.1582 ,1.32555 ,0.32953 ,3.23336 
332 ,63.3344 ,1.32734 ,0.31584 ,3.09905 
333 ,63.5104 ,1.32915 ,0.33295 ,3.26694 
334 ,63.6868 ,1.33084 ,0.32953 ,3.23336 
335 ,63.8621 ,1.33270 ,0.28504 ,2.79684 
336 ,64.0385 ,1.33435 ,0.27478 ,2.69611 
337 ,64.2307 ,1.33626 ,0.30215 ,2.96473 
338 ,64.4229 ,1.33820 ,0.27135 ,2.66253 
339 ,64.5988 ,1.33995 ,0.25424 ,2.49464 
340 ,64.8069 ,1.34199 ,0.25082 ,2.46106 
341 ,64.9829 ,1.34379 ,0.23371 ,2.29317 
342 ,65.1588 ,1.34553 ,0.21660 ,2.12528 
343 ,65.3511 ,1.34745 ,0.21660 ,2.12528 
344 ,65.5429 ,1.34927 ,0.21318 ,2.09170 
345 ,65.7353 ,1.35130 ,0.20976 ,2.05812 
346 ,65.9431 ,1.35333 ,0.17553 ,1.72234 
347 ,66.1355 ,1.35528 ,0.18922 ,1.85665 
348 ,66.3271 ,1.35726 ,0.16185 ,1.58802 
349 ,66.5034 ,1.35901 ,0.14816 ,1.45371 
350 ,66.6954 ,1.36093 ,0.13789 ,1.35298 
351 ,66.8715 ,1.36268 ,0.14816 ,1.45371 
352 ,67.0474 ,1.36440 ,0.12420 ,1.21866 
353 ,67.2400 ,1.36630 ,0.11393 ,1.11793 
354 ,67.4478 ,1.36834 ,0.10367 ,1.01719 
355 ,67.6401 ,1.37028 ,0.08314 ,0.81572 
356 ,67.8161 ,1.37217 ,0.08656 ,0.84930 
357 ,67.9922 ,1.37388 ,0.06945 ,0.68141 
358 ,68.1838 ,1.37571 ,0.05576 ,0.54710 
359 ,68.3603 ,1.37757 ,0.04549 ,0.44636 
360 ,68.5683 ,1.37956 ,0.03180 ,0.31205 
361 ,68.7445 ,1.38141 ,0.01127 ,0.11058 
362 ,68.9527 ,1.38342 ,0.01811 ,0.17773 
363 ,69.1447 ,1.38541 ,0.00100 ,0.00984 
364 ,69.3365 ,1.38720 ,0.01127 ,0.11058 
365 ,69.5128 ,1.38907 ,0.00785 ,0.07700 
366 ,69.7046 ,1.39099 ,-0.03664 ,-0.35952 
367 ,69.8809 ,1.39275 ,-0.04348 ,-0.42667 
368 ,70.0567 ,1.39450 ,-0.02637 ,-0.25878 
369 ,70.2490 ,1.39643 ,-0.06744 ,-0.66172 
370 ,70.4251 ,1.39818 ,-0.06744 ,-0.66172 
371 ,70.6013 ,1.39994 ,-0.07086 ,-0.69530 
372 ,70.7934 ,1.40182 ,-0.08113 ,-0.79604 
373 ,70.9855 ,1.40377 ,-0.10851 ,-1.06466 
374 ,71.1935 ,1.40575 ,-0.10166 ,-0.99751 
375 ,71.3691 ,1.40774 ,-0.13246 ,-1.29971 
376 ,71.5454 ,1.40941 ,-0.13588 ,-1.33329 
377 ,71.7376 ,1.41125 ,-0.13246 ,-1.29971 
378 ,71.9297 ,1.41325 ,-0.15984 ,-1.56834 
379 ,72.1383 ,1.41521 ,-0.15642 ,-1.53476 
380 ,72.3299 ,1.41720 ,-0.18379 ,-1.80338 
381 ,72.5056 ,1.41909 ,-0.17011 ,-1.66907 
382 ,72.6979 ,1.42084 ,-0.18379 ,-1.80338 
383 ,72.9380 ,1.42307 ,-0.20433 ,-2.00485 
384 ,73.1302 ,1.42526 ,-0.22144 ,-2.17275 
385 ,73.3063 ,1.42702 ,-0.21459 ,-2.10559 
386 ,73.4825 ,1.42875 ,-0.22486 ,-2.20632 
387 ,73.6420 ,1.43047 ,-0.23855 ,-2.34064 
388 ,73.8186 ,1.43209 ,-0.23513 ,-2.30706 
389 ,74.0106 ,1.43394 ,-0.25566 ,-2.50853 
390 ,74.2028 ,1.43598 ,-0.26935 ,-2.64284 
391 ,74.3947 ,1.43785 ,-0.28646 ,-2.81073 
392 ,74.6030 ,1.43982 ,-0.28304 ,-2.77716 
393 ,74.7947 ,1.44183 ,-0.31041 ,-3.04578 
394 ,74.9869 ,1.44377 ,-0.30015 ,-2.94505 
395 ,75.1790 ,1.44572 ,-0.29673 ,-2.91147 
396 ,75.3552 ,1.44746 ,-0.32410 ,-3.18010 
397 ,75.5632 ,1.44954 ,-0.31726 ,-3.11294 
398 ,75.7550 ,1.45148 ,-0.35148 ,-3.44872 
399 ,75.9632 ,1.45345 ,-0.34121 ,-3.34799 
400 ,76.1713 ,1.45554 ,-0.35490 ,-3.48230 
401 ,76.3633 ,1.45748 ,-0.36175 ,-3.54946 
402 ,76.5396 ,1.45929 ,-0.37886 ,-3.71735 
403 ,76.6992 ,1.46104 ,-0.39255 ,-3.85166 
404 ,76.8754 ,1.46264 ,-0.39597 ,-3.88524 
405 ,77.0838 ,1.46463 ,-0.40281 ,-3.95240 
406 ,77.2915 ,1.46680 ,-0.41992 ,-4.12029 
407 ,77.4679 ,1.46858 ,-0.43019 ,-4.22102 
408 ,77.6600 ,1.47050 ,-0.44046 ,-4.32176 
409 ,77.8361 ,1.47226 ,-0.45072 ,-4.42249 
410 ,78.0117 ,1.47403 ,-0.46441 ,-4.55681 
411 ,78.1884 ,1.47578 ,-0.46099 ,-4.52323 
412 ,78.3805 ,1.47764 ,-0.47126 ,-4.62396 
413 ,78.5724 ,1.47959 ,-0.47810 ,-4.69112 
414 ,78.7806 ,1.48162 ,-0.49863 ,-4.89259 
415 ,78.9727 ,1.48357 ,-0.50548 ,-4.95975 
416 ,79.1806 ,1.48566 ,-0.50890 ,-4.99332 
417 ,79.3728 ,1.48763 ,-0.51917 ,-5.09406 
418 ,79.5650 ,1.48951 ,-0.52943 ,-5.19479 
419 ,79.7729 ,1.49158 ,-0.53285 ,-5.22837 
420 ,79.9651 ,1.49350 ,-0.54997 ,-5.39626 
421 ,80.1567 ,1.49538 ,-0.56365 ,-5.53058 
422 ,80.3492 ,1.49729 ,-0.58077 ,-5.69847 
423 ,80.5572 ,1.49942 ,-0.58077 ,-5.69847 
424 ,80.7495 ,1.50136 ,-0.58419 ,-5.73205 
425 ,80.9254 ,1.50321 ,-0.59103 ,-5.79920 
426 ,81.1016 ,1.50487 ,-0.59103 ,-5.79920 
427 ,81.2773 ,1.50666 ,-0.61841 ,-6.06783 
428 ,81.4537 ,1.50844 ,-0.61156 ,-6.00067 
429 ,81.6298 ,1.51020 ,-0.61499 ,-6.03425 
430 ,81.8219 ,1.51205 ,-0.64921 ,-6.37003 
431 ,81.9979 ,1.51392 ,-0.64236 ,-6.30288 
432 ,82.1902 ,1.51577 ,-0.63210 ,-6.20214 
433 ,82.3661 ,1.51755 ,-0.66290 ,-6.50435 
434 ,82.5580 ,1.51940 ,-0.68001 ,-6.67224 
435 ,82.7342 ,1.52131 ,-0.66974 ,-6.57150 
436 ,82.9100 ,1.52303 ,-0.68001 ,-6.67224 
437 ,83.0866 ,1.52476 ,-0.68343 ,-6.70582 
438 ,83.2786 ,1.52664 ,-0.68685 ,-6.73940 
439 ,83.4545 ,1.52850 ,-0.69712 ,-6.84013 
440 ,83.6465 ,1.53032 ,-0.71081 ,-6.97444 
441 ,83.8226 ,1.53214 ,-0.73134 ,-7.17591 
442 ,84.0148 ,1.53400 ,-0.72450 ,-7.10876 
443 ,84.2067 ,1.53597 ,-0.74161 ,-7.27665 
444 ,84.3829 ,1.53772 ,-0.76214 ,-7.47812 
445 ,84.5589 ,1.53950 ,-0.76214 ,-7.47812 
446 ,84.7349 ,1.54132 ,-0.77583 ,-7.61243 
447 ,84.9108 ,1.54295 ,-0.77583 ,-7.61243 
448 ,85.1031 ,1.54489 ,-0.79294 ,-7.78032 
449 ,85.2953 ,1.54683 ,-0.79636 ,-7.81390 
450 ,85.5031 ,1.54880 ,-0.82032 ,-8.04895 
451 ,85.6954 ,1.55081 ,-0.80663 ,-7.91464 
452 ,85.9195 ,1.55301 ,-0.82716 ,-8.11611 
453 ,86.0955 ,1.55483 ,-0.81689 ,-8.01537 
454 ,86.2717 ,1.55663 ,-0.84085 ,-8.25042 
455 ,86.4799 ,1.55862 ,-0.85112 ,-8.35115 
456 ,86.6878 ,1.56065 ,-0.87507 ,-8.58620 
457 ,86.8638 ,1.56250 ,-0.86823 ,-8.51904 
458 ,87.0399 ,1.56429 ,-0.89218 ,-8.75409 
459 ,87.2161 ,1.56603 ,-0.87507 ,-8.58620 
460 ,87.4240 ,1.56810 ,-0.87849 ,-8.61978 
461 ,87.6002 ,1.56983 ,-0.88534 ,-8.68694 
462 ,87.7763 ,1.57168 ,-0.90245 ,-8.85483 
463 ,87.9360 ,1.57333 ,-0.90587 ,-8.88841 
