Data stamp = , 24-04-2022 10:28:45 136

Calibration Values: 
Slope = , 26.54 , g/V 
Offset Voltage at no contact = , -0.501760 , V 

No , Time , Stage Position ,   Mass , Force 
   ,  (s) ,      (mm)      ,   (g)  , (mN)  

1 ,0.0000 ,0.69939 ,5.29852 ,51.98905 
2 ,0.2109 ,0.69948 ,5.31221 ,52.12337 
3 ,0.5314 ,0.70031 ,5.28825 ,51.88832 
4 ,0.7554 ,0.70192 ,5.30194 ,52.02263 
5 ,0.9640 ,0.70372 ,5.29852 ,51.98905 
6 ,1.1555 ,0.70566 ,5.31563 ,52.15694 
7 ,1.3637 ,0.70769 ,5.29510 ,51.95548 
8 ,1.5556 ,0.70961 ,5.31221 ,52.12337 
9 ,1.7319 ,0.71148 ,5.30878 ,52.08979 
10 ,1.9398 ,0.71352 ,5.28825 ,51.88832 
11 ,2.1159 ,0.71532 ,5.26430 ,51.65327 
12 ,2.2917 ,0.71715 ,5.23007 ,51.31749 
13 ,2.4841 ,0.71894 ,5.21981 ,51.21675 
14 ,2.6921 ,0.72108 ,5.22323 ,51.25033 
15 ,2.8683 ,0.72289 ,5.17190 ,50.74666 
16 ,3.0604 ,0.72477 ,5.14794 ,50.51161 
17 ,3.2365 ,0.72653 ,5.15479 ,50.57876 
18 ,3.4286 ,0.72838 ,5.13768 ,50.41087 
19 ,3.6043 ,0.73021 ,5.10003 ,50.04151 
20 ,3.7807 ,0.73193 ,5.07950 ,49.84004 
21 ,3.9728 ,0.73384 ,5.07265 ,49.77289 
22 ,4.1648 ,0.73582 ,5.05212 ,49.57142 
23 ,4.3568 ,0.73767 ,5.04528 ,49.50426 
24 ,4.5329 ,0.73949 ,5.02817 ,49.33637 
25 ,4.7089 ,0.74124 ,5.01448 ,49.20205 
26 ,4.9012 ,0.74313 ,4.97341 ,48.79911 
27 ,5.1095 ,0.74513 ,4.95972 ,48.66480 
28 ,5.3013 ,0.74716 ,4.93235 ,48.39618 
29 ,5.4929 ,0.74905 ,4.92550 ,48.32902 
30 ,5.7014 ,0.75098 ,4.91181 ,48.19471 
31 ,5.9096 ,0.75313 ,4.88786 ,47.95966 
32 ,6.1015 ,0.75516 ,4.86048 ,47.69103 
33 ,6.2776 ,0.75689 ,4.83995 ,47.48956 
34 ,6.4537 ,0.75872 ,4.83652 ,47.45598 
35 ,6.6618 ,0.76058 ,4.79888 ,47.08662 
36 ,6.8379 ,0.76251 ,4.78861 ,46.98589 
37 ,7.0300 ,0.76447 ,4.76466 ,46.75084 
38 ,7.2221 ,0.76630 ,4.74413 ,46.54937 
39 ,7.4138 ,0.76822 ,4.73044 ,46.41506 
40 ,7.6061 ,0.77017 ,4.73044 ,46.41506 
41 ,7.7819 ,0.77195 ,4.70306 ,46.14643 
42 ,7.9743 ,0.77383 ,4.67911 ,45.91138 
43 ,8.1662 ,0.77573 ,4.66542 ,45.77707 
44 ,8.3747 ,0.77781 ,4.65173 ,45.64275 
45 ,8.5662 ,0.77973 ,4.61408 ,45.27339 
46 ,8.7421 ,0.78160 ,4.60040 ,45.13908 
47 ,8.9345 ,0.78341 ,4.58328 ,44.97119 
48 ,9.1428 ,0.78549 ,4.56275 ,44.76972 
49 ,9.3347 ,0.78740 ,4.54906 ,44.63541 
50 ,9.5108 ,0.78930 ,4.54906 ,44.63541 
51 ,9.6869 ,0.79100 ,4.52511 ,44.40036 
52 ,9.8950 ,0.79297 ,4.49773 ,44.13173 
53 ,10.0870 ,0.79497 ,4.49431 ,44.09815 
54 ,10.2953 ,0.79695 ,4.45324 ,43.69521 
55 ,10.5035 ,0.79900 ,4.44298 ,43.59448 
56 ,10.7115 ,0.80115 ,4.43271 ,43.49374 
57 ,10.9033 ,0.80311 ,4.41218 ,43.29227 
58 ,11.0957 ,0.80508 ,4.38138 ,42.99007 
59 ,11.3038 ,0.80711 ,4.36427 ,42.82218 
60 ,11.4957 ,0.80905 ,4.33689 ,42.55355 
61 ,11.6719 ,0.81081 ,4.32662 ,42.45282 
62 ,11.8479 ,0.81265 ,4.31978 ,42.38566 
63 ,12.0237 ,0.81439 ,4.30951 ,42.28492 
64 ,12.2001 ,0.81614 ,4.27187 ,41.91556 
65 ,12.3760 ,0.81785 ,4.25133 ,41.71409 
66 ,12.5683 ,0.81970 ,4.24107 ,41.61336 
67 ,12.7601 ,0.82162 ,4.20000 ,41.21042 
68 ,12.9364 ,0.82345 ,4.20342 ,41.24400 
69 ,13.1121 ,0.82530 ,4.20685 ,41.27758 
70 ,13.2884 ,0.82705 ,4.18631 ,41.07611 
71 ,13.4806 ,0.82891 ,4.15894 ,40.80748 
72 ,13.6567 ,0.83070 ,4.13156 ,40.53885 
73 ,13.8647 ,0.83275 ,4.12814 ,40.50527 
74 ,14.0409 ,0.83448 ,4.11445 ,40.37096 
75 ,14.2328 ,0.83652 ,4.09049 ,40.13591 
76 ,14.3929 ,0.83814 ,4.07680 ,40.00160 
77 ,14.5691 ,0.83981 ,4.05627 ,39.80013 
78 ,14.7608 ,0.84165 ,4.04600 ,39.69940 
79 ,14.9208 ,0.84343 ,4.01178 ,39.36361 
80 ,15.0809 ,0.84505 ,4.00836 ,39.33003 
81 ,15.2568 ,0.84671 ,3.98098 ,39.06141 
82 ,15.4334 ,0.84844 ,3.96045 ,38.85994 
83 ,15.6096 ,0.85019 ,3.95703 ,38.82636 
84 ,15.7852 ,0.85199 ,3.94676 ,38.72562 
85 ,15.9621 ,0.85373 ,3.93307 ,38.59131 
86 ,16.1536 ,0.85563 ,3.89543 ,38.22195 
87 ,16.3292 ,0.85739 ,3.88858 ,38.15479 
88 ,16.5057 ,0.85913 ,3.87490 ,38.02048 
89 ,16.7136 ,0.86120 ,3.85094 ,37.78543 
90 ,16.9060 ,0.86311 ,3.84752 ,37.75185 
91 ,17.1141 ,0.86506 ,3.82014 ,37.48323 
92 ,17.2900 ,0.86706 ,3.78934 ,37.18102 
93 ,17.4823 ,0.86894 ,3.79961 ,37.28176 
94 ,17.6900 ,0.87093 ,3.76539 ,36.94597 
95 ,17.8662 ,0.87271 ,3.73801 ,36.67735 
96 ,18.0584 ,0.87461 ,3.72090 ,36.50946 
97 ,18.2341 ,0.87640 ,3.71405 ,36.44230 
98 ,18.4101 ,0.87826 ,3.70037 ,36.30799 
99 ,18.6021 ,0.88006 ,3.67983 ,36.10652 
100 ,18.7786 ,0.88191 ,3.66614 ,35.97220 
101 ,18.9866 ,0.88396 ,3.64219 ,35.73716 
102 ,19.1788 ,0.88582 ,3.62850 ,35.60284 
103 ,19.3548 ,0.88765 ,3.61139 ,35.43495 
104 ,19.5628 ,0.88959 ,3.60797 ,35.40137 
105 ,19.7712 ,0.89163 ,3.57032 ,35.03201 
106 ,19.9792 ,0.89380 ,3.55663 ,34.89770 
107 ,20.1551 ,0.89567 ,3.53610 ,34.69623 
108 ,20.3314 ,0.89740 ,3.50530 ,34.39402 
109 ,20.5232 ,0.89925 ,3.49846 ,34.32687 
110 ,20.6994 ,0.90119 ,3.48819 ,34.22613 
111 ,20.8914 ,0.90297 ,3.46766 ,34.02466 
112 ,21.0997 ,0.90507 ,3.46424 ,33.99108 
113 ,21.2915 ,0.90701 ,3.42659 ,33.62172 
114 ,21.4997 ,0.90898 ,3.41975 ,33.55457 
115 ,21.6755 ,0.91086 ,3.39237 ,33.28594 
116 ,21.8680 ,0.91269 ,3.38553 ,33.21878 
117 ,22.0759 ,0.91481 ,3.38210 ,33.18520 
118 ,22.2522 ,0.91664 ,3.35815 ,32.95016 
119 ,22.4441 ,0.91845 ,3.34446 ,32.81584 
120 ,22.6362 ,0.92040 ,3.33419 ,32.71511 
121 ,22.8283 ,0.92237 ,3.29655 ,32.34575 
122 ,23.0044 ,0.92406 ,3.29313 ,32.31217 
123 ,23.1804 ,0.92590 ,3.27602 ,32.14428 
124 ,23.3566 ,0.92765 ,3.27259 ,32.11070 
125 ,23.5646 ,0.92961 ,3.23495 ,31.74134 
126 ,23.7407 ,0.93149 ,3.23153 ,31.70776 
127 ,23.9168 ,0.93321 ,3.21784 ,31.57345 
128 ,24.1090 ,0.93515 ,3.20073 ,31.40555 
129 ,24.3010 ,0.93709 ,3.17677 ,31.17051 
130 ,24.4929 ,0.93902 ,3.17335 ,31.13693 
131 ,24.6851 ,0.94088 ,3.13913 ,30.80115 
132 ,24.8768 ,0.94289 ,3.12202 ,30.63325 
133 ,25.0693 ,0.94474 ,3.11175 ,30.53252 
134 ,25.2614 ,0.94668 ,3.09464 ,30.36463 
135 ,25.4370 ,0.94840 ,3.09122 ,30.33105 
136 ,25.6454 ,0.95034 ,3.05700 ,29.99527 
137 ,25.8372 ,0.95237 ,3.06042 ,30.02884 
138 ,26.0136 ,0.95417 ,3.05700 ,29.99527 
139 ,26.1898 ,0.95594 ,3.02962 ,29.72664 
140 ,26.3818 ,0.95783 ,3.01593 ,29.59233 
141 ,26.5739 ,0.95976 ,2.99198 ,29.35728 
142 ,26.7659 ,0.96168 ,2.96460 ,29.08865 
143 ,26.9420 ,0.96349 ,2.94064 ,28.85360 
144 ,27.1339 ,0.96538 ,2.94749 ,28.92076 
145 ,27.3257 ,0.96734 ,2.92696 ,28.71929 
146 ,27.5341 ,0.96932 ,2.92011 ,28.65213 
147 ,27.7103 ,0.97113 ,2.90985 ,28.55140 
148 ,27.9024 ,0.97312 ,2.87905 ,28.24919 
149 ,28.1100 ,0.97508 ,2.85167 ,27.98057 
150 ,28.2863 ,0.97691 ,2.84140 ,27.87983 
151 ,28.4623 ,0.97869 ,2.82429 ,27.71194 
152 ,28.6386 ,0.98043 ,2.81402 ,27.61121 
153 ,28.8464 ,0.98245 ,2.78665 ,27.34258 
154 ,29.0707 ,0.98462 ,2.78322 ,27.30900 
155 ,29.2308 ,0.98649 ,2.76269 ,27.10753 
156 ,29.4069 ,0.98815 ,2.75927 ,27.07395 
157 ,29.5989 ,0.99007 ,2.73189 ,26.80533 
158 ,29.7750 ,0.99184 ,2.72163 ,26.70459 
159 ,29.9671 ,0.99363 ,2.70794 ,26.57028 
160 ,30.1432 ,0.99545 ,2.68398 ,26.33523 
161 ,30.3351 ,0.99736 ,2.67372 ,26.23450 
162 ,30.5113 ,0.99915 ,2.66345 ,26.13376 
163 ,30.7035 ,1.00101 ,2.62923 ,25.79798 
164 ,30.8955 ,1.00299 ,2.63265 ,25.83156 
165 ,31.0875 ,1.00491 ,2.61896 ,25.69724 
166 ,31.2639 ,1.00669 ,2.59843 ,25.49577 
167 ,31.4557 ,1.00857 ,2.56763 ,25.19357 
168 ,31.6479 ,1.01052 ,2.57105 ,25.22715 
169 ,31.8557 ,1.01259 ,2.55052 ,25.02568 
170 ,32.0641 ,1.01456 ,2.51972 ,24.72347 
171 ,32.2719 ,1.01670 ,2.52656 ,24.79063 
172 ,32.4640 ,1.01860 ,2.48892 ,24.42127 
173 ,32.6402 ,1.02042 ,2.47865 ,24.32053 
174 ,32.8322 ,1.02229 ,2.48550 ,24.38769 
175 ,33.0084 ,1.02406 ,2.46496 ,24.18622 
176 ,33.2004 ,1.02599 ,2.43759 ,23.91759 
177 ,33.3764 ,1.02778 ,2.42390 ,23.78328 
178 ,33.5526 ,1.02957 ,2.42390 ,23.78328 
179 ,33.7287 ,1.03135 ,2.39994 ,23.54823 
180 ,33.9209 ,1.03320 ,2.37599 ,23.31318 
181 ,34.1289 ,1.03516 ,2.34519 ,23.01098 
182 ,34.3209 ,1.03727 ,2.34177 ,22.97740 
183 ,34.5130 ,1.03906 ,2.33492 ,22.91024 
184 ,34.7052 ,1.04100 ,2.32808 ,22.84309 
185 ,34.8971 ,1.04307 ,2.29385 ,22.50731 
186 ,35.0733 ,1.04475 ,2.29043 ,22.47373 
187 ,35.2493 ,1.04650 ,2.28701 ,22.44015 
188 ,35.4253 ,1.04832 ,2.28017 ,22.37299 
189 ,35.6331 ,1.05020 ,2.25621 ,22.13794 
190 ,35.8256 ,1.05224 ,2.23226 ,21.90290 
191 ,36.0018 ,1.05405 ,2.22883 ,21.86932 
192 ,36.1937 ,1.05588 ,2.21172 ,21.70143 
193 ,36.3699 ,1.05772 ,2.20830 ,21.66785 
194 ,36.5779 ,1.05972 ,2.16723 ,21.26491 
195 ,36.7537 ,1.06160 ,2.15697 ,21.16417 
196 ,36.9461 ,1.06342 ,2.13986 ,20.99628 
197 ,37.1383 ,1.06540 ,2.12275 ,20.82839 
198 ,37.3303 ,1.06728 ,2.11590 ,20.76123 
199 ,37.5222 ,1.06916 ,2.09537 ,20.55976 
200 ,37.6985 ,1.07104 ,2.08852 ,20.49261 
201 ,37.8899 ,1.07299 ,2.07141 ,20.32472 
202 ,38.0663 ,1.07469 ,2.06457 ,20.25756 
203 ,38.2585 ,1.07662 ,2.04404 ,20.05609 
204 ,38.4507 ,1.07847 ,2.03719 ,19.98893 
205 ,38.6264 ,1.08025 ,2.03035 ,19.92178 
206 ,38.8029 ,1.08206 ,2.01666 ,19.78746 
207 ,39.0109 ,1.08406 ,1.98244 ,19.45168 
208 ,39.2031 ,1.08607 ,1.98586 ,19.48526 
209 ,39.3950 ,1.08792 ,1.96190 ,19.25021 
210 ,39.5872 ,1.08987 ,1.94479 ,19.08232 
211 ,39.7792 ,1.09183 ,1.92768 ,18.91443 
212 ,39.9709 ,1.09362 ,1.91399 ,18.78011 
213 ,40.1473 ,1.09547 ,1.91057 ,18.74654 
214 ,40.3713 ,1.09758 ,1.89004 ,18.54507 
215 ,40.5472 ,1.09945 ,1.88319 ,18.47791 
216 ,40.7556 ,1.10149 ,1.84897 ,18.14213 
217 ,40.9636 ,1.10357 ,1.85240 ,18.17570 
218 ,41.1557 ,1.10553 ,1.82844 ,17.94066 
219 ,41.3638 ,1.10760 ,1.82160 ,17.87350 
220 ,41.5721 ,1.10968 ,1.79764 ,17.63845 
221 ,41.7640 ,1.11165 ,1.79080 ,17.57129 
222 ,41.9401 ,1.11338 ,1.77026 ,17.36983 
223 ,42.0997 ,1.11512 ,1.75315 ,17.20193 
224 ,42.2760 ,1.11679 ,1.74631 ,17.13478 
225 ,42.4683 ,1.11869 ,1.72578 ,16.93331 
226 ,42.6445 ,1.12045 ,1.72920 ,16.96689 
227 ,42.8525 ,1.12246 ,1.70524 ,16.73184 
228 ,43.0609 ,1.12456 ,1.69155 ,16.59752 
229 ,43.2527 ,1.12653 ,1.67102 ,16.39605 
230 ,43.4607 ,1.12856 ,1.66760 ,16.36248 
231 ,43.6367 ,1.13038 ,1.65049 ,16.19458 
232 ,43.8128 ,1.13211 ,1.62653 ,15.95954 
233 ,44.0049 ,1.13401 ,1.63680 ,16.06027 
234 ,44.1806 ,1.13580 ,1.62311 ,15.92596 
235 ,44.3572 ,1.13761 ,1.60258 ,15.72449 
236 ,44.5651 ,1.13958 ,1.58889 ,15.59018 
237 ,44.7571 ,1.14153 ,1.56151 ,15.32155 
238 ,44.9657 ,1.14358 ,1.56151 ,15.32155 
239 ,45.1575 ,1.14548 ,1.54098 ,15.12008 
240 ,45.3336 ,1.14736 ,1.52045 ,14.91861 
241 ,45.5254 ,1.14921 ,1.52387 ,14.95219 
242 ,45.7338 ,1.15128 ,1.48965 ,14.61640 
243 ,45.9258 ,1.15319 ,1.49649 ,14.68356 
244 ,46.1339 ,1.15524 ,1.47253 ,14.44851 
245 ,46.3416 ,1.15734 ,1.46569 ,14.38136 
246 ,46.5180 ,1.15919 ,1.44858 ,14.21346 
247 ,46.7259 ,1.16115 ,1.41436 ,13.87768 
248 ,46.9021 ,1.16306 ,1.42120 ,13.94484 
249 ,47.0622 ,1.16472 ,1.41436 ,13.87768 
250 ,47.2382 ,1.16634 ,1.40751 ,13.81053 
251 ,47.4140 ,1.16813 ,1.37329 ,13.47474 
252 ,47.5905 ,1.16991 ,1.35960 ,13.34043 
253 ,47.7825 ,1.17182 ,1.35618 ,13.30685 
254 ,47.9744 ,1.17373 ,1.34591 ,13.20612 
255 ,48.1827 ,1.17574 ,1.34249 ,13.17254 
256 ,48.3586 ,1.17757 ,1.32538 ,13.00465 
257 ,48.5343 ,1.17928 ,1.30827 ,12.83675 
258 ,48.7109 ,1.18109 ,1.28089 ,12.56813 
259 ,48.9030 ,1.18300 ,1.27747 ,12.53455 
260 ,49.0790 ,1.18476 ,1.27405 ,12.50097 
261 ,49.2870 ,1.18673 ,1.25352 ,12.29950 
262 ,49.4629 ,1.18858 ,1.25352 ,12.29950 
263 ,49.6393 ,1.19033 ,1.22614 ,12.03088 
264 ,49.8153 ,1.19211 ,1.22614 ,12.03088 
265 ,50.0070 ,1.19399 ,1.19534 ,11.72867 
266 ,50.1833 ,1.19581 ,1.18850 ,11.66151 
267 ,50.3755 ,1.19766 ,1.17481 ,11.52720 
268 ,50.5517 ,1.19950 ,1.16454 ,11.42647 
269 ,50.7437 ,1.20139 ,1.14401 ,11.22500 
270 ,50.9198 ,1.20317 ,1.14743 ,11.25857 
271 ,51.0959 ,1.20489 ,1.14058 ,11.19142 
272 ,51.2879 ,1.20677 ,1.10636 ,10.85563 
273 ,51.4959 ,1.20888 ,1.10294 ,10.82206 
274 ,51.6722 ,1.21069 ,1.08925 ,10.68774 
275 ,51.8800 ,1.21277 ,1.07899 ,10.58701 
276 ,52.0722 ,1.21464 ,1.05845 ,10.38554 
277 ,52.2484 ,1.21645 ,1.04819 ,10.28480 
278 ,52.4405 ,1.21833 ,1.04819 ,10.28480 
279 ,52.6165 ,1.22018 ,1.01739 ,9.98260 
280 ,52.7922 ,1.22185 ,1.00370 ,9.84829 
281 ,52.9843 ,1.22372 ,0.99343 ,9.74755 
282 ,53.1927 ,1.22583 ,0.97974 ,9.61324 
283 ,53.3846 ,1.22783 ,0.97290 ,9.54608 
284 ,53.5769 ,1.22974 ,0.96605 ,9.47892 
285 ,53.7687 ,1.23158 ,0.94894 ,9.31103 
286 ,53.9615 ,1.23360 ,0.93868 ,9.21030 
287 ,54.1530 ,1.23553 ,0.93525 ,9.17672 
288 ,54.3291 ,1.23720 ,0.90788 ,8.90809 
289 ,54.5049 ,1.23904 ,0.90788 ,8.90809 
290 ,54.6973 ,1.24088 ,0.90446 ,8.87451 
291 ,54.8893 ,1.24279 ,0.87023 ,8.53873 
292 ,55.0814 ,1.24474 ,0.87366 ,8.57231 
293 ,55.2735 ,1.24672 ,0.84286 ,8.27011 
294 ,55.4497 ,1.24845 ,0.84286 ,8.27011 
295 ,55.6412 ,1.25034 ,0.81890 ,8.03506 
296 ,55.8178 ,1.25211 ,0.82575 ,8.10221 
297 ,56.0097 ,1.25396 ,0.80521 ,7.90074 
298 ,56.2019 ,1.25592 ,0.79152 ,7.76643 
299 ,56.3937 ,1.25790 ,0.79152 ,7.76643 
300 ,56.5860 ,1.25981 ,0.75388 ,7.39707 
301 ,56.7778 ,1.26178 ,0.76072 ,7.46423 
302 ,56.9703 ,1.26363 ,0.73335 ,7.19560 
303 ,57.1941 ,1.26574 ,0.72992 ,7.16202 
304 ,57.3703 ,1.26765 ,0.73335 ,7.19560 
305 ,57.5463 ,1.26940 ,0.69570 ,6.82624 
306 ,57.7224 ,1.27115 ,0.69570 ,6.82624 
307 ,57.8982 ,1.27293 ,0.68886 ,6.75908 
308 ,58.0745 ,1.27468 ,0.68544 ,6.72550 
309 ,58.2505 ,1.27644 ,0.67517 ,6.62477 
310 ,58.4428 ,1.27833 ,0.64095 ,6.28899 
311 ,58.6188 ,1.28014 ,0.63753 ,6.25541 
312 ,58.7949 ,1.28194 ,0.64437 ,6.32256 
313 ,58.9870 ,1.28376 ,0.62384 ,6.12109 
314 ,59.1792 ,1.28574 ,0.60673 ,5.95320 
315 ,59.3711 ,1.28766 ,0.61015 ,5.98678 
316 ,59.5634 ,1.28959 ,0.56224 ,5.51668 
317 ,59.7394 ,1.29135 ,0.55882 ,5.48311 
318 ,59.9315 ,1.29320 ,0.57593 ,5.65100 
319 ,60.1396 ,1.29524 ,0.56224 ,5.51668 
320 ,60.3313 ,1.29730 ,0.53828 ,5.28164 
321 ,60.5077 ,1.29900 ,0.54171 ,5.31522 
322 ,60.7158 ,1.30100 ,0.52117 ,5.11375 
323 ,60.9076 ,1.30291 ,0.50748 ,4.97943 
324 ,61.0840 ,1.30476 ,0.48695 ,4.77796 
325 ,61.2600 ,1.30655 ,0.47668 ,4.67723 
326 ,61.4196 ,1.30823 ,0.47326 ,4.64365 
327 ,61.6277 ,1.31008 ,0.48353 ,4.74438 
328 ,61.8041 ,1.31196 ,0.45957 ,4.50934 
329 ,61.9804 ,1.31375 ,0.43562 ,4.27429 
330 ,62.1882 ,1.31572 ,0.44246 ,4.34144 
331 ,62.3804 ,1.31770 ,0.41166 ,4.03924 
332 ,62.5400 ,1.31945 ,0.41166 ,4.03924 
333 ,62.7166 ,1.32113 ,0.40140 ,3.93850 
334 ,62.9086 ,1.32299 ,0.38771 ,3.80419 
335 ,63.0847 ,1.32479 ,0.37402 ,3.66988 
336 ,63.2769 ,1.32662 ,0.38086 ,3.73703 
337 ,63.4848 ,1.32872 ,0.35006 ,3.43483 
338 ,63.6610 ,1.33059 ,0.35349 ,3.46841 
339 ,63.8371 ,1.33228 ,0.33980 ,3.33410 
340 ,64.0292 ,1.33412 ,0.32953 ,3.23336 
341 ,64.2370 ,1.33619 ,0.32953 ,3.23336 
342 ,64.4133 ,1.33807 ,0.30558 ,2.99831 
343 ,64.5895 ,1.33981 ,0.29873 ,2.93116 
344 ,64.8295 ,1.34203 ,0.29873 ,2.93116 
345 ,65.0375 ,1.34425 ,0.27820 ,2.72969 
346 ,65.2137 ,1.34605 ,0.25424 ,2.49464 
347 ,65.4055 ,1.34793 ,0.23713 ,2.32675 
348 ,65.5979 ,1.34986 ,0.23371 ,2.29317 
349 ,65.7899 ,1.35180 ,0.24740 ,2.42748 
350 ,65.9657 ,1.35353 ,0.23371 ,2.29317 
351 ,66.1421 ,1.35531 ,0.21660 ,2.12528 
352 ,66.3181 ,1.35709 ,0.18580 ,1.82307 
353 ,66.4943 ,1.35884 ,0.20291 ,1.99096 
354 ,66.7023 ,1.36085 ,0.16527 ,1.62160 
355 ,66.8941 ,1.36276 ,0.17553 ,1.72234 
356 ,67.0705 ,1.36467 ,0.16527 ,1.62160 
357 ,67.2627 ,1.36649 ,0.13447 ,1.31940 
358 ,67.4545 ,1.36840 ,0.13447 ,1.31940 
359 ,67.6463 ,1.37032 ,0.12762 ,1.25224 
360 ,67.8226 ,1.37213 ,0.11736 ,1.15151 
361 ,67.9985 ,1.37391 ,0.08998 ,0.88288 
362 ,68.1747 ,1.37563 ,0.08998 ,0.88288 
363 ,68.3510 ,1.37740 ,0.07971 ,0.78214 
364 ,68.5431 ,1.37927 ,0.07629 ,0.74857 
365 ,68.7192 ,1.38111 ,0.05234 ,0.51352 
366 ,68.8950 ,1.38286 ,0.04891 ,0.47994 
367 ,69.0874 ,1.38479 ,0.06260 ,0.61425 
368 ,69.2953 ,1.38678 ,0.02838 ,0.27847 
369 ,69.4716 ,1.38857 ,0.02496 ,0.24489 
370 ,69.6636 ,1.39045 ,0.02154 ,0.21131 
371 ,69.8394 ,1.39232 ,0.00443 ,0.04342 
372 ,70.0154 ,1.39404 ,-0.00584 ,-0.05731 
373 ,70.2078 ,1.39589 ,0.00443 ,0.04342 
374 ,70.3999 ,1.39785 ,-0.04006 ,-0.39310 
375 ,70.5920 ,1.39981 ,-0.02980 ,-0.29236 
376 ,70.8159 ,1.40198 ,-0.04691 ,-0.46025 
377 ,70.9921 ,1.40385 ,-0.06744 ,-0.66172 
378 ,71.1840 ,1.40578 ,-0.06744 ,-0.66172 
379 ,71.3762 ,1.40758 ,-0.08797 ,-0.86319 
380 ,71.5524 ,1.40940 ,-0.08797 ,-0.86319 
381 ,71.7605 ,1.41141 ,-0.10166 ,-0.99751 
382 ,71.9526 ,1.41342 ,-0.11535 ,-1.13182 
383 ,72.1443 ,1.41529 ,-0.10851 ,-1.06466 
384 ,72.3367 ,1.41718 ,-0.13931 ,-1.36687 
385 ,72.5446 ,1.41928 ,-0.12904 ,-1.26613 
386 ,72.7368 ,1.42116 ,-0.15299 ,-1.50118 
387 ,72.9290 ,1.42307 ,-0.14273 ,-1.40045 
388 ,73.1209 ,1.42510 ,-0.15299 ,-1.50118 
389 ,73.2966 ,1.42683 ,-0.17353 ,-1.70265 
390 ,73.4732 ,1.42861 ,-0.19748 ,-1.93770 
391 ,73.6652 ,1.43053 ,-0.17695 ,-1.73623 
392 ,73.8414 ,1.43230 ,-0.20090 ,-1.97128 
393 ,74.0334 ,1.43426 ,-0.20775 ,-2.03843 
394 ,74.2253 ,1.43604 ,-0.20090 ,-1.97128 
395 ,74.4015 ,1.43791 ,-0.23170 ,-2.27348 
396 ,74.5937 ,1.43982 ,-0.25224 ,-2.47495 
397 ,74.7692 ,1.44158 ,-0.25908 ,-2.54211 
398 ,74.9293 ,1.44329 ,-0.24197 ,-2.37422 
399 ,75.0894 ,1.44488 ,-0.25224 ,-2.47495 
400 ,75.2653 ,1.44651 ,-0.27277 ,-2.67642 
401 ,75.4574 ,1.44840 ,-0.29330 ,-2.87789 
402 ,75.6501 ,1.45025 ,-0.28646 ,-2.81073 
403 ,75.8421 ,1.45229 ,-0.29330 ,-2.87789 
404 ,76.0182 ,1.45407 ,-0.30699 ,-3.01220 
405 ,76.2263 ,1.45605 ,-0.30699 ,-3.01220 
406 ,76.4183 ,1.45799 ,-0.33437 ,-3.28083 
407 ,76.5943 ,1.45980 ,-0.35148 ,-3.44872 
408 ,76.7865 ,1.46168 ,-0.35148 ,-3.44872 
409 ,76.9625 ,1.46349 ,-0.34806 ,-3.41514 
410 ,77.1385 ,1.46527 ,-0.36175 ,-3.54946 
411 ,77.3307 ,1.46704 ,-0.37201 ,-3.65019 
412 ,77.5227 ,1.46911 ,-0.38228 ,-3.75093 
413 ,77.6989 ,1.47094 ,-0.40281 ,-3.95240 
414 ,77.9069 ,1.47287 ,-0.41308 ,-4.05313 
415 ,78.0829 ,1.47480 ,-0.41650 ,-4.08671 
416 ,78.2591 ,1.47650 ,-0.41992 ,-4.12029 
417 ,78.4511 ,1.47833 ,-0.43361 ,-4.25460 
418 ,78.6268 ,1.48015 ,-0.43361 ,-4.25460 
419 ,78.8028 ,1.48187 ,-0.44388 ,-4.35534 
420 ,78.9789 ,1.48368 ,-0.45072 ,-4.42249 
421 ,79.1549 ,1.48545 ,-0.45757 ,-4.48965 
422 ,79.3312 ,1.48716 ,-0.47810 ,-4.69112 
423 ,79.5076 ,1.48891 ,-0.48494 ,-4.75828 
424 ,79.6993 ,1.49085 ,-0.48152 ,-4.72470 
425 ,79.8916 ,1.49267 ,-0.49179 ,-4.82543 
426 ,80.0836 ,1.49474 ,-0.51232 ,-5.02690 
427 ,80.2757 ,1.49657 ,-0.51917 ,-5.09406 
428 ,80.4520 ,1.49838 ,-0.52943 ,-5.19479 
429 ,80.6441 ,1.50031 ,-0.53628 ,-5.26195 
430 ,80.8196 ,1.50211 ,-0.55339 ,-5.42984 
431 ,80.9961 ,1.50380 ,-0.55339 ,-5.42984 
432 ,81.1883 ,1.50576 ,-0.57734 ,-5.66489 
433 ,81.3804 ,1.50764 ,-0.55681 ,-5.46342 
434 ,81.5725 ,1.50953 ,-0.58419 ,-5.73205 
435 ,81.7645 ,1.51149 ,-0.59788 ,-5.86636 
436 ,81.9405 ,1.51323 ,-0.57734 ,-5.66489 
437 ,82.1164 ,1.51498 ,-0.60130 ,-5.89994 
438 ,82.3246 ,1.51702 ,-0.60130 ,-5.89994 
439 ,82.5009 ,1.51890 ,-0.61499 ,-6.03425 
440 ,82.6926 ,1.52073 ,-0.63210 ,-6.20214 
441 ,82.8691 ,1.52252 ,-0.64236 ,-6.30288 
442 ,83.0610 ,1.52453 ,-0.63894 ,-6.26930 
443 ,83.2530 ,1.52632 ,-0.65605 ,-6.43719 
444 ,83.4289 ,1.52813 ,-0.66974 ,-6.57150 
445 ,83.6213 ,1.52995 ,-0.68685 ,-6.73940 
446 ,83.8130 ,1.53201 ,-0.68685 ,-6.73940 
447 ,83.9891 ,1.53371 ,-0.70739 ,-6.94086 
448 ,84.1812 ,1.53562 ,-0.69712 ,-6.84013 
449 ,84.4216 ,1.53781 ,-0.71765 ,-7.04160 
450 ,84.6136 ,1.53997 ,-0.72107 ,-7.07518 
451 ,84.8056 ,1.54180 ,-0.74161 ,-7.27665 
452 ,84.9979 ,1.54380 ,-0.74503 ,-7.31023 
453 ,85.1900 ,1.54567 ,-0.76556 ,-7.51170 
454 ,85.3819 ,1.54766 ,-0.75530 ,-7.41096 
455 ,85.5582 ,1.54943 ,-0.75187 ,-7.37738 
456 ,85.7497 ,1.55134 ,-0.77241 ,-7.57885 
457 ,85.9262 ,1.55306 ,-0.78952 ,-7.74674 
458 ,86.0863 ,1.55479 ,-0.79294 ,-7.78032 
459 ,86.2625 ,1.55644 ,-0.81347 ,-7.98179 
460 ,86.4382 ,1.55819 ,-0.78952 ,-7.74674 
461 ,86.6146 ,1.55995 ,-0.79978 ,-7.84748 
462 ,86.7907 ,1.56174 ,-0.81005 ,-7.94821 
463 ,86.9828 ,1.56358 ,-0.82716 ,-8.11611 
