Data stamp = , 24-04-2022 13:37:28 669

Calibration Values: 
Slope = , 26.54 , g/V 
Offset Voltage at no contact = , -0.501760 , V 

No , Time , Stage Position ,   Mass , Force 
   ,  (s) ,      (mm)      ,   (g)  , (mN)  

1 ,0.0000 ,0.69945 ,5.28483 ,51.85474 
2 ,0.2037 ,0.69954 ,5.30878 ,52.08979 
3 ,0.5402 ,0.70040 ,5.30194 ,52.02263 
4 ,0.7643 ,0.70208 ,5.31905 ,52.19052 
5 ,0.9722 ,0.70394 ,5.29167 ,51.92190 
6 ,1.1643 ,0.70585 ,5.31563 ,52.15694 
7 ,1.3401 ,0.70756 ,5.30536 ,52.05621 
8 ,1.5161 ,0.70933 ,5.29852 ,51.98905 
9 ,1.7085 ,0.71120 ,5.28141 ,51.82116 
10 ,1.8847 ,0.71311 ,5.27456 ,51.75401 
11 ,2.0928 ,0.71500 ,5.25403 ,51.55254 
12 ,2.2844 ,0.71702 ,5.26087 ,51.61969 
13 ,2.4766 ,0.71892 ,5.21981 ,51.21675 
14 ,2.6685 ,0.72085 ,5.19585 ,50.98170 
15 ,2.8445 ,0.72273 ,5.20954 ,51.11602 
16 ,3.0207 ,0.72451 ,5.16848 ,50.71308 
17 ,3.2127 ,0.72629 ,5.15479 ,50.57876 
18 ,3.3888 ,0.72818 ,5.14452 ,50.47803 
19 ,3.5813 ,0.72999 ,5.13768 ,50.41087 
20 ,3.8055 ,0.73228 ,5.09319 ,49.97436 
21 ,3.9976 ,0.73419 ,5.07608 ,49.80646 
22 ,4.2054 ,0.73621 ,5.05897 ,49.63857 
23 ,4.3653 ,0.73800 ,5.05212 ,49.57142 
24 ,4.5416 ,0.73968 ,5.02132 ,49.26921 
25 ,4.7338 ,0.74155 ,5.00763 ,49.13490 
26 ,4.9099 ,0.74332 ,4.97683 ,48.83269 
27 ,5.0861 ,0.74507 ,4.96999 ,48.76554 
28 ,5.2781 ,0.74700 ,4.95630 ,48.63122 
29 ,5.4697 ,0.74889 ,4.92892 ,48.36260 
30 ,5.6463 ,0.75071 ,4.91523 ,48.22828 
31 ,5.8542 ,0.75273 ,4.87759 ,47.85892 
32 ,6.0306 ,0.75452 ,4.87759 ,47.85892 
33 ,6.2060 ,0.75634 ,4.87075 ,47.79177 
34 ,6.3821 ,0.75812 ,4.85364 ,47.62387 
35 ,6.5741 ,0.75988 ,4.82284 ,47.32167 
36 ,6.7503 ,0.76170 ,4.81599 ,47.25451 
37 ,6.9587 ,0.76377 ,4.80230 ,47.12020 
38 ,7.1348 ,0.76560 ,4.76808 ,46.78442 
39 ,7.3270 ,0.76749 ,4.74070 ,46.51579 
40 ,7.5351 ,0.76949 ,4.72702 ,46.38148 
41 ,7.7270 ,0.77140 ,4.70990 ,46.21359 
42 ,7.9192 ,0.77341 ,4.70648 ,46.18001 
43 ,8.1112 ,0.77524 ,4.65857 ,45.70991 
44 ,8.3034 ,0.77721 ,4.66199 ,45.74349 
45 ,8.4953 ,0.77922 ,4.63462 ,45.47486 
46 ,8.6711 ,0.78094 ,4.61408 ,45.27339 
47 ,8.8476 ,0.78274 ,4.59355 ,45.07192 
48 ,9.0397 ,0.78462 ,4.59013 ,45.03835 
49 ,9.2317 ,0.78645 ,4.56960 ,44.83688 
50 ,9.4077 ,0.78825 ,4.55591 ,44.70256 
51 ,9.5999 ,0.79008 ,4.55591 ,44.70256 
52 ,9.7756 ,0.79202 ,4.51142 ,44.26604 
53 ,9.9679 ,0.79381 ,4.48746 ,44.03100 
54 ,10.1600 ,0.79569 ,4.48746 ,44.03100 
55 ,10.3520 ,0.79763 ,4.48746 ,44.03100 
56 ,10.5443 ,0.79963 ,4.43955 ,43.56090 
57 ,10.7365 ,0.80151 ,4.43271 ,43.49374 
58 ,10.9286 ,0.80343 ,4.39164 ,43.09080 
59 ,11.1205 ,0.80543 ,4.38822 ,43.05723 
60 ,11.2965 ,0.80714 ,4.38480 ,43.02365 
61 ,11.5047 ,0.80910 ,4.34031 ,42.58713 
62 ,11.6967 ,0.81112 ,4.35058 ,42.68786 
63 ,11.8727 ,0.81291 ,4.33004 ,42.48639 
64 ,12.0488 ,0.81464 ,4.31636 ,42.35208 
65 ,12.2409 ,0.81658 ,4.28213 ,42.01630 
66 ,12.4170 ,0.81839 ,4.27871 ,41.98272 
67 ,12.6251 ,0.82040 ,4.25818 ,41.78125 
68 ,12.8013 ,0.82225 ,4.23080 ,41.51262 
69 ,12.9772 ,0.82396 ,4.22396 ,41.44547 
70 ,13.1696 ,0.82584 ,4.21027 ,41.31115 
71 ,13.3772 ,0.82792 ,4.18289 ,41.04253 
72 ,13.5694 ,0.82983 ,4.17262 ,40.94179 
73 ,13.7456 ,0.83162 ,4.15209 ,40.74032 
74 ,13.9537 ,0.83363 ,4.12471 ,40.47170 
75 ,14.1133 ,0.83544 ,4.11103 ,40.33738 
76 ,14.2898 ,0.83707 ,4.09734 ,40.20307 
77 ,14.4820 ,0.83890 ,4.09391 ,40.16949 
78 ,14.6897 ,0.84100 ,4.07338 ,39.96802 
79 ,14.8821 ,0.84301 ,4.02889 ,39.53150 
80 ,15.0900 ,0.84495 ,4.02547 ,39.49793 
81 ,15.2662 ,0.84690 ,4.01178 ,39.36361 
82 ,15.4580 ,0.84871 ,3.99809 ,39.22930 
83 ,15.6504 ,0.85066 ,3.97756 ,39.02783 
84 ,15.8264 ,0.85244 ,3.95018 ,38.75920 
85 ,16.0345 ,0.85440 ,3.92281 ,38.49058 
86 ,16.2423 ,0.85653 ,3.90912 ,38.35626 
87 ,16.4347 ,0.85844 ,3.90912 ,38.35626 
88 ,16.6267 ,0.86038 ,3.87490 ,38.02048 
89 ,16.8187 ,0.86233 ,3.87147 ,37.98690 
90 ,16.9945 ,0.86414 ,3.86121 ,37.88617 
91 ,17.1709 ,0.86585 ,3.83725 ,37.65112 
92 ,17.3466 ,0.86761 ,3.83041 ,37.58396 
93 ,17.5392 ,0.86953 ,3.79619 ,37.24818 
94 ,17.7314 ,0.87152 ,3.79619 ,37.24818 
95 ,17.9236 ,0.87335 ,3.76196 ,36.91240 
96 ,18.0993 ,0.87513 ,3.73801 ,36.67735 
97 ,18.2756 ,0.87694 ,3.73117 ,36.61019 
98 ,18.4671 ,0.87880 ,3.71405 ,36.44230 
99 ,18.6437 ,0.88064 ,3.69010 ,36.20725 
100 ,18.8357 ,0.88258 ,3.69694 ,36.27441 
101 ,18.9955 ,0.88421 ,3.67641 ,36.07294 
102 ,19.1718 ,0.88586 ,3.65588 ,35.87147 
103 ,19.3639 ,0.88783 ,3.61139 ,35.43495 
104 ,19.5556 ,0.88968 ,3.63192 ,35.63642 
105 ,19.7479 ,0.89159 ,3.60112 ,35.33422 
106 ,19.9561 ,0.89364 ,3.57375 ,35.06559 
107 ,20.1323 ,0.89548 ,3.56006 ,34.93128 
108 ,20.3080 ,0.89723 ,3.54979 ,34.83054 
109 ,20.5004 ,0.89906 ,3.53268 ,34.66265 
110 ,20.6763 ,0.90094 ,3.51557 ,34.49476 
111 ,20.8523 ,0.90265 ,3.50872 ,34.42760 
112 ,21.0282 ,0.90443 ,3.49161 ,34.25971 
113 ,21.2206 ,0.90631 ,3.45739 ,33.92393 
114 ,21.4127 ,0.90832 ,3.44370 ,33.78961 
115 ,21.6046 ,0.91014 ,3.41633 ,33.52099 
116 ,21.8127 ,0.91226 ,3.39579 ,33.31952 
117 ,22.0048 ,0.91416 ,3.40606 ,33.42025 
118 ,22.1810 ,0.91597 ,3.37526 ,33.11805 
119 ,22.3730 ,0.91794 ,3.36499 ,33.01731 
120 ,22.5652 ,0.91973 ,3.35473 ,32.91658 
121 ,22.7569 ,0.92170 ,3.31366 ,32.51364 
122 ,22.9493 ,0.92361 ,3.32051 ,32.58080 
123 ,23.1413 ,0.92559 ,3.28628 ,32.24501 
124 ,23.3336 ,0.92749 ,3.27259 ,32.11070 
125 ,23.5254 ,0.92937 ,3.26233 ,32.00996 
126 ,23.7017 ,0.93117 ,3.24180 ,31.80849 
127 ,23.8934 ,0.93307 ,3.22468 ,31.64060 
128 ,24.0695 ,0.93483 ,3.22468 ,31.64060 
129 ,24.2775 ,0.93676 ,3.19046 ,31.30482 
130 ,24.4540 ,0.93870 ,3.18362 ,31.23766 
131 ,24.6460 ,0.94059 ,3.17677 ,31.17051 
132 ,24.8220 ,0.94243 ,3.13913 ,30.80115 
133 ,24.9980 ,0.94407 ,3.13571 ,30.76757 
134 ,25.1742 ,0.94587 ,3.12544 ,30.66683 
135 ,25.3503 ,0.94763 ,3.10149 ,30.43178 
136 ,25.5425 ,0.94961 ,3.10491 ,30.46536 
137 ,25.7185 ,0.95135 ,3.07753 ,30.19674 
138 ,25.9107 ,0.95321 ,3.07069 ,30.12958 
139 ,26.1026 ,0.95518 ,3.05015 ,29.92811 
140 ,26.3106 ,0.95715 ,3.02620 ,29.69306 
141 ,26.4868 ,0.95901 ,3.03304 ,29.76022 
142 ,26.6947 ,0.96101 ,2.99198 ,29.35728 
143 ,26.8709 ,0.96291 ,2.96460 ,29.08865 
144 ,27.0628 ,0.96474 ,2.96802 ,29.12223 
145 ,27.2551 ,0.96667 ,2.93722 ,28.82003 
146 ,27.4632 ,0.96876 ,2.93722 ,28.82003 
147 ,27.6392 ,0.97051 ,2.92353 ,28.68571 
148 ,27.8148 ,0.97232 ,2.88931 ,28.34993 
149 ,27.9914 ,0.97406 ,2.85851 ,28.04772 
150 ,28.2152 ,0.97611 ,2.85509 ,28.01415 
151 ,28.3915 ,0.97805 ,2.83456 ,27.81268 
152 ,28.5674 ,0.97980 ,2.83456 ,27.81268 
153 ,28.7598 ,0.98172 ,2.81745 ,27.64479 
154 ,28.9837 ,0.98381 ,2.80718 ,27.54405 
155 ,29.1759 ,0.98586 ,2.77296 ,27.20827 
156 ,29.3675 ,0.98774 ,2.76611 ,27.14111 
157 ,29.5440 ,0.98959 ,2.75927 ,27.07395 
158 ,29.7357 ,0.99144 ,2.74216 ,26.90606 
159 ,29.9122 ,0.99321 ,2.72847 ,26.77175 
160 ,30.1042 ,0.99512 ,2.71136 ,26.60386 
161 ,30.2964 ,0.99716 ,2.69083 ,26.40239 
162 ,30.4884 ,0.99897 ,2.66345 ,26.13376 
163 ,30.6964 ,1.00103 ,2.66345 ,26.13376 
164 ,30.8724 ,1.00284 ,2.65660 ,26.06661 
165 ,31.0485 ,1.00459 ,2.63265 ,25.83156 
166 ,31.2083 ,1.00630 ,2.61212 ,25.63009 
167 ,31.3843 ,1.00799 ,2.62238 ,25.73082 
168 ,31.5763 ,1.00979 ,2.60527 ,25.56293 
169 ,31.7686 ,1.01172 ,2.56763 ,25.19357 
170 ,31.9449 ,1.01357 ,2.54710 ,24.99210 
171 ,32.1050 ,1.01528 ,2.56078 ,25.12641 
172 ,32.2971 ,1.01710 ,2.54367 ,24.95852 
173 ,32.4887 ,1.01899 ,2.51630 ,24.68989 
174 ,32.6813 ,1.02084 ,2.49918 ,24.52200 
175 ,32.8893 ,1.02293 ,2.48550 ,24.38769 
176 ,33.0654 ,1.02479 ,2.46496 ,24.18622 
177 ,33.2414 ,1.02653 ,2.46496 ,24.18622 
178 ,33.4173 ,1.02828 ,2.45470 ,24.08549 
179 ,33.6091 ,1.03019 ,2.42390 ,23.78328 
180 ,33.7857 ,1.03196 ,2.41363 ,23.68255 
181 ,33.9614 ,1.03377 ,2.37941 ,23.34676 
182 ,34.1378 ,1.03546 ,2.39994 ,23.54823 
183 ,34.3458 ,1.03752 ,2.36914 ,23.24603 
184 ,34.5698 ,1.03966 ,2.35545 ,23.11171 
185 ,34.7616 ,1.04179 ,2.34519 ,23.01098 
186 ,34.9380 ,1.04348 ,2.31781 ,22.74235 
187 ,35.1302 ,1.04540 ,2.31439 ,22.70877 
188 ,35.3222 ,1.04733 ,2.29728 ,22.54088 
189 ,35.4982 ,1.04905 ,2.27332 ,22.30584 
190 ,35.6744 ,1.05082 ,2.29043 ,22.47373 
191 ,35.8504 ,1.05257 ,2.23568 ,21.93647 
192 ,36.0421 ,1.05456 ,2.22541 ,21.83574 
193 ,36.2185 ,1.05625 ,2.22541 ,21.83574 
194 ,36.3947 ,1.05805 ,2.21857 ,21.76858 
195 ,36.5868 ,1.05986 ,2.18777 ,21.46638 
196 ,36.7629 ,1.06174 ,2.16039 ,21.19775 
197 ,36.9548 ,1.06361 ,2.17750 ,21.36564 
198 ,37.1471 ,1.06542 ,2.15012 ,21.09702 
199 ,37.3551 ,1.06762 ,2.13986 ,20.99628 
200 ,37.5473 ,1.06955 ,2.11248 ,20.72766 
201 ,37.7393 ,1.07148 ,2.09537 ,20.55976 
202 ,37.9311 ,1.07339 ,2.10221 ,20.62692 
203 ,38.1074 ,1.07517 ,2.07141 ,20.32472 
204 ,38.2835 ,1.07694 ,2.05088 ,20.12325 
205 ,38.4914 ,1.07885 ,2.05088 ,20.12325 
206 ,38.6837 ,1.08094 ,2.02350 ,19.85462 
207 ,38.8757 ,1.08279 ,2.02693 ,19.88820 
208 ,39.0674 ,1.08470 ,2.00982 ,19.72031 
209 ,39.2599 ,1.08665 ,1.98586 ,19.48526 
210 ,39.4359 ,1.08840 ,1.98244 ,19.45168 
211 ,39.6121 ,1.09025 ,1.97902 ,19.41810 
212 ,39.8200 ,1.09226 ,1.95164 ,19.14948 
213 ,39.9962 ,1.09401 ,1.93111 ,18.94801 
214 ,40.1721 ,1.09585 ,1.92426 ,18.88085 
215 ,40.3804 ,1.09782 ,1.90031 ,18.64580 
216 ,40.5727 ,1.09978 ,1.90031 ,18.64580 
217 ,40.7806 ,1.10180 ,1.86951 ,18.34360 
218 ,40.9727 ,1.10372 ,1.87293 ,18.37717 
219 ,41.1643 ,1.10572 ,1.84897 ,18.14213 
220 ,41.3404 ,1.10748 ,1.83186 ,17.97423 
221 ,41.5330 ,1.10939 ,1.83186 ,17.97423 
222 ,41.7251 ,1.11131 ,1.79764 ,17.63845 
223 ,41.9330 ,1.11334 ,1.81133 ,17.77276 
224 ,42.1089 ,1.11515 ,1.78737 ,17.53772 
225 ,42.2851 ,1.11690 ,1.77026 ,17.36983 
226 ,42.4611 ,1.11863 ,1.74631 ,17.13478 
227 ,42.6373 ,1.12044 ,1.73262 ,17.00046 
228 ,42.8450 ,1.12248 ,1.72920 ,16.96689 
229 ,43.0373 ,1.12448 ,1.70524 ,16.73184 
230 ,43.2295 ,1.12633 ,1.71209 ,16.79899 
231 ,43.4055 ,1.12818 ,1.68129 ,16.49679 
232 ,43.5976 ,1.13000 ,1.65733 ,16.26174 
233 ,43.7899 ,1.13197 ,1.66418 ,16.32890 
234 ,43.9818 ,1.13383 ,1.62995 ,15.99311 
235 ,44.1738 ,1.13574 ,1.64364 ,16.12743 
236 ,44.3498 ,1.13756 ,1.62995 ,15.99311 
237 ,44.5421 ,1.13946 ,1.58547 ,15.55660 
238 ,44.7501 ,1.14156 ,1.58889 ,15.59018 
239 ,44.9423 ,1.14350 ,1.57862 ,15.48944 
240 ,45.1344 ,1.14536 ,1.55809 ,15.28797 
241 ,45.3264 ,1.14739 ,1.54440 ,15.15366 
242 ,45.5020 ,1.14909 ,1.53071 ,15.01934 
243 ,45.6782 ,1.15084 ,1.51018 ,14.81787 
244 ,45.8867 ,1.15290 ,1.50676 ,14.78430 
245 ,46.0785 ,1.15478 ,1.48622 ,14.58283 
246 ,46.3027 ,1.15691 ,1.48622 ,14.58283 
247 ,46.4950 ,1.15899 ,1.45542 ,14.28062 
248 ,46.6870 ,1.16083 ,1.45200 ,14.24704 
249 ,46.8789 ,1.16284 ,1.43489 ,14.07915 
250 ,47.0551 ,1.16463 ,1.41094 ,13.84410 
251 ,47.2474 ,1.16653 ,1.41778 ,13.91126 
252 ,47.4390 ,1.16836 ,1.39040 ,13.64263 
253 ,47.6150 ,1.17021 ,1.37329 ,13.47474 
254 ,47.8073 ,1.17205 ,1.38014 ,13.54190 
255 ,48.0155 ,1.17416 ,1.34249 ,13.17254 
256 ,48.1917 ,1.17601 ,1.33223 ,13.07180 
257 ,48.3837 ,1.17785 ,1.33565 ,13.10538 
258 ,48.5756 ,1.17967 ,1.31512 ,12.90391 
259 ,48.7675 ,1.18174 ,1.32538 ,13.00465 
260 ,48.9435 ,1.18349 ,1.29458 ,12.70244 
261 ,49.1361 ,1.18527 ,1.27063 ,12.46739 
262 ,49.3280 ,1.18727 ,1.27405 ,12.50097 
263 ,49.5197 ,1.18923 ,1.23641 ,12.13161 
264 ,49.6963 ,1.19101 ,1.22614 ,12.03088 
265 ,49.9044 ,1.19305 ,1.22272 ,11.99730 
266 ,50.0964 ,1.19505 ,1.21245 ,11.89656 
267 ,50.2726 ,1.19678 ,1.19876 ,11.76225 
268 ,50.4646 ,1.19869 ,1.19192 ,11.69509 
269 ,50.6407 ,1.20041 ,1.17481 ,11.52720 
270 ,50.8483 ,1.20247 ,1.16112 ,11.39289 
271 ,51.0248 ,1.20435 ,1.14401 ,11.22500 
272 ,51.2332 ,1.20629 ,1.13374 ,11.12426 
273 ,51.4251 ,1.20827 ,1.13032 ,11.09068 
274 ,51.6010 ,1.21012 ,1.09610 ,10.75490 
275 ,51.8090 ,1.21202 ,1.08925 ,10.68774 
276 ,51.9848 ,1.21388 ,1.09267 ,10.72132 
277 ,52.1615 ,1.21572 ,1.06187 ,10.41912 
278 ,52.3693 ,1.21757 ,1.05845 ,10.38554 
279 ,52.5775 ,1.21976 ,1.05161 ,10.31838 
280 ,52.7693 ,1.22171 ,1.01396 ,9.94902 
281 ,52.9457 ,1.22349 ,1.02423 ,10.04976 
282 ,53.1374 ,1.22534 ,0.98659 ,9.68039 
283 ,53.3298 ,1.22733 ,0.97632 ,9.57966 
284 ,53.5378 ,1.22932 ,0.97974 ,9.61324 
285 ,53.7458 ,1.23142 ,0.96263 ,9.44535 
286 ,53.9222 ,1.23328 ,0.95579 ,9.37819 
287 ,54.1139 ,1.23513 ,0.93183 ,9.14314 
288 ,54.3060 ,1.23709 ,0.91130 ,8.94167 
289 ,54.4980 ,1.23898 ,0.91130 ,8.94167 
290 ,54.6741 ,1.24079 ,0.89419 ,8.77378 
291 ,54.8505 ,1.24258 ,0.87708 ,8.60589 
292 ,55.0424 ,1.24446 ,0.89077 ,8.74020 
293 ,55.2182 ,1.24622 ,0.87023 ,8.53873 
294 ,55.4105 ,1.24811 ,0.84628 ,8.30368 
295 ,55.6023 ,1.25004 ,0.85997 ,8.43800 
296 ,55.7786 ,1.25179 ,0.84970 ,8.33726 
297 ,55.9866 ,1.25382 ,0.82232 ,8.06864 
298 ,56.1629 ,1.25564 ,0.81206 ,7.96790 
299 ,56.3546 ,1.25756 ,0.79837 ,7.83359 
300 ,56.5307 ,1.25934 ,0.79152 ,7.76643 
301 ,56.7071 ,1.26108 ,0.76072 ,7.46423 
302 ,56.8833 ,1.26287 ,0.76072 ,7.46423 
303 ,57.0913 ,1.26482 ,0.73677 ,7.22918 
304 ,57.2673 ,1.26672 ,0.72992 ,7.16202 
305 ,57.4435 ,1.26853 ,0.72650 ,7.12844 
306 ,57.6195 ,1.27019 ,0.72308 ,7.09486 
307 ,57.8276 ,1.27223 ,0.69913 ,6.85982 
308 ,58.0036 ,1.27404 ,0.68886 ,6.75908 
309 ,58.1794 ,1.27581 ,0.68201 ,6.69193 
310 ,58.3719 ,1.27778 ,0.65806 ,6.45688 
311 ,58.5638 ,1.27956 ,0.67517 ,6.62477 
312 ,58.7560 ,1.28159 ,0.64095 ,6.28899 
313 ,58.9478 ,1.28347 ,0.62384 ,6.12109 
314 ,59.1401 ,1.28535 ,0.63068 ,6.18825 
315 ,59.3323 ,1.28737 ,0.59988 ,5.88605 
316 ,59.5241 ,1.28919 ,0.60330 ,5.91962 
317 ,59.7325 ,1.29118 ,0.59304 ,5.81889 
318 ,59.9403 ,1.29335 ,0.58277 ,5.71815 
319 ,60.1165 ,1.29518 ,0.56908 ,5.58384 
320 ,60.3084 ,1.29702 ,0.53486 ,5.24806 
321 ,60.4846 ,1.29886 ,0.53828 ,5.28164 
322 ,60.6443 ,1.30055 ,0.53486 ,5.24806 
323 ,60.8368 ,1.30233 ,0.52802 ,5.18090 
324 ,61.0287 ,1.30431 ,0.49722 ,4.87870 
325 ,61.2208 ,1.30615 ,0.49380 ,4.84512 
326 ,61.3968 ,1.30797 ,0.49380 ,4.84512 
327 ,61.6050 ,1.30999 ,0.47668 ,4.67723 
328 ,61.7970 ,1.31189 ,0.45957 ,4.50934 
329 ,61.9728 ,1.31374 ,0.45957 ,4.50934 
330 ,62.1490 ,1.31549 ,0.42877 ,4.20713 
331 ,62.3250 ,1.31724 ,0.42535 ,4.17355 
332 ,62.5334 ,1.31919 ,0.43904 ,4.30787 
333 ,62.7255 ,1.32119 ,0.41166 ,4.03924 
334 ,62.9016 ,1.32301 ,0.39797 ,3.90493 
335 ,63.0936 ,1.32492 ,0.39797 ,3.90493 
336 ,63.2857 ,1.32689 ,0.36718 ,3.60272 
337 ,63.4776 ,1.32874 ,0.38086 ,3.73703 
338 ,63.6698 ,1.33066 ,0.35349 ,3.46841 
339 ,63.8776 ,1.33275 ,0.35006 ,3.43483 
340 ,64.0539 ,1.33458 ,0.34664 ,3.40125 
341 ,64.2300 ,1.33626 ,0.32953 ,3.23336 
342 ,64.4061 ,1.33805 ,0.30558 ,2.99831 
343 ,64.5823 ,1.33980 ,0.29189 ,2.86400 
344 ,64.7583 ,1.34155 ,0.30558 ,2.99831 
345 ,64.9661 ,1.34365 ,0.26451 ,2.59537 
346 ,65.1585 ,1.34550 ,0.27820 ,2.72969 
347 ,65.3506 ,1.34751 ,0.26451 ,2.59537 
348 ,65.5424 ,1.34936 ,0.24740 ,2.42748 
349 ,65.7186 ,1.35118 ,0.23371 ,2.29317 
350 ,65.8947 ,1.35292 ,0.22344 ,2.19243 
351 ,66.0705 ,1.35464 ,0.21318 ,2.09170 
352 ,66.2469 ,1.35645 ,0.19607 ,1.92381 
353 ,66.4389 ,1.35837 ,0.20291 ,1.99096 
354 ,66.6471 ,1.36031 ,0.18238 ,1.78949 
355 ,66.8226 ,1.36230 ,0.18238 ,1.78949 
356 ,67.0148 ,1.36407 ,0.16527 ,1.62160 
357 ,67.2071 ,1.36596 ,0.14816 ,1.45371 
358 ,67.3993 ,1.36802 ,0.14816 ,1.45371 
359 ,67.6071 ,1.36999 ,0.11736 ,1.15151 
360 ,67.7835 ,1.37182 ,0.11393 ,1.11793 
361 ,67.9755 ,1.37370 ,0.11736 ,1.15151 
362 ,68.1516 ,1.37547 ,0.11051 ,1.08435 
363 ,68.3274 ,1.37723 ,0.08314 ,0.81572 
364 ,68.5198 ,1.37917 ,0.07629 ,0.74857 
365 ,68.6958 ,1.38093 ,0.08314 ,0.81572 
366 ,68.9039 ,1.38294 ,0.04207 ,0.41278 
367 ,69.0799 ,1.38475 ,0.04891 ,0.47994 
368 ,69.2717 ,1.38670 ,0.04549 ,0.44636 
369 ,69.4640 ,1.38857 ,0.02496 ,0.24489 
370 ,69.6563 ,1.39045 ,0.02496 ,0.24489 
371 ,69.8642 ,1.39253 ,0.00785 ,0.07700 
372 ,70.0564 ,1.39447 ,0.01127 ,0.11058 
373 ,70.2324 ,1.39632 ,-0.00584 ,-0.05731 
374 ,70.4241 ,1.39822 ,-0.03322 ,-0.32594 
375 ,70.6165 ,1.40006 ,-0.01953 ,-0.19163 
376 ,70.7927 ,1.40192 ,-0.02637 ,-0.25878 
377 ,70.9847 ,1.40370 ,-0.06744 ,-0.66172 
378 ,71.1768 ,1.40565 ,-0.05375 ,-0.52741 
379 ,71.3689 ,1.40771 ,-0.06060 ,-0.59457 
380 ,71.5608 ,1.40963 ,-0.07086 ,-0.69530 
381 ,71.7531 ,1.41141 ,-0.08455 ,-0.82961 
382 ,71.9451 ,1.41339 ,-0.10508 ,-1.03108 
383 ,72.1372 ,1.41533 ,-0.11877 ,-1.16540 
384 ,72.3133 ,1.41709 ,-0.11535 ,-1.13182 
385 ,72.5054 ,1.41900 ,-0.13588 ,-1.33329 
386 ,72.7295 ,1.42109 ,-0.13246 ,-1.29971 
387 ,72.9215 ,1.42325 ,-0.16326 ,-1.60191 
388 ,73.1136 ,1.42504 ,-0.15299 ,-1.50118 
389 ,73.3373 ,1.42720 ,-0.17353 ,-1.70265 
390 ,73.5134 ,1.42909 ,-0.17011 ,-1.66907 
391 ,73.7058 ,1.43093 ,-0.19406 ,-1.90412 
392 ,73.8816 ,1.43275 ,-0.21117 ,-2.07201 
393 ,74.0579 ,1.43454 ,-0.21802 ,-2.13917 
394 ,74.2501 ,1.43642 ,-0.19406 ,-1.90412 
395 ,74.4262 ,1.43823 ,-0.22828 ,-2.23990 
396 ,74.6023 ,1.43998 ,-0.24197 ,-2.37422 
397 ,74.7781 ,1.44174 ,-0.25224 ,-2.47495 
398 ,74.9865 ,1.44375 ,-0.26593 ,-2.60926 
399 ,75.1784 ,1.44572 ,-0.27961 ,-2.74358 
400 ,75.3546 ,1.44748 ,-0.27277 ,-2.67642 
401 ,75.5467 ,1.44942 ,-0.27619 ,-2.71000 
402 ,75.7386 ,1.45133 ,-0.31041 ,-3.04578 
403 ,75.9148 ,1.45308 ,-0.30357 ,-2.97863 
404 ,76.1069 ,1.45501 ,-0.30357 ,-2.97863 
405 ,76.3149 ,1.45703 ,-0.31041 ,-3.04578 
406 ,76.4911 ,1.45887 ,-0.32752 ,-3.21367 
407 ,76.6671 ,1.46060 ,-0.32752 ,-3.21367 
408 ,76.8429 ,1.46238 ,-0.35148 ,-3.44872 
409 ,77.0193 ,1.46419 ,-0.35490 ,-3.48230 
410 ,77.2111 ,1.46607 ,-0.35832 ,-3.51588 
411 ,77.3875 ,1.46780 ,-0.36859 ,-3.61661 
412 ,77.5794 ,1.46970 ,-0.39255 ,-3.85166 
413 ,77.7557 ,1.47150 ,-0.39939 ,-3.91882 
414 ,77.9473 ,1.47331 ,-0.39255 ,-3.85166 
415 ,78.1238 ,1.47522 ,-0.39255 ,-3.85166 
416 ,78.3157 ,1.47716 ,-0.40966 ,-4.01955 
417 ,78.4919 ,1.47885 ,-0.42335 ,-4.15387 
418 ,78.6839 ,1.48072 ,-0.44388 ,-4.35534 
419 ,78.8920 ,1.48283 ,-0.44388 ,-4.35534 
420 ,79.0841 ,1.48483 ,-0.46099 ,-4.52323 
421 ,79.2600 ,1.48653 ,-0.47126 ,-4.62396 
422 ,79.4681 ,1.48859 ,-0.46783 ,-4.59038 
423 ,79.6600 ,1.49050 ,-0.48494 ,-4.75828 
424 ,79.8367 ,1.49229 ,-0.50548 ,-4.95975 
425 ,80.0445 ,1.49433 ,-0.50206 ,-4.92617 
426 ,80.2206 ,1.49611 ,-0.50890 ,-4.99332 
427 ,80.4288 ,1.49812 ,-0.52601 ,-5.16121 
428 ,80.6208 ,1.50017 ,-0.52259 ,-5.12764 
429 ,80.8129 ,1.50197 ,-0.53970 ,-5.29553 
430 ,81.0050 ,1.50392 ,-0.53628 ,-5.26195 
431 ,81.1807 ,1.50580 ,-0.56023 ,-5.49700 
432 ,81.3731 ,1.50762 ,-0.56365 ,-5.53058 
433 ,81.5652 ,1.50961 ,-0.58077 ,-5.69847 
434 ,81.7413 ,1.51140 ,-0.58077 ,-5.69847 
435 ,81.9338 ,1.51325 ,-0.60130 ,-5.89994 
436 ,82.1255 ,1.51511 ,-0.59445 ,-5.83278 
437 ,82.3335 ,1.51718 ,-0.60814 ,-5.96709 
438 ,82.5095 ,1.51904 ,-0.61499 ,-6.03425 
439 ,82.6856 ,1.52077 ,-0.61156 ,-6.00067 
440 ,82.8617 ,1.52253 ,-0.63552 ,-6.23572 
441 ,83.0375 ,1.52427 ,-0.63894 ,-6.26930 
442 ,83.2299 ,1.52616 ,-0.64236 ,-6.30288 
443 ,83.4379 ,1.52819 ,-0.66290 ,-6.50435 
444 ,83.6461 ,1.53033 ,-0.66974 ,-6.57150 
445 ,83.8379 ,1.53220 ,-0.70396 ,-6.90729 
446 ,84.0301 ,1.53419 ,-0.70054 ,-6.87371 
447 ,84.2058 ,1.53597 ,-0.69712 ,-6.84013 
448 ,84.3819 ,1.53774 ,-0.69712 ,-6.84013 
449 ,84.5743 ,1.53960 ,-0.71423 ,-7.00802 
450 ,84.7823 ,1.54170 ,-0.70396 ,-6.90729 
451 ,84.9584 ,1.54355 ,-0.72792 ,-7.14233 
452 ,85.1346 ,1.54523 ,-0.74503 ,-7.31023 
453 ,85.3266 ,1.54708 ,-0.75530 ,-7.41096 
454 ,85.5183 ,1.54909 ,-0.75530 ,-7.41096 
455 ,85.6947 ,1.55084 ,-0.77583 ,-7.61243 
456 ,85.8707 ,1.55256 ,-0.77583 ,-7.61243 
457 ,86.0628 ,1.55451 ,-0.77241 ,-7.57885 
458 ,86.2550 ,1.55647 ,-0.78952 ,-7.74674 
459 ,86.4313 ,1.55824 ,-0.80663 ,-7.91464 
460 ,86.6230 ,1.56010 ,-0.79978 ,-7.84748 
461 ,86.7993 ,1.56193 ,-0.80663 ,-7.91464 
462 ,86.9913 ,1.56378 ,-0.83401 ,-8.18326 
463 ,87.1994 ,1.56572 ,-0.82032 ,-8.04895 
