Data stamp = , 25-04-2022 02:31:50 499

Calibration Values: 
Slope = , 26.54 , g/V 
Offset Voltage at no contact = , -0.501760 , V 

No , Time , Stage Position ,   Mass , Force 
   ,  (s) ,      (mm)      ,   (g)  , (mN)  

1 ,0.0000 ,0.69951 ,5.24718 ,51.48538 
2 ,0.1998 ,0.69958 ,5.25745 ,51.58611 
3 ,0.6479 ,0.70107 ,5.25061 ,51.51896 
4 ,0.8240 ,0.70270 ,5.24718 ,51.48538 
5 ,1.0325 ,0.70444 ,5.25403 ,51.55254 
6 ,1.2244 ,0.70658 ,5.26772 ,51.68685 
7 ,1.4167 ,0.70840 ,5.26430 ,51.65327 
8 ,1.6088 ,0.71024 ,5.23692 ,51.38464 
9 ,1.7851 ,0.71215 ,5.21296 ,51.14960 
10 ,1.9770 ,0.71409 ,5.19927 ,51.01528 
11 ,2.1852 ,0.71614 ,5.17532 ,50.78023 
12 ,2.3932 ,0.71811 ,5.15821 ,50.61234 
13 ,2.5849 ,0.72008 ,5.14452 ,50.47803 
14 ,2.7773 ,0.72196 ,5.11714 ,50.20940 
15 ,2.9697 ,0.72392 ,5.09661 ,50.00793 
16 ,3.1454 ,0.72578 ,5.07608 ,49.80646 
17 ,3.3371 ,0.72760 ,5.07608 ,49.80646 
18 ,3.5137 ,0.72942 ,5.04870 ,49.53784 
19 ,3.7056 ,0.73133 ,5.01790 ,49.23563 
20 ,3.8818 ,0.73306 ,5.01790 ,49.23563 
21 ,4.0739 ,0.73503 ,5.00421 ,49.10132 
22 ,4.2499 ,0.73678 ,4.98368 ,48.89985 
23 ,4.4256 ,0.73850 ,4.95288 ,48.59764 
24 ,4.6021 ,0.74035 ,4.95288 ,48.59764 
25 ,4.8098 ,0.74233 ,4.93577 ,48.42975 
26 ,4.9861 ,0.74413 ,4.90155 ,48.09397 
27 ,5.1783 ,0.74611 ,4.87759 ,47.85892 
28 ,5.3544 ,0.74780 ,4.87075 ,47.79177 
29 ,5.5299 ,0.74955 ,4.85364 ,47.62387 
30 ,5.7062 ,0.75134 ,4.82626 ,47.35525 
31 ,5.8985 ,0.75318 ,4.82626 ,47.35525 
32 ,6.1067 ,0.75522 ,4.79888 ,47.08662 
33 ,6.2986 ,0.75730 ,4.79888 ,47.08662 
34 ,6.4905 ,0.75915 ,4.76124 ,46.71726 
35 ,6.6825 ,0.76102 ,4.75782 ,46.68368 
36 ,6.8585 ,0.76284 ,4.75097 ,46.61653 
37 ,7.0508 ,0.76469 ,4.70306 ,46.14643 
38 ,7.2272 ,0.76651 ,4.68595 ,45.97854 
39 ,7.4192 ,0.76848 ,4.69964 ,46.11285 
40 ,7.6274 ,0.77054 ,4.65857 ,45.70991 
41 ,7.8190 ,0.77253 ,4.64146 ,45.54202 
42 ,7.9954 ,0.77421 ,4.62093 ,45.34055 
43 ,8.1875 ,0.77608 ,4.60382 ,45.17266 
44 ,8.3636 ,0.77791 ,4.59013 ,45.03835 
45 ,8.5398 ,0.77970 ,4.57986 ,44.93761 
46 ,8.7474 ,0.78167 ,4.55591 ,44.70256 
47 ,8.9399 ,0.78360 ,4.53537 ,44.50109 
48 ,9.1478 ,0.78571 ,4.52169 ,44.36678 
49 ,9.3397 ,0.78765 ,4.50800 ,44.23247 
50 ,9.5156 ,0.78943 ,4.48404 ,43.99742 
51 ,9.6758 ,0.79112 ,4.46009 ,43.76237 
52 ,9.8360 ,0.79269 ,4.45666 ,43.72879 
53 ,10.0283 ,0.79443 ,4.44298 ,43.59448 
54 ,10.2041 ,0.79632 ,4.42586 ,43.42659 
55 ,10.3805 ,0.79804 ,4.41902 ,43.35943 
56 ,10.5727 ,0.79991 ,4.38480 ,43.02365 
57 ,10.7648 ,0.80183 ,4.36769 ,42.85576 
58 ,10.9727 ,0.80399 ,4.34031 ,42.58713 
59 ,11.1489 ,0.80572 ,4.31978 ,42.38566 
60 ,11.3409 ,0.80765 ,4.31978 ,42.38566 
61 ,11.5326 ,0.80957 ,4.28556 ,42.04988 
62 ,11.7089 ,0.81133 ,4.27871 ,41.98272 
63 ,11.9012 ,0.81317 ,4.27529 ,41.94914 
64 ,12.1092 ,0.81531 ,4.23080 ,41.51262 
65 ,12.2854 ,0.81712 ,4.21369 ,41.34473 
66 ,12.4770 ,0.81897 ,4.21027 ,41.31115 
67 ,12.6535 ,0.82082 ,4.17262 ,40.94179 
68 ,12.8454 ,0.82272 ,4.17947 ,41.00895 
69 ,13.0216 ,0.82445 ,4.16578 ,40.87464 
70 ,13.2296 ,0.82646 ,4.14183 ,40.63959 
71 ,13.4378 ,0.82858 ,4.11445 ,40.37096 
72 ,13.6296 ,0.83053 ,4.09734 ,40.20307 
73 ,13.8213 ,0.83244 ,4.09391 ,40.16949 
74 ,13.9979 ,0.83422 ,4.06996 ,39.93444 
75 ,14.1897 ,0.83621 ,4.04943 ,39.73297 
76 ,14.3663 ,0.83792 ,4.04600 ,39.69940 
77 ,14.5902 ,0.84002 ,4.00836 ,39.33003 
78 ,14.7664 ,0.84194 ,4.00494 ,39.29646 
79 ,14.9585 ,0.84381 ,3.97414 ,38.99425 
80 ,15.1823 ,0.84592 ,3.96729 ,38.92709 
81 ,15.3746 ,0.84796 ,3.92965 ,38.55773 
82 ,15.5826 ,0.84999 ,3.92965 ,38.55773 
83 ,15.7584 ,0.85185 ,3.91254 ,38.38984 
84 ,15.9346 ,0.85360 ,3.88516 ,38.12122 
85 ,16.1269 ,0.85553 ,3.88516 ,38.12122 
86 ,16.3185 ,0.85744 ,3.86805 ,37.95332 
87 ,16.4951 ,0.85920 ,3.83383 ,37.61754 
88 ,16.7030 ,0.86117 ,3.83041 ,37.58396 
89 ,16.8791 ,0.86303 ,3.81672 ,37.44965 
90 ,17.0557 ,0.86480 ,3.78250 ,37.11387 
91 ,17.2474 ,0.86672 ,3.78250 ,37.11387 
92 ,17.4394 ,0.86856 ,3.75170 ,36.81166 
93 ,17.6313 ,0.87053 ,3.73117 ,36.61019 
94 ,17.8232 ,0.87236 ,3.73459 ,36.64377 
95 ,18.0157 ,0.87426 ,3.71748 ,36.47588 
96 ,18.2075 ,0.87627 ,3.69694 ,36.27441 
97 ,18.3995 ,0.87815 ,3.67299 ,36.03936 
98 ,18.5919 ,0.88009 ,3.64903 ,35.80431 
99 ,18.7836 ,0.88205 ,3.64561 ,35.77073 
100 ,18.9600 ,0.88380 ,3.64219 ,35.73716 
101 ,19.1519 ,0.88574 ,3.60112 ,35.33422 
102 ,19.3282 ,0.88752 ,3.58401 ,35.16632 
103 ,19.5198 ,0.88949 ,3.55663 ,34.89770 
104 ,19.6964 ,0.89122 ,3.55321 ,34.86412 
105 ,19.8884 ,0.89312 ,3.53268 ,34.66265 
106 ,20.0647 ,0.89488 ,3.53610 ,34.69623 
107 ,20.2566 ,0.89667 ,3.49846 ,34.32687 
108 ,20.4649 ,0.89885 ,3.49846 ,34.32687 
109 ,20.6407 ,0.90065 ,3.46766 ,34.02466 
110 ,20.8168 ,0.90236 ,3.44370 ,33.78961 
111 ,21.0250 ,0.90433 ,3.45055 ,33.85677 
112 ,21.2169 ,0.90629 ,3.41633 ,33.52099 
113 ,21.3932 ,0.90812 ,3.39237 ,33.28594 
114 ,21.5852 ,0.91003 ,3.39921 ,33.35310 
115 ,21.7612 ,0.91180 ,3.38210 ,33.18520 
116 ,21.9534 ,0.91368 ,3.35815 ,32.95016 
117 ,22.1453 ,0.91562 ,3.34446 ,32.81584 
118 ,22.3214 ,0.91741 ,3.33419 ,32.71511 
119 ,22.4973 ,0.91919 ,3.29997 ,32.37933 
120 ,22.6895 ,0.92116 ,3.29655 ,32.34575 
121 ,22.8657 ,0.92291 ,3.27259 ,32.11070 
122 ,23.0574 ,0.92469 ,3.24180 ,31.80849 
123 ,23.2338 ,0.92657 ,3.23495 ,31.74134 
124 ,23.4258 ,0.92846 ,3.23837 ,31.77492 
125 ,23.6339 ,0.93047 ,3.18704 ,31.27124 
126 ,23.8256 ,0.93240 ,3.19046 ,31.30482 
127 ,24.0180 ,0.93431 ,3.16309 ,31.03619 
128 ,24.2100 ,0.93636 ,3.15624 ,30.96904 
129 ,24.3862 ,0.93807 ,3.15282 ,30.93546 
130 ,24.5624 ,0.93982 ,3.13229 ,30.73399 
131 ,24.7384 ,0.94158 ,3.10491 ,30.46536 
132 ,24.9141 ,0.94332 ,3.09122 ,30.33105 
133 ,25.0903 ,0.94509 ,3.07753 ,30.19674 
134 ,25.2826 ,0.94703 ,3.08095 ,30.23031 
135 ,25.4747 ,0.94888 ,3.04673 ,29.89453 
136 ,25.6827 ,0.95095 ,3.02620 ,29.69306 
137 ,25.8588 ,0.95282 ,3.00909 ,29.52517 
138 ,26.0348 ,0.95451 ,3.00567 ,29.49159 
139 ,26.2107 ,0.95629 ,2.98513 ,29.29012 
140 ,26.3870 ,0.95805 ,2.98513 ,29.29012 
141 ,26.5791 ,0.95998 ,2.95433 ,28.98792 
142 ,26.7550 ,0.96177 ,2.92696 ,28.71929 
143 ,26.9471 ,0.96368 ,2.93380 ,28.78645 
144 ,27.1233 ,0.96543 ,2.92011 ,28.65213 
145 ,27.3151 ,0.96734 ,2.89616 ,28.41709 
146 ,27.4915 ,0.96909 ,2.88247 ,28.28277 
147 ,27.7157 ,0.97117 ,2.87562 ,28.21562 
148 ,27.9076 ,0.97330 ,2.84140 ,27.87983 
149 ,28.0834 ,0.97497 ,2.83798 ,27.84625 
150 ,28.2758 ,0.97688 ,2.81060 ,27.57763 
151 ,28.4682 ,0.97888 ,2.80376 ,27.51047 
152 ,28.6441 ,0.98066 ,2.79691 ,27.44332 
153 ,28.8521 ,0.98257 ,2.75927 ,27.07395 
154 ,29.0441 ,0.98456 ,2.74900 ,26.97322 
155 ,29.2358 ,0.98649 ,2.73531 ,26.83891 
156 ,29.4124 ,0.98830 ,2.71820 ,26.67101 
157 ,29.6045 ,0.99025 ,2.72163 ,26.70459 
158 ,29.7806 ,0.99201 ,2.69425 ,26.43597 
159 ,29.9566 ,0.99372 ,2.67372 ,26.23450 
160 ,30.1486 ,0.99566 ,2.67372 ,26.23450 
161 ,30.3246 ,0.99741 ,2.66003 ,26.10018 
162 ,30.5007 ,0.99915 ,2.63265 ,25.83156 
163 ,30.6770 ,1.00092 ,2.61896 ,25.69724 
164 ,30.8690 ,1.00289 ,2.61896 ,25.69724 
165 ,31.0452 ,1.00465 ,2.60527 ,25.56293 
166 ,31.2372 ,1.00653 ,2.55394 ,25.05926 
167 ,31.4292 ,1.00842 ,2.57105 ,25.22715 
168 ,31.6212 ,1.01047 ,2.53683 ,24.89136 
169 ,31.7973 ,1.01214 ,2.52314 ,24.75705 
170 ,31.9896 ,1.01402 ,2.51972 ,24.72347 
171 ,32.1975 ,1.01611 ,2.49576 ,24.48842 
172 ,32.3738 ,1.01793 ,2.46839 ,24.21980 
173 ,32.5656 ,1.01978 ,2.48207 ,24.35411 
174 ,32.7418 ,1.02163 ,2.44785 ,24.01833 
175 ,32.9335 ,1.02344 ,2.43416 ,23.88402 
176 ,33.1099 ,1.02526 ,2.43074 ,23.85044 
177 ,33.3178 ,1.02718 ,2.39994 ,23.54823 
178 ,33.5096 ,1.02922 ,2.41021 ,23.64897 
179 ,33.7019 ,1.03116 ,2.36230 ,23.17887 
180 ,33.9101 ,1.03326 ,2.35545 ,23.11171 
181 ,34.1021 ,1.03520 ,2.33834 ,22.94382 
182 ,34.2784 ,1.03693 ,2.31097 ,22.67520 
183 ,34.4701 ,1.03886 ,2.31439 ,22.70877 
184 ,34.6465 ,1.04062 ,2.30754 ,22.64162 
185 ,34.8382 ,1.04256 ,2.26990 ,22.27226 
186 ,35.0144 ,1.04430 ,2.26648 ,22.23868 
187 ,35.1906 ,1.04603 ,2.25621 ,22.13794 
188 ,35.3829 ,1.04794 ,2.23568 ,21.93647 
189 ,35.5909 ,1.04998 ,2.22541 ,21.83574 
190 ,35.7671 ,1.05192 ,2.20488 ,21.63427 
191 ,35.9752 ,1.05389 ,2.20488 ,21.63427 
192 ,36.1832 ,1.05591 ,2.16723 ,21.26491 
193 ,36.3752 ,1.05789 ,2.15355 ,21.13059 
194 ,36.5511 ,1.05967 ,2.15012 ,21.09702 
195 ,36.7595 ,1.06170 ,2.11590 ,20.76123 
196 ,36.9353 ,1.06349 ,2.10564 ,20.66050 
197 ,37.1116 ,1.06530 ,2.10564 ,20.66050 
198 ,37.3036 ,1.06721 ,2.09879 ,20.59334 
199 ,37.4798 ,1.06897 ,2.06799 ,20.29114 
200 ,37.6880 ,1.07098 ,2.07484 ,20.35829 
201 ,37.8958 ,1.07299 ,2.03377 ,19.95535 
202 ,38.0721 ,1.07490 ,2.02008 ,19.82104 
203 ,38.2641 ,1.07673 ,2.00639 ,19.68673 
204 ,38.4563 ,1.07858 ,1.98586 ,19.48526 
205 ,38.6644 ,1.08072 ,1.97559 ,19.38452 
206 ,38.8560 ,1.08267 ,1.96190 ,19.25021 
207 ,39.0485 ,1.08457 ,1.95506 ,19.18305 
208 ,39.2566 ,1.08668 ,1.94479 ,19.08232 
209 ,39.4646 ,1.08862 ,1.93795 ,19.01516 
210 ,39.6725 ,1.09078 ,1.91057 ,18.74654 
211 ,39.8648 ,1.09273 ,1.88662 ,18.51149 
212 ,40.0568 ,1.09468 ,1.85240 ,18.17570 
213 ,40.2488 ,1.09659 ,1.87635 ,18.41075 
214 ,40.4251 ,1.09839 ,1.83871 ,18.04139 
215 ,40.6170 ,1.10037 ,1.84897 ,18.14213 
216 ,40.7931 ,1.10207 ,1.81475 ,17.80634 
217 ,40.9853 ,1.10401 ,1.81133 ,17.77276 
218 ,41.1934 ,1.10599 ,1.80449 ,17.70561 
219 ,41.3854 ,1.10800 ,1.78053 ,17.47056 
220 ,41.5775 ,1.10986 ,1.76684 ,17.33625 
221 ,41.7695 ,1.11181 ,1.74289 ,17.10120 
222 ,41.9457 ,1.11360 ,1.74289 ,17.10120 
223 ,42.1373 ,1.11541 ,1.72235 ,16.89973 
224 ,42.3138 ,1.11730 ,1.70182 ,16.69826 
225 ,42.4895 ,1.11904 ,1.70182 ,16.69826 
226 ,42.6818 ,1.12088 ,1.67444 ,16.42963 
227 ,42.8742 ,1.12289 ,1.64707 ,16.16101 
228 ,43.0661 ,1.12478 ,1.65733 ,16.26174 
229 ,43.2257 ,1.12650 ,1.62995 ,15.99311 
230 ,43.4023 ,1.12810 ,1.61627 ,15.85880 
231 ,43.5783 ,1.12998 ,1.62653 ,15.95954 
232 ,43.7543 ,1.13169 ,1.60942 ,15.79164 
233 ,43.9304 ,1.13344 ,1.59916 ,15.69091 
234 ,44.1381 ,1.13545 ,1.58204 ,15.52302 
235 ,44.3146 ,1.13726 ,1.56151 ,15.32155 
236 ,44.4905 ,1.13907 ,1.55467 ,15.25439 
237 ,44.6669 ,1.14080 ,1.53071 ,15.01934 
238 ,44.8589 ,1.14277 ,1.51360 ,14.85145 
239 ,45.0349 ,1.14444 ,1.51018 ,14.81787 
240 ,45.2430 ,1.14653 ,1.49649 ,14.68356 
241 ,45.4030 ,1.14825 ,1.47253 ,14.44851 
242 ,45.5792 ,1.14995 ,1.47253 ,14.44851 
243 ,45.7552 ,1.15167 ,1.44516 ,14.17989 
244 ,45.9634 ,1.15371 ,1.42462 ,13.97842 
245 ,46.1554 ,1.15562 ,1.42805 ,14.01199 
246 ,46.3475 ,1.15753 ,1.41778 ,13.91126 
247 ,46.5235 ,1.15941 ,1.39383 ,13.67621 
248 ,46.7156 ,1.16125 ,1.39383 ,13.67621 
249 ,46.9076 ,1.16325 ,1.36645 ,13.40759 
250 ,47.0838 ,1.16492 ,1.35276 ,13.27327 
251 ,47.2759 ,1.16679 ,1.36303 ,13.37401 
252 ,47.4517 ,1.16862 ,1.34249 ,13.17254 
253 ,47.6441 ,1.17055 ,1.31512 ,12.90391 
254 ,47.8520 ,1.17253 ,1.30485 ,12.80318 
255 ,48.0281 ,1.17435 ,1.30143 ,12.76960 
256 ,48.2198 ,1.17625 ,1.27405 ,12.50097 
257 ,48.3966 ,1.17807 ,1.27405 ,12.50097 
258 ,48.5881 ,1.17992 ,1.25352 ,12.29950 
259 ,48.7641 ,1.18177 ,1.23298 ,12.09803 
260 ,48.9406 ,1.18352 ,1.21929 ,11.96372 
261 ,49.1326 ,1.18534 ,1.22272 ,11.99730 
262 ,49.3568 ,1.18753 ,1.21587 ,11.93014 
263 ,49.5489 ,1.18954 ,1.18165 ,11.59436 
264 ,49.7408 ,1.19146 ,1.16796 ,11.46004 
265 ,49.9167 ,1.19334 ,1.17138 ,11.49362 
266 ,50.0932 ,1.19502 ,1.16112 ,11.39289 
267 ,50.2691 ,1.19689 ,1.12347 ,11.02353 
268 ,50.4453 ,1.19858 ,1.11321 ,10.92279 
269 ,50.6373 ,1.20037 ,1.10636 ,10.85563 
270 ,50.8133 ,1.20221 ,1.11321 ,10.92279 
271 ,51.0054 ,1.20417 ,1.08241 ,10.62059 
272 ,51.1815 ,1.20589 ,1.06872 ,10.48627 
273 ,51.3896 ,1.20783 ,1.07556 ,10.55343 
274 ,51.5816 ,1.20986 ,1.05503 ,10.35196 
275 ,51.7734 ,1.21174 ,1.04476 ,10.25123 
276 ,51.9499 ,1.21358 ,1.02423 ,10.04976 
277 ,52.1579 ,1.21562 ,1.02081 ,10.01618 
278 ,52.3339 ,1.21744 ,1.00712 ,9.88186 
279 ,52.5102 ,1.21916 ,0.99001 ,9.71397 
280 ,52.7342 ,1.22127 ,0.97632 ,9.57966 
281 ,52.9262 ,1.22334 ,0.95237 ,9.34461 
282 ,53.1023 ,1.22512 ,0.94210 ,9.24388 
283 ,53.2944 ,1.22694 ,0.93183 ,9.14314 
284 ,53.4864 ,1.22889 ,0.91130 ,8.94167 
285 ,53.6627 ,1.23075 ,0.91472 ,8.97525 
286 ,53.8547 ,1.23266 ,0.91130 ,8.94167 
287 ,54.0466 ,1.23449 ,0.87023 ,8.53873 
288 ,54.2228 ,1.23631 ,0.87023 ,8.53873 
289 ,54.4306 ,1.23831 ,0.85654 ,8.40442 
290 ,54.6230 ,1.24026 ,0.85654 ,8.40442 
291 ,54.8148 ,1.24225 ,0.85312 ,8.37084 
292 ,55.0227 ,1.24423 ,0.83943 ,8.23653 
293 ,55.1992 ,1.24611 ,0.83601 ,8.20295 
294 ,55.3913 ,1.24787 ,0.82575 ,8.10221 
295 ,55.5830 ,1.24985 ,0.80863 ,7.93432 
296 ,55.7754 ,1.25173 ,0.78468 ,7.69927 
297 ,55.9677 ,1.25373 ,0.76072 ,7.46423 
298 ,56.1755 ,1.25573 ,0.75730 ,7.43065 
299 ,56.3515 ,1.25759 ,0.75388 ,7.39707 
300 ,56.5278 ,1.25936 ,0.72992 ,7.16202 
301 ,56.7198 ,1.26122 ,0.73335 ,7.19560 
302 ,56.9276 ,1.26329 ,0.70255 ,6.89340 
303 ,57.1040 ,1.26514 ,0.70255 ,6.89340 
304 ,57.3121 ,1.26713 ,0.68544 ,6.72550 
305 ,57.5199 ,1.26920 ,0.67859 ,6.65835 
306 ,57.6962 ,1.27105 ,0.67517 ,6.62477 
307 ,57.9044 ,1.27309 ,0.65464 ,6.42330 
308 ,58.0963 ,1.27501 ,0.65121 ,6.38972 
309 ,58.2721 ,1.27678 ,0.62384 ,6.12109 
310 ,58.4485 ,1.27860 ,0.61357 ,6.02036 
311 ,58.6246 ,1.28035 ,0.60330 ,5.91962 
312 ,58.8165 ,1.28223 ,0.61015 ,5.98678 
313 ,59.0088 ,1.28414 ,0.57593 ,5.65100 
314 ,59.2009 ,1.28606 ,0.56908 ,5.58384 
315 ,59.4088 ,1.28810 ,0.56224 ,5.51668 
316 ,59.5849 ,1.28992 ,0.54171 ,5.31522 
317 ,59.7610 ,1.29169 ,0.54513 ,5.34879 
318 ,59.9852 ,1.29377 ,0.52117 ,5.11375 
319 ,60.1772 ,1.29580 ,0.52117 ,5.11375 
320 ,60.3693 ,1.29779 ,0.51091 ,5.01301 
321 ,60.5454 ,1.29951 ,0.48695 ,4.77796 
322 ,60.7536 ,1.30154 ,0.47668 ,4.67723 
323 ,60.9291 ,1.30339 ,0.46984 ,4.61007 
324 ,61.1050 ,1.30520 ,0.47668 ,4.67723 
325 ,61.2811 ,1.30687 ,0.44931 ,4.40860 
326 ,61.4736 ,1.30871 ,0.45957 ,4.50934 
327 ,61.6816 ,1.31090 ,0.43562 ,4.27429 
328 ,61.8895 ,1.31292 ,0.41509 ,4.07282 
329 ,62.0660 ,1.31469 ,0.39797 ,3.90493 
330 ,62.2578 ,1.31657 ,0.39113 ,3.83777 
331 ,62.4662 ,1.31855 ,0.37744 ,3.70346 
332 ,62.6579 ,1.32068 ,0.36718 ,3.60272 
333 ,62.8498 ,1.32247 ,0.36718 ,3.60272 
334 ,63.0263 ,1.32434 ,0.35349 ,3.46841 
335 ,63.2023 ,1.32604 ,0.35691 ,3.50199 
336 ,63.3945 ,1.32792 ,0.31926 ,3.13263 
337 ,63.5865 ,1.32986 ,0.33295 ,3.26694 
338 ,63.7466 ,1.33162 ,0.31926 ,3.13263 
339 ,63.9223 ,1.33327 ,0.30215 ,2.96473 
340 ,64.0988 ,1.33499 ,0.29189 ,2.86400 
341 ,64.3069 ,1.33712 ,0.27478 ,2.69611 
342 ,64.5149 ,1.33911 ,0.26109 ,2.56179 
343 ,64.7068 ,1.34111 ,0.26451 ,2.59537 
344 ,64.9150 ,1.34309 ,0.26109 ,2.56179 
345 ,65.0909 ,1.34509 ,0.24398 ,2.39390 
346 ,65.2832 ,1.34687 ,0.24055 ,2.36032 
347 ,65.4594 ,1.34865 ,0.22687 ,2.22601 
348 ,65.6515 ,1.35056 ,0.21318 ,2.09170 
349 ,65.8431 ,1.35247 ,0.20291 ,1.99096 
350 ,66.0194 ,1.35427 ,0.18238 ,1.78949 
351 ,66.2115 ,1.35611 ,0.17211 ,1.68876 
352 ,66.4196 ,1.35817 ,0.17896 ,1.75592 
353 ,66.6116 ,1.36010 ,0.15158 ,1.48729 
354 ,66.8040 ,1.36212 ,0.15842 ,1.55445 
355 ,66.9800 ,1.36391 ,0.13789 ,1.35298 
356 ,67.1561 ,1.36561 ,0.13105 ,1.28582 
357 ,67.3482 ,1.36749 ,0.12078 ,1.18508 
358 ,67.5403 ,1.36942 ,0.11736 ,1.15151 
359 ,67.7322 ,1.37125 ,0.11051 ,1.08435 
360 ,67.9084 ,1.37311 ,0.06945 ,0.68141 
361 ,68.0842 ,1.37496 ,0.08314 ,0.81572 
362 ,68.2766 ,1.37669 ,0.06945 ,0.68141 
363 ,68.4689 ,1.37867 ,0.05576 ,0.54710 
364 ,68.6606 ,1.38063 ,0.05234 ,0.51352 
365 ,68.8526 ,1.38258 ,0.03865 ,0.37920 
366 ,69.0286 ,1.38434 ,0.02154 ,0.21131 
367 ,69.2207 ,1.38624 ,0.02496 ,0.24489 
368 ,69.3966 ,1.38807 ,0.00443 ,0.04342 
369 ,69.5727 ,1.38975 ,-0.01611 ,-0.15805 
370 ,69.7487 ,1.39148 ,-0.01953 ,-0.19163 
371 ,69.9411 ,1.39341 ,-0.00926 ,-0.09089 
372 ,70.1329 ,1.39538 ,-0.03322 ,-0.32594 
373 ,70.3254 ,1.39723 ,-0.02295 ,-0.22520 
374 ,70.5175 ,1.39917 ,-0.04691 ,-0.46025 
375 ,70.7095 ,1.40108 ,-0.06402 ,-0.62814 
376 ,70.8856 ,1.40287 ,-0.06744 ,-0.66172 
377 ,71.0777 ,1.40478 ,-0.08797 ,-0.86319 
378 ,71.2534 ,1.40654 ,-0.09482 ,-0.93035 
379 ,71.4459 ,1.40842 ,-0.09482 ,-0.93035 
380 ,71.6219 ,1.41027 ,-0.10508 ,-1.03108 
381 ,71.8140 ,1.41208 ,-0.12904 ,-1.26613 
382 ,72.0059 ,1.41409 ,-0.12904 ,-1.26613 
383 ,72.1822 ,1.41587 ,-0.13246 ,-1.29971 
384 ,72.3903 ,1.41785 ,-0.15642 ,-1.53476 
385 ,72.5823 ,1.41981 ,-0.14273 ,-1.40045 
386 ,72.7585 ,1.42161 ,-0.16326 ,-1.60191 
387 ,72.9666 ,1.42351 ,-0.18722 ,-1.83696 
388 ,73.1586 ,1.42556 ,-0.18379 ,-1.80338 
389 ,73.3504 ,1.42750 ,-0.21117 ,-2.07201 
390 ,73.5427 ,1.42943 ,-0.20433 ,-2.00485 
391 ,73.7668 ,1.43154 ,-0.22828 ,-2.23990 
392 ,73.9588 ,1.43354 ,-0.24539 ,-2.40779 
393 ,74.1829 ,1.43574 ,-0.23513 ,-2.30706 
394 ,74.3751 ,1.43772 ,-0.26250 ,-2.57569 
395 ,74.5669 ,1.43963 ,-0.26250 ,-2.57569 
396 ,74.7592 ,1.44161 ,-0.26593 ,-2.60926 
397 ,74.9512 ,1.44343 ,-0.28988 ,-2.84431 
398 ,75.1594 ,1.44546 ,-0.28304 ,-2.77716 
399 ,75.3512 ,1.44744 ,-0.31726 ,-3.11294 
400 ,75.5270 ,1.44934 ,-0.30357 ,-2.97863 
401 ,75.7196 ,1.45111 ,-0.32068 ,-3.14652 
402 ,75.9113 ,1.45311 ,-0.33437 ,-3.28083 
403 ,76.0877 ,1.45487 ,-0.35148 ,-3.44872 
404 ,76.2799 ,1.45674 ,-0.35832 ,-3.51588 
405 ,76.4879 ,1.45881 ,-0.35148 ,-3.44872 
406 ,76.6797 ,1.46073 ,-0.36175 ,-3.54946 
407 ,76.8556 ,1.46258 ,-0.37201 ,-3.65019 
408 ,77.0318 ,1.46429 ,-0.39939 ,-3.91882 
409 ,77.2082 ,1.46613 ,-0.37886 ,-3.71735 
410 ,77.4003 ,1.46792 ,-0.40966 ,-4.01955 
411 ,77.6081 ,1.47000 ,-0.41308 ,-4.05313 
412 ,77.7844 ,1.47184 ,-0.41308 ,-4.05313 
413 ,77.9766 ,1.47378 ,-0.43361 ,-4.25460 
414 ,78.1685 ,1.47562 ,-0.43361 ,-4.25460 
415 ,78.3449 ,1.47744 ,-0.45072 ,-4.42249 
416 ,78.5203 ,1.47924 ,-0.47126 ,-4.62396 
417 ,78.6967 ,1.48098 ,-0.46783 ,-4.59038 
418 ,78.8726 ,1.48276 ,-0.48494 ,-4.75828 
419 ,79.0650 ,1.48465 ,-0.47468 ,-4.65754 
420 ,79.2569 ,1.48655 ,-0.50206 ,-4.92617 
421 ,79.4491 ,1.48840 ,-0.48837 ,-4.79185 
422 ,79.6251 ,1.49023 ,-0.49863 ,-4.89259 
423 ,79.8169 ,1.49211 ,-0.53285 ,-5.22837 
424 ,80.0251 ,1.49420 ,-0.51917 ,-5.09406 
425 ,80.2335 ,1.49620 ,-0.54654 ,-5.36268 
426 ,80.4416 ,1.49828 ,-0.54997 ,-5.39626 
427 ,80.6176 ,1.50020 ,-0.55681 ,-5.46342 
428 ,80.8095 ,1.50204 ,-0.55339 ,-5.42984 
429 ,80.9857 ,1.50396 ,-0.57734 ,-5.66489 
430 ,81.1776 ,1.50573 ,-0.60130 ,-5.89994 
431 ,81.3860 ,1.50771 ,-0.59788 ,-5.86636 
432 ,81.5777 ,1.50972 ,-0.60472 ,-5.93352 
433 ,81.7542 ,1.51156 ,-0.62183 ,-6.10141 
434 ,81.9460 ,1.51341 ,-0.61499 ,-6.03425 
435 ,82.1383 ,1.51532 ,-0.63894 ,-6.26930 
436 ,82.3301 ,1.51723 ,-0.64236 ,-6.30288 
437 ,82.5065 ,1.51905 ,-0.65263 ,-6.40361 
438 ,82.7144 ,1.52108 ,-0.66974 ,-6.57150 
439 ,83.0183 ,1.52355 ,-0.67659 ,-6.63866 
440 ,83.1947 ,1.52592 ,-0.68685 ,-6.73940 
441 ,83.3868 ,1.52782 ,-0.68343 ,-6.70582 
442 ,83.5789 ,1.52970 ,-0.70739 ,-6.94086 
443 ,83.7710 ,1.53164 ,-0.70739 ,-6.94086 
444 ,83.9789 ,1.53368 ,-0.72792 ,-7.14233 
445 ,84.1546 ,1.53552 ,-0.73818 ,-7.24307 
446 ,84.3632 ,1.53749 ,-0.72107 ,-7.07518 
447 ,84.5711 ,1.53962 ,-0.74503 ,-7.31023 
448 ,84.7474 ,1.54147 ,-0.74845 ,-7.34380 
449 ,84.9553 ,1.54344 ,-0.77583 ,-7.61243 
450 ,85.1154 ,1.54524 ,-0.78610 ,-7.71317 
451 ,85.3074 ,1.54701 ,-0.76214 ,-7.47812 
452 ,85.4837 ,1.54884 ,-0.77925 ,-7.64601 
453 ,85.6756 ,1.55074 ,-0.79978 ,-7.84748 
454 ,85.8512 ,1.55249 ,-0.79978 ,-7.84748 
455 ,86.0440 ,1.55443 ,-0.80321 ,-7.88106 
456 ,86.2198 ,1.55620 ,-0.82032 ,-8.04895 
457 ,86.4118 ,1.55797 ,-0.82374 ,-8.08253 
458 ,86.6043 ,1.55998 ,-0.83401 ,-8.18326 
459 ,86.7801 ,1.56181 ,-0.85112 ,-8.35115 
460 ,86.9562 ,1.56355 ,-0.85796 ,-8.41831 
461 ,87.1485 ,1.56537 ,-0.84427 ,-8.28400 
462 ,87.3404 ,1.56735 ,-0.85796 ,-8.41831 
463 ,87.5325 ,1.56919 ,-0.88534 ,-8.68694 
