Data stamp = , 24-04-2022 17:05:43 272

Calibration Values: 
Slope = , 26.54 , g/V 
Offset Voltage at no contact = , -0.501760 , V 

No , Time , Stage Position ,   Mass , Force 
   ,  (s) ,      (mm)      ,   (g)  , (mN)  

1 ,0.0000 ,0.69936 ,5.28825 ,51.88832 
2 ,0.2270 ,0.69947 ,5.28483 ,51.85474 
3 ,0.5473 ,0.70036 ,5.29510 ,51.95548 
4 ,0.7713 ,0.70194 ,5.30194 ,52.02263 
5 ,0.9796 ,0.70387 ,5.30194 ,52.02263 
6 ,1.1878 ,0.70597 ,5.27798 ,51.78758 
7 ,1.3797 ,0.70785 ,5.30194 ,52.02263 
8 ,1.5719 ,0.70977 ,5.28141 ,51.82116 
9 ,1.7637 ,0.71168 ,5.27114 ,51.72043 
10 ,1.9560 ,0.71359 ,5.28141 ,51.82116 
11 ,2.1642 ,0.71575 ,5.26430 ,51.65327 
12 ,2.3400 ,0.71763 ,5.25061 ,51.51896 
13 ,2.5001 ,0.71922 ,5.25061 ,51.51896 
14 ,2.6759 ,0.72091 ,5.24376 ,51.45180 
15 ,2.8519 ,0.72266 ,5.21981 ,51.21675 
16 ,3.0444 ,0.72458 ,5.19243 ,50.94813 
17 ,3.2364 ,0.72646 ,5.18559 ,50.88097 
18 ,3.4125 ,0.72828 ,5.14110 ,50.44445 
19 ,3.5887 ,0.73005 ,5.13425 ,50.37729 
20 ,3.7967 ,0.73198 ,5.12399 ,50.27656 
21 ,4.0043 ,0.73405 ,5.08977 ,49.94078 
22 ,4.1970 ,0.73598 ,5.07950 ,49.84004 
23 ,4.3889 ,0.73800 ,5.05897 ,49.63857 
24 ,4.5650 ,0.73980 ,5.02817 ,49.33637 
25 ,4.7409 ,0.74150 ,5.01790 ,49.23563 
26 ,4.9010 ,0.74322 ,5.01448 ,49.20205 
27 ,5.0771 ,0.74483 ,4.99052 ,48.96701 
28 ,5.2529 ,0.74663 ,4.98026 ,48.86627 
29 ,5.4293 ,0.74843 ,4.95288 ,48.59764 
30 ,5.6373 ,0.75042 ,4.94946 ,48.56407 
31 ,5.8132 ,0.75222 ,4.92892 ,48.36260 
32 ,6.0055 ,0.75411 ,4.88786 ,47.95966 
33 ,6.1816 ,0.75599 ,4.88786 ,47.95966 
34 ,6.3735 ,0.75775 ,4.84337 ,47.52314 
35 ,6.5659 ,0.75981 ,4.84679 ,47.55672 
36 ,6.7579 ,0.76165 ,4.81941 ,47.28809 
37 ,6.9500 ,0.76360 ,4.80915 ,47.18736 
38 ,7.1417 ,0.76545 ,4.76466 ,46.75084 
39 ,7.3181 ,0.76733 ,4.75439 ,46.65010 
40 ,7.5262 ,0.76923 ,4.75097 ,46.61653 
41 ,7.7342 ,0.77140 ,4.73728 ,46.48221 
42 ,7.9264 ,0.77334 ,4.69622 ,46.07927 
43 ,8.1342 ,0.77539 ,4.69622 ,46.07927 
44 ,8.3104 ,0.77720 ,4.67226 ,45.84422 
45 ,8.5027 ,0.77903 ,4.63119 ,45.44128 
46 ,8.7107 ,0.78118 ,4.62435 ,45.37413 
47 ,8.9029 ,0.78306 ,4.59697 ,45.10550 
48 ,9.1107 ,0.78513 ,4.60382 ,45.17266 
49 ,9.2866 ,0.78707 ,4.57302 ,44.87045 
50 ,9.4789 ,0.78883 ,4.55933 ,44.73614 
51 ,9.6707 ,0.79081 ,4.54564 ,44.60183 
52 ,9.8791 ,0.79285 ,4.51142 ,44.26604 
53 ,10.0874 ,0.79495 ,4.49431 ,44.09815 
54 ,10.2792 ,0.79689 ,4.47035 ,43.86310 
55 ,10.4554 ,0.79870 ,4.46009 ,43.76237 
56 ,10.6634 ,0.80059 ,4.42929 ,43.46016 
57 ,10.8557 ,0.80256 ,4.43271 ,43.49374 
58 ,11.0475 ,0.80448 ,4.40191 ,43.19154 
59 ,11.2398 ,0.80649 ,4.38138 ,42.99007 
60 ,11.4315 ,0.80839 ,4.38480 ,43.02365 
61 ,11.6080 ,0.81020 ,4.36427 ,42.82218 
62 ,11.8000 ,0.81208 ,4.31636 ,42.35208 
63 ,11.9920 ,0.81396 ,4.32662 ,42.45282 
64 ,12.1682 ,0.81579 ,4.30951 ,42.28492 
65 ,12.3603 ,0.81765 ,4.27871 ,41.98272 
66 ,12.5519 ,0.81960 ,4.26845 ,41.88198 
67 ,12.8720 ,0.82208 ,4.25133 ,41.71409 
68 ,13.0645 ,0.82471 ,4.20342 ,41.24400 
69 ,13.2567 ,0.82667 ,4.19316 ,41.14326 
70 ,13.4485 ,0.82858 ,4.18974 ,41.10968 
71 ,13.6408 ,0.83040 ,4.14867 ,40.70674 
72 ,13.8328 ,0.83240 ,4.13156 ,40.53885 
73 ,14.0567 ,0.83448 ,4.10076 ,40.23665 
74 ,14.2330 ,0.83639 ,4.10076 ,40.23665 
75 ,14.4250 ,0.83824 ,4.07680 ,40.00160 
76 ,14.6012 ,0.84012 ,4.06654 ,39.90087 
77 ,14.7932 ,0.84197 ,4.05969 ,39.83371 
78 ,14.9692 ,0.84376 ,4.04258 ,39.66582 
79 ,15.1457 ,0.84551 ,4.02547 ,39.49793 
80 ,15.3376 ,0.84738 ,3.98783 ,39.12856 
81 ,15.5454 ,0.84945 ,3.98098 ,39.06141 
82 ,15.7373 ,0.85133 ,3.96387 ,38.89352 
83 ,15.9298 ,0.85331 ,3.95703 ,38.82636 
84 ,16.1218 ,0.85528 ,3.92965 ,38.55773 
85 ,16.2980 ,0.85703 ,3.89543 ,38.22195 
86 ,16.4899 ,0.85892 ,3.90912 ,38.35626 
87 ,16.6656 ,0.86072 ,3.89201 ,38.18837 
88 ,16.8417 ,0.86249 ,3.87832 ,38.05406 
89 ,17.0178 ,0.86424 ,3.83041 ,37.58396 
90 ,17.2101 ,0.86612 ,3.85094 ,37.78543 
91 ,17.4023 ,0.86808 ,3.82014 ,37.48323 
92 ,17.5783 ,0.86985 ,3.78934 ,37.18102 
93 ,17.7543 ,0.87156 ,3.76881 ,36.97955 
94 ,17.9460 ,0.87345 ,3.78250 ,37.11387 
95 ,18.1386 ,0.87532 ,3.75170 ,36.81166 
96 ,18.3306 ,0.87739 ,3.72774 ,36.57661 
97 ,18.5227 ,0.87923 ,3.71063 ,36.40872 
98 ,18.7307 ,0.88124 ,3.67983 ,36.10652 
99 ,18.9068 ,0.88313 ,3.66957 ,36.00578 
100 ,19.0824 ,0.88485 ,3.66614 ,35.97220 
101 ,19.2748 ,0.88678 ,3.63192 ,35.63642 
102 ,19.4510 ,0.88856 ,3.62166 ,35.53569 
103 ,19.6272 ,0.89032 ,3.60454 ,35.36779 
104 ,19.8191 ,0.89224 ,3.59428 ,35.26706 
105 ,19.9954 ,0.89398 ,3.56348 ,34.96485 
106 ,20.1875 ,0.89589 ,3.56348 ,34.96485 
107 ,20.3954 ,0.89791 ,3.52926 ,34.62907 
108 ,20.5716 ,0.89975 ,3.51215 ,34.46118 
109 ,20.7796 ,0.90178 ,3.49504 ,34.29329 
110 ,20.9554 ,0.90358 ,3.48135 ,34.15898 
111 ,21.1313 ,0.90535 ,3.45397 ,33.89035 
112 ,21.3239 ,0.90723 ,3.46424 ,33.99108 
113 ,21.5159 ,0.90914 ,3.42317 ,33.58814 
114 ,21.7076 ,0.91112 ,3.43344 ,33.68888 
115 ,21.8841 ,0.91288 ,3.41290 ,33.48741 
116 ,22.0760 ,0.91478 ,3.37868 ,33.15163 
117 ,22.2679 ,0.91664 ,3.38210 ,33.18520 
118 ,22.4603 ,0.91858 ,3.35815 ,32.95016 
119 ,22.6523 ,0.92052 ,3.32051 ,32.58080 
120 ,22.8283 ,0.92231 ,3.32735 ,32.64795 
121 ,23.0201 ,0.92421 ,3.31366 ,32.51364 
122 ,23.2121 ,0.92607 ,3.28286 ,32.21143 
123 ,23.3883 ,0.92797 ,3.26233 ,32.00996 
124 ,23.5647 ,0.92970 ,3.26575 ,32.04354 
125 ,23.7887 ,0.93182 ,3.24864 ,31.87565 
126 ,23.9809 ,0.93377 ,3.22811 ,31.67418 
127 ,24.1727 ,0.93569 ,3.19731 ,31.37198 
128 ,24.3487 ,0.93766 ,3.19388 ,31.33840 
129 ,24.5250 ,0.93929 ,3.18362 ,31.23766 
130 ,24.7167 ,0.94120 ,3.15966 ,31.00262 
131 ,24.9094 ,0.94314 ,3.13913 ,30.80115 
132 ,25.1493 ,0.94528 ,3.11518 ,30.56610 
133 ,25.3575 ,0.94757 ,3.10833 ,30.49894 
134 ,25.5656 ,0.94961 ,3.08780 ,30.29747 
135 ,25.7736 ,0.95173 ,3.08780 ,30.29747 
136 ,25.9657 ,0.95365 ,3.06384 ,30.06242 
137 ,26.1418 ,0.95544 ,3.05358 ,29.96169 
138 ,26.3180 ,0.95722 ,3.03989 ,29.82737 
139 ,26.5095 ,0.95917 ,3.02278 ,29.65948 
140 ,26.7021 ,0.96092 ,2.99882 ,29.42444 
141 ,26.9102 ,0.96309 ,2.99540 ,29.39086 
142 ,27.1022 ,0.96505 ,2.97829 ,29.22297 
143 ,27.3103 ,0.96702 ,2.93722 ,28.82003 
144 ,27.5184 ,0.96909 ,2.94064 ,28.85360 
145 ,27.7104 ,0.97118 ,2.91669 ,28.61856 
146 ,27.8866 ,0.97287 ,2.90985 ,28.55140 
147 ,28.0947 ,0.97494 ,2.88931 ,28.34993 
148 ,28.2705 ,0.97674 ,2.86193 ,28.08130 
149 ,28.4628 ,0.97857 ,2.87220 ,28.18204 
150 ,28.6544 ,0.98047 ,2.82771 ,27.74552 
151 ,28.8310 ,0.98236 ,2.81745 ,27.64479 
152 ,29.0070 ,0.98410 ,2.79349 ,27.40974 
153 ,29.1991 ,0.98599 ,2.81060 ,27.57763 
154 ,29.3912 ,0.98784 ,2.77638 ,27.24185 
155 ,29.5829 ,0.98983 ,2.76954 ,27.17469 
156 ,29.7587 ,0.99168 ,2.74558 ,26.93964 
157 ,29.9352 ,0.99334 ,2.74216 ,26.90606 
158 ,30.1115 ,0.99512 ,2.70794 ,26.57028 
159 ,30.3195 ,0.99703 ,2.70109 ,26.50312 
160 ,30.5116 ,0.99905 ,2.67029 ,26.20092 
161 ,30.6873 ,1.00086 ,2.67029 ,26.20092 
162 ,30.8634 ,1.00261 ,2.64634 ,25.96587 
163 ,31.0559 ,1.00459 ,2.64634 ,25.96587 
164 ,31.2639 ,1.00662 ,2.62923 ,25.79798 
165 ,31.4559 ,1.00861 ,2.61554 ,25.66367 
166 ,31.6481 ,1.01039 ,2.57789 ,25.29430 
167 ,31.8399 ,1.01240 ,2.58816 ,25.39504 
168 ,32.0163 ,1.01415 ,2.56763 ,25.19357 
169 ,32.2083 ,1.01609 ,2.53341 ,24.85779 
170 ,32.3841 ,1.01780 ,2.52314 ,24.75705 
171 ,32.5605 ,1.01960 ,2.52656 ,24.79063 
172 ,32.7366 ,1.02132 ,2.51972 ,24.72347 
173 ,32.9123 ,1.02315 ,2.48892 ,24.42127 
174 ,33.0883 ,1.02494 ,2.46839 ,24.21980 
175 ,33.2803 ,1.02670 ,2.45812 ,24.11906 
176 ,33.4567 ,1.02857 ,2.45127 ,24.05191 
177 ,33.6647 ,1.03065 ,2.41705 ,23.71612 
178 ,33.8569 ,1.03245 ,2.41705 ,23.71612 
179 ,34.0328 ,1.03430 ,2.39994 ,23.54823 
180 ,34.2090 ,1.03612 ,2.39310 ,23.48108 
181 ,34.4012 ,1.03795 ,2.36572 ,23.21245 
182 ,34.5933 ,1.03985 ,2.36914 ,23.24603 
183 ,34.8015 ,1.04193 ,2.34177 ,22.97740 
184 ,34.9931 ,1.04390 ,2.33150 ,22.87667 
185 ,35.1696 ,1.04567 ,2.29728 ,22.54088 
186 ,35.3616 ,1.04753 ,2.29728 ,22.54088 
187 ,35.5378 ,1.04935 ,2.29043 ,22.47373 
188 ,35.7458 ,1.05136 ,2.25621 ,22.13794 
189 ,35.9380 ,1.05338 ,2.24937 ,22.07079 
190 ,36.1297 ,1.05524 ,2.21857 ,21.76858 
191 ,36.3222 ,1.05719 ,2.21857 ,21.76858 
192 ,36.5300 ,1.05924 ,2.18777 ,21.46638 
193 ,36.7063 ,1.06101 ,2.18092 ,21.39922 
194 ,36.8822 ,1.06282 ,2.16039 ,21.19775 
195 ,37.0907 ,1.06485 ,2.16381 ,21.23133 
196 ,37.2982 ,1.06693 ,2.15355 ,21.13059 
197 ,37.4744 ,1.06871 ,2.13644 ,20.96270 
198 ,37.6665 ,1.07065 ,2.11932 ,20.79481 
199 ,37.8583 ,1.07256 ,2.10221 ,20.62692 
200 ,38.0508 ,1.07436 ,2.09537 ,20.55976 
201 ,38.2428 ,1.07638 ,2.05430 ,20.15682 
202 ,38.4349 ,1.07830 ,2.06799 ,20.29114 
203 ,38.6431 ,1.08034 ,2.03377 ,19.95535 
204 ,38.8351 ,1.08229 ,2.03035 ,19.92178 
205 ,39.0272 ,1.08423 ,2.01666 ,19.78746 
206 ,39.2033 ,1.08600 ,1.97559 ,19.38452 
207 ,39.3951 ,1.08793 ,1.98928 ,19.51884 
208 ,39.5714 ,1.08976 ,1.96875 ,19.31737 
209 ,39.7635 ,1.09156 ,1.94822 ,19.11590 
210 ,39.9397 ,1.09336 ,1.95506 ,19.18305 
211 ,40.1318 ,1.09530 ,1.93111 ,18.94801 
212 ,40.3399 ,1.09729 ,1.90715 ,18.71296 
213 ,40.5315 ,1.09926 ,1.89688 ,18.61222 
214 ,40.7080 ,1.10105 ,1.89346 ,18.57864 
215 ,40.9000 ,1.10303 ,1.89004 ,18.54507 
216 ,41.0922 ,1.10484 ,1.85240 ,18.17570 
217 ,41.2842 ,1.10675 ,1.83186 ,17.97423 
218 ,41.4602 ,1.10872 ,1.82160 ,17.87350 
219 ,41.6359 ,1.11037 ,1.82502 ,17.90708 
220 ,41.8285 ,1.11214 ,1.81475 ,17.80634 
221 ,42.0205 ,1.11417 ,1.78053 ,17.47056 
222 ,42.1967 ,1.11596 ,1.76684 ,17.33625 
223 ,42.4045 ,1.11792 ,1.76000 ,17.26909 
224 ,42.5808 ,1.11978 ,1.72920 ,16.96689 
225 ,42.7886 ,1.12179 ,1.73604 ,17.03404 
226 ,42.9648 ,1.12360 ,1.71893 ,16.86615 
227 ,43.1409 ,1.12536 ,1.69840 ,16.66468 
228 ,43.3170 ,1.12714 ,1.68129 ,16.49679 
229 ,43.4930 ,1.12891 ,1.68813 ,16.56395 
230 ,43.6852 ,1.13073 ,1.66418 ,16.32890 
231 ,43.8771 ,1.13274 ,1.65049 ,16.19458 
232 ,44.0854 ,1.13477 ,1.62653 ,15.95954 
233 ,44.2933 ,1.13682 ,1.63680 ,16.06027 
234 ,44.4856 ,1.13873 ,1.61627 ,15.85880 
235 ,44.6774 ,1.14065 ,1.58889 ,15.59018 
236 ,44.8533 ,1.14253 ,1.59231 ,15.62375 
237 ,45.0617 ,1.14441 ,1.55467 ,15.25439 
238 ,45.2699 ,1.14648 ,1.55809 ,15.28797 
239 ,45.4779 ,1.14869 ,1.54782 ,15.18724 
240 ,45.6700 ,1.15059 ,1.52729 ,14.98577 
241 ,45.8776 ,1.15265 ,1.49991 ,14.71714 
242 ,46.0537 ,1.15453 ,1.49991 ,14.71714 
243 ,46.2462 ,1.15642 ,1.50676 ,14.78430 
244 ,46.4222 ,1.15825 ,1.46569 ,14.38136 
245 ,46.5985 ,1.15997 ,1.44174 ,14.14631 
246 ,46.7904 ,1.16186 ,1.45200 ,14.24704 
247 ,46.9821 ,1.16373 ,1.43147 ,14.04557 
248 ,47.1906 ,1.16572 ,1.40751 ,13.81053 
249 ,47.3987 ,1.16787 ,1.38698 ,13.60906 
250 ,47.5906 ,1.16983 ,1.39725 ,13.70979 
251 ,47.7668 ,1.17160 ,1.38014 ,13.54190 
252 ,47.9749 ,1.17362 ,1.35618 ,13.30685 
253 ,48.1830 ,1.17572 ,1.33907 ,13.13896 
254 ,48.3750 ,1.17766 ,1.33565 ,13.10538 
255 ,48.5670 ,1.17960 ,1.33565 ,13.10538 
256 ,48.7592 ,1.18155 ,1.29800 ,12.73602 
257 ,48.9513 ,1.18340 ,1.29800 ,12.73602 
258 ,49.1430 ,1.18528 ,1.28432 ,12.60171 
259 ,49.3195 ,1.18715 ,1.27405 ,12.50097 
260 ,49.5114 ,1.18909 ,1.26036 ,12.36666 
261 ,49.6877 ,1.19088 ,1.25009 ,12.26592 
262 ,49.8956 ,1.19282 ,1.22272 ,11.99730 
263 ,50.0718 ,1.19467 ,1.22272 ,11.99730 
264 ,50.2635 ,1.19661 ,1.19876 ,11.76225 
265 ,50.4559 ,1.19839 ,1.19192 ,11.69509 
266 ,50.6479 ,1.20043 ,1.18507 ,11.62794 
267 ,50.8238 ,1.20227 ,1.14743 ,11.25857 
268 ,51.0002 ,1.20396 ,1.15085 ,11.29215 
269 ,51.2081 ,1.20592 ,1.14401 ,11.22500 
270 ,51.3841 ,1.20776 ,1.14743 ,11.25857 
271 ,51.5761 ,1.20961 ,1.10979 ,10.88921 
272 ,51.7523 ,1.21145 ,1.10294 ,10.82206 
273 ,51.9284 ,1.21321 ,1.09610 ,10.75490 
274 ,52.1044 ,1.21493 ,1.09610 ,10.75490 
275 ,52.2805 ,1.21677 ,1.07214 ,10.51985 
276 ,52.4566 ,1.21846 ,1.05503 ,10.35196 
277 ,52.6486 ,1.22035 ,1.04819 ,10.28480 
278 ,52.8248 ,1.22213 ,1.04819 ,10.28480 
279 ,53.0330 ,1.22407 ,1.01054 ,9.91544 
280 ,53.2249 ,1.22610 ,1.02081 ,10.01618 
281 ,53.4326 ,1.22818 ,0.98659 ,9.68039 
282 ,53.6089 ,1.23000 ,0.97632 ,9.57966 
283 ,53.7851 ,1.23177 ,0.97974 ,9.61324 
284 ,53.9773 ,1.23359 ,0.96263 ,9.44535 
285 ,54.1854 ,1.23575 ,0.96605 ,9.47892 
286 ,54.3933 ,1.23780 ,0.91814 ,9.00883 
287 ,54.6017 ,1.23983 ,0.92841 ,9.10956 
288 ,54.7938 ,1.24184 ,0.89761 ,8.80736 
289 ,54.9858 ,1.24373 ,0.90446 ,8.87451 
290 ,55.1778 ,1.24563 ,0.87366 ,8.57231 
291 ,55.3859 ,1.24771 ,0.89077 ,8.74020 
292 ,55.5777 ,1.24959 ,0.85312 ,8.37084 
293 ,55.7701 ,1.25157 ,0.83601 ,8.20295 
294 ,55.9621 ,1.25359 ,0.83943 ,8.23653 
295 ,56.1541 ,1.25552 ,0.81890 ,8.03506 
296 ,56.3462 ,1.25726 ,0.81548 ,8.00148 
297 ,56.5224 ,1.25914 ,0.80521 ,7.90074 
298 ,56.7141 ,1.26099 ,0.76415 ,7.49780 
299 ,56.9065 ,1.26288 ,0.76757 ,7.53138 
300 ,57.0988 ,1.26490 ,0.77441 ,7.59854 
301 ,57.2908 ,1.26676 ,0.75046 ,7.36349 
302 ,57.4826 ,1.26867 ,0.74704 ,7.32991 
303 ,57.6908 ,1.27076 ,0.70939 ,6.96055 
304 ,57.8668 ,1.27262 ,0.72650 ,7.12844 
305 ,58.0429 ,1.27441 ,0.70255 ,6.89340 
306 ,58.2191 ,1.27612 ,0.69570 ,6.82624 
307 ,58.3951 ,1.27787 ,0.67859 ,6.65835 
308 ,58.5712 ,1.27962 ,0.65121 ,6.38972 
309 ,58.7632 ,1.28148 ,0.66833 ,6.55761 
310 ,58.9393 ,1.28339 ,0.64779 ,6.35614 
311 ,59.1155 ,1.28503 ,0.64095 ,6.28899 
312 ,59.3235 ,1.28708 ,0.63068 ,6.18825 
313 ,59.4998 ,1.28889 ,0.62726 ,6.15467 
314 ,59.6913 ,1.29080 ,0.60673 ,5.95320 
315 ,59.8676 ,1.29259 ,0.58277 ,5.71815 
316 ,60.0598 ,1.29443 ,0.58962 ,5.78531 
317 ,60.2676 ,1.29655 ,0.55882 ,5.48311 
318 ,60.4438 ,1.29832 ,0.56908 ,5.58384 
319 ,60.6361 ,1.30020 ,0.53144 ,5.21448 
320 ,60.8600 ,1.30234 ,0.54171 ,5.31522 
321 ,61.0682 ,1.30450 ,0.53486 ,5.24806 
322 ,61.2762 ,1.30658 ,0.51091 ,5.01301 
323 ,61.4525 ,1.30842 ,0.49722 ,4.87870 
324 ,61.6447 ,1.31030 ,0.51091 ,5.01301 
325 ,61.8527 ,1.31235 ,0.47326 ,4.64365 
326 ,62.0443 ,1.31438 ,0.46300 ,4.54291 
327 ,62.2368 ,1.31620 ,0.45273 ,4.44218 
328 ,62.4448 ,1.31826 ,0.43220 ,4.24071 
329 ,62.6209 ,1.32011 ,0.44931 ,4.40860 
330 ,62.7971 ,1.32183 ,0.43220 ,4.24071 
331 ,62.9889 ,1.32377 ,0.39797 ,3.90493 
332 ,63.1970 ,1.32572 ,0.39113 ,3.83777 
333 ,63.3730 ,1.32766 ,0.39455 ,3.87135 
334 ,63.5490 ,1.32936 ,0.37744 ,3.70346 
335 ,63.7410 ,1.33132 ,0.36375 ,3.56914 
336 ,63.9173 ,1.33308 ,0.34664 ,3.40125 
337 ,64.1096 ,1.33495 ,0.34322 ,3.36767 
338 ,64.2855 ,1.33683 ,0.35349 ,3.46841 
339 ,64.4616 ,1.33846 ,0.33295 ,3.26694 
340 ,64.6377 ,1.34025 ,0.32611 ,3.19978 
341 ,64.8136 ,1.34200 ,0.31926 ,3.13263 
342 ,65.0059 ,1.34390 ,0.29531 ,2.89758 
343 ,65.1821 ,1.34567 ,0.29873 ,2.93116 
344 ,65.3580 ,1.34751 ,0.25767 ,2.52822 
345 ,65.5340 ,1.34919 ,0.26451 ,2.59537 
346 ,65.7262 ,1.35111 ,0.25082 ,2.46106 
347 ,65.9180 ,1.35305 ,0.25082 ,2.46106 
348 ,66.1103 ,1.35494 ,0.22002 ,2.15885 
349 ,66.2866 ,1.35675 ,0.22002 ,2.15885 
350 ,66.4783 ,1.35859 ,0.22344 ,2.19243 
351 ,66.6867 ,1.36067 ,0.19949 ,1.95738 
352 ,66.8946 ,1.36273 ,0.19949 ,1.95738 
353 ,67.0867 ,1.36471 ,0.16185 ,1.58802 
354 ,67.2787 ,1.36666 ,0.17896 ,1.75592 
355 ,67.4545 ,1.36841 ,0.16869 ,1.65518 
356 ,67.6470 ,1.37023 ,0.15158 ,1.48729 
357 ,67.8230 ,1.37216 ,0.14816 ,1.45371 
358 ,67.9993 ,1.37386 ,0.14131 ,1.38655 
359 ,68.1911 ,1.37573 ,0.12078 ,1.18508 
360 ,68.3831 ,1.37759 ,0.09682 ,0.95004 
361 ,68.5428 ,1.37940 ,0.09682 ,0.95004 
362 ,68.7195 ,1.38106 ,0.10025 ,0.98361 
363 ,68.9113 ,1.38297 ,0.07287 ,0.71499 
364 ,69.0873 ,1.38475 ,0.05918 ,0.58067 
365 ,69.2796 ,1.38662 ,0.06260 ,0.61425 
366 ,69.4715 ,1.38853 ,0.03180 ,0.31205 
367 ,69.6477 ,1.39046 ,0.03180 ,0.31205 
368 ,69.8239 ,1.39208 ,0.01469 ,0.14416 
369 ,70.0160 ,1.39396 ,0.03522 ,0.34563 
370 ,70.1921 ,1.39578 ,0.00785 ,0.07700 
371 ,70.3842 ,1.39761 ,0.01127 ,0.11058 
372 ,70.5922 ,1.39972 ,-0.02295 ,-0.22520 
373 ,70.7683 ,1.40150 ,-0.02980 ,-0.29236 
374 ,70.9440 ,1.40341 ,-0.02980 ,-0.29236 
375 ,71.1204 ,1.40503 ,-0.04691 ,-0.46025 
376 ,71.2963 ,1.40680 ,-0.04006 ,-0.39310 
377 ,71.4886 ,1.40870 ,-0.06402 ,-0.62814 
378 ,71.6805 ,1.41059 ,-0.04691 ,-0.46025 
379 ,71.8726 ,1.41250 ,-0.07771 ,-0.76246 
380 ,72.0808 ,1.41457 ,-0.08797 ,-0.86319 
381 ,72.2727 ,1.41648 ,-0.09482 ,-0.93035 
382 ,72.4648 ,1.41842 ,-0.11877 ,-1.16540 
383 ,72.6571 ,1.42036 ,-0.11193 ,-1.09824 
384 ,72.8330 ,1.42222 ,-0.13246 ,-1.29971 
385 ,73.0093 ,1.42393 ,-0.11877 ,-1.16540 
386 ,73.2173 ,1.42593 ,-0.13588 ,-1.33329 
387 ,73.3938 ,1.42782 ,-0.14273 ,-1.40045 
388 ,73.6014 ,1.42977 ,-0.15984 ,-1.56834 
389 ,73.7932 ,1.43170 ,-0.16668 ,-1.63549 
390 ,73.9534 ,1.43348 ,-0.18037 ,-1.76981 
391 ,74.1456 ,1.43518 ,-0.17695 ,-1.73623 
392 ,74.3217 ,1.43705 ,-0.20775 ,-2.03843 
393 ,74.5137 ,1.43893 ,-0.21117 ,-2.07201 
394 ,74.7058 ,1.44081 ,-0.22486 ,-2.20632 
395 ,74.8982 ,1.44285 ,-0.22144 ,-2.17275 
396 ,75.0900 ,1.44470 ,-0.24197 ,-2.37422 
397 ,75.2982 ,1.44673 ,-0.25224 ,-2.47495 
398 ,75.5059 ,1.44878 ,-0.25566 ,-2.50853 
399 ,75.6983 ,1.45075 ,-0.27277 ,-2.67642 
400 ,75.9061 ,1.45282 ,-0.28646 ,-2.81073 
401 ,76.0983 ,1.45487 ,-0.27619 ,-2.71000 
402 ,76.2740 ,1.45656 ,-0.30357 ,-2.97863 
403 ,76.4506 ,1.45833 ,-0.29673 ,-2.91147 
404 ,76.6422 ,1.46016 ,-0.32752 ,-3.21367 
405 ,76.8183 ,1.46199 ,-0.34121 ,-3.34799 
406 ,76.9784 ,1.46374 ,-0.31384 ,-3.07936 
407 ,77.1547 ,1.46538 ,-0.34464 ,-3.38156 
408 ,77.3469 ,1.46732 ,-0.34806 ,-3.41514 
409 ,77.5389 ,1.46919 ,-0.37201 ,-3.65019 
410 ,77.7149 ,1.47097 ,-0.36859 ,-3.61661 
411 ,77.8912 ,1.47271 ,-0.36859 ,-3.61661 
412 ,78.0831 ,1.47455 ,-0.38228 ,-3.75093 
413 ,78.2592 ,1.47649 ,-0.38912 ,-3.81808 
414 ,78.4514 ,1.47828 ,-0.39597 ,-3.88524 
415 ,78.6594 ,1.48024 ,-0.41308 ,-4.05313 
416 ,78.8676 ,1.48244 ,-0.41308 ,-4.05313 
417 ,79.0596 ,1.48439 ,-0.44388 ,-4.35534 
418 ,79.2513 ,1.48631 ,-0.43703 ,-4.28818 
419 ,79.4279 ,1.48814 ,-0.43703 ,-4.28818 
420 ,79.6199 ,1.48996 ,-0.46441 ,-4.55681 
421 ,79.8120 ,1.49187 ,-0.46441 ,-4.55681 
422 ,80.0200 ,1.49397 ,-0.50206 ,-4.92617 
423 ,80.1961 ,1.49576 ,-0.50206 ,-4.92617 
424 ,80.4040 ,1.49777 ,-0.50890 ,-4.99332 
425 ,80.5964 ,1.49972 ,-0.50890 ,-4.99332 
426 ,80.7885 ,1.50166 ,-0.51917 ,-5.09406 
427 ,80.9805 ,1.50363 ,-0.53628 ,-5.26195 
428 ,81.1725 ,1.50551 ,-0.53628 ,-5.26195 
429 ,81.3641 ,1.50738 ,-0.56023 ,-5.49700 
430 ,81.5566 ,1.50927 ,-0.56023 ,-5.49700 
431 ,81.7326 ,1.51119 ,-0.56023 ,-5.49700 
432 ,81.9248 ,1.51306 ,-0.55681 ,-5.46342 
433 ,82.1329 ,1.51510 ,-0.58761 ,-5.76562 
434 ,82.3250 ,1.51702 ,-0.59103 ,-5.79920 
435 ,82.5011 ,1.51893 ,-0.61841 ,-6.06783 
436 ,82.6770 ,1.52060 ,-0.62183 ,-6.10141 
437 ,82.8690 ,1.52250 ,-0.61499 ,-6.03425 
438 ,83.0292 ,1.52421 ,-0.61499 ,-6.03425 
439 ,83.2052 ,1.52581 ,-0.63552 ,-6.23572 
440 ,83.3812 ,1.52762 ,-0.63894 ,-6.26930 
441 ,83.5732 ,1.52949 ,-0.65605 ,-6.43719 
442 ,83.7496 ,1.53128 ,-0.66290 ,-6.50435 
443 ,83.9576 ,1.53329 ,-0.68685 ,-6.73940 
444 ,84.1335 ,1.53510 ,-0.66974 ,-6.57150 
445 ,84.3417 ,1.53715 ,-0.68685 ,-6.73940 
446 ,84.5336 ,1.53908 ,-0.69370 ,-6.80655 
447 ,84.7260 ,1.54097 ,-0.69712 ,-6.84013 
448 ,84.9500 ,1.54326 ,-0.70396 ,-6.90729 
449 ,85.1579 ,1.54536 ,-0.72107 ,-7.07518 
450 ,85.3501 ,1.54724 ,-0.73818 ,-7.24307 
451 ,85.5261 ,1.54905 ,-0.73476 ,-7.20949 
452 ,85.7179 ,1.55094 ,-0.75530 ,-7.41096 
453 ,85.8941 ,1.55275 ,-0.76556 ,-7.51170 
454 ,86.0703 ,1.55450 ,-0.75872 ,-7.44454 
455 ,86.2626 ,1.55635 ,-0.76898 ,-7.54527 
456 ,86.4545 ,1.55827 ,-0.78952 ,-7.74674 
457 ,86.6467 ,1.56023 ,-0.78610 ,-7.71317 
458 ,86.8224 ,1.56208 ,-0.81347 ,-7.98179 
459 ,86.9987 ,1.56377 ,-0.81347 ,-7.98179 
460 ,87.1749 ,1.56552 ,-0.82716 ,-8.11611 
461 ,87.3828 ,1.56754 ,-0.83058 ,-8.14968 
462 ,87.5590 ,1.56939 ,-0.83401 ,-8.18326 
463 ,87.7349 ,1.57110 ,-0.85112 ,-8.35115 
