Point No.,Normal Force [N],Gap [mm],Time [s]
1,3.993316,12.1005,501.3260
2,3.993208,12.1005,501.3360
3,3.993068,12.1005,501.3460
4,3.991443,12.1005,501.3560
5,3.990059,12.1011,501.3660
6,3.985752,12.1017,501.3760
7,3.978579,12.1023,501.3860
8,3.969114,12.1030,501.3960
9,3.960299,12.1048,501.4050
10,3.952563,12.1055,501.4150
11,3.943928,12.1067,501.4250
12,3.935983,12.1073,501.4350
13,3.927052,12.1079,501.4450
14,3.916240,12.1098,501.4550
15,3.906152,12.1111,501.4650
16,3.895836,12.1117,501.4760
17,3.887253,12.1129,501.4860
18,3.879390,12.1135,501.4960
19,3.871155,12.1148,501.5060
20,3.861176,12.1154,501.5160
21,3.852149,12.1167,501.5260
22,3.845002,12.1173,501.5360
23,3.837746,12.1179,501.5460
24,3.827674,12.1198,501.5560
25,3.817779,12.1204,501.5660
26,3.811232,12.1216,501.5760
27,3.803816,12.1222,501.5860
28,3.795165,12.1229,501.5960
29,3.788841,12.1247,501.6060
30,3.781656,12.1254,501.6150
31,3.774124,12.1266,501.6250
32,3.765315,12.1272,501.6350
33,3.760281,12.1278,501.6450
34,3.750884,12.1297,501.6550
35,3.740122,12.1303,501.6650
36,3.731352,12.1316,501.6750
37,3.724227,12.1322,501.6850
38,3.716243,12.1334,501.6950
39,3.707693,12.1347,501.7050
40,3.702588,12.1353,501.7150
41,3.694162,12.1366,501.7250
42,3.685296,12.1372,501.7350
43,3.679250,12.1378,501.7450
44,3.673054,12.1397,501.7550
45,3.666949,12.1403,501.7650
46,3.659140,12.1415,501.7750
47,3.652013,12.1422,501.7850
48,3.644849,12.1434,501.7950
49,3.635852,12.1446,501.8050
50,3.629652,12.1453,501.8150
51,3.621925,12.1465,501.8250
52,3.615397,12.1471,501.8350
53,3.607319,12.1478,501.8450
54,3.598085,12.1496,501.8550
55,3.590909,12.1502,501.8650
56,3.582588,12.1515,501.8750
57,3.575584,12.1521,501.8850
58,3.570540,12.1534,501.8950
59,3.563110,12.1546,501.9050
60,3.556945,12.1552,501.9150
61,3.550150,12.1565,501.9250
62,3.543863,12.1571,501.9350
63,3.536608,12.1577,501.9450
64,3.527496,12.1596,501.9550
65,3.519937,12.1602,501.9650
66,3.511796,12.1614,501.9750
67,3.505677,12.1621,501.9850
68,3.500038,12.1633,501.9950
69,3.491889,12.1639,502.0050
70,3.484321,12.1652,502.0150
71,3.477833,12.1664,502.0250
72,3.472306,12.1670,502.0350
73,3.465733,12.1677,502.0450
74,3.458992,12.1695,502.0550
75,3.451749,12.1702,502.0650
76,3.442574,12.1714,502.0750
77,3.434227,12.1720,502.0850
78,3.427033,12.1733,502.0950
79,3.422033,12.1745,502.1050
80,3.414843,12.1751,502.1150
81,3.407669,12.1764,502.1250
82,3.402784,12.1770,502.1350
83,3.396842,12.1776,502.1450
84,3.390009,12.1789,502.1550
85,3.382979,12.1801,502.1650
86,3.375179,12.1814,502.1750
87,3.368689,12.1820,502.1850
88,3.362117,12.1832,502.1950
89,3.356129,12.1839,502.2050
90,3.350066,12.1851,502.2150
91,3.343395,12.1863,502.2250
92,3.337900,12.1863,502.2350
93,3.331019,12.1876,502.2450
94,3.322969,12.1888,502.2550
95,3.315415,12.1901,502.2650
96,3.309839,12.1913,502.2750
97,3.303299,12.1919,502.2850
98,3.295687,12.1932,502.2950
99,3.289638,12.1938,502.3050
100,3.283157,12.1951,502.3150
101,3.275962,12.1963,502.3250
102,3.269628,12.1969,502.3350
103,3.263514,12.1976,502.3450
104,3.257728,12.1988,502.3550
105,3.249755,12.2000,502.3650
106,3.242495,12.2013,502.3750
107,3.236701,12.2019,502.3850
108,3.229795,12.2025,502.3950
109,3.224055,12.2038,502.4050
110,3.217702,12.2050,502.4150
111,3.211955,12.2056,502.4250
112,3.205518,12.2063,502.4350
113,3.197886,12.2075,502.4450
114,3.192107,12.2088,502.4550
115,3.184660,12.2100,502.4650
116,3.177429,12.2113,502.4750
117,3.172962,12.2119,502.4850
118,3.166755,12.2131,502.4950
119,3.159535,12.2137,502.5050
120,3.153537,12.2150,502.5150
121,3.148882,12.2162,502.5250
122,3.142228,12.2169,502.5350
123,3.135432,12.2175,502.5450
124,3.131251,12.2187,502.5550
125,3.124171,12.2200,502.5650
126,3.116998,12.2212,502.5750
127,3.110970,12.2218,502.5850
128,3.106390,12.2225,502.5950
129,3.100524,12.2237,502.6050
130,3.093435,12.2250,502.6150
131,3.087692,12.2256,502.6250
132,3.083033,12.2268,502.6350
133,3.077047,12.2274,502.6450
134,3.070619,12.2287,502.6550
135,3.063781,12.2299,502.6650
136,3.058307,12.2312,502.6750
137,3.051038,12.2318,502.6850
138,3.046442,12.2330,502.6950
139,3.039923,12.2337,502.7050
140,3.034104,12.2349,502.7150
141,3.028719,12.2355,502.7250
142,3.022249,12.2368,502.7350
143,3.017232,12.2374,502.7450
144,3.011733,12.2387,502.7550
145,3.004987,12.2399,502.7650
146,2.997599,12.2405,502.7750
147,2.991209,12.2418,502.7850
148,2.986399,12.2424,502.7950
149,2.980444,12.2436,502.8050
150,2.974351,12.2449,502.8150
151,2.967454,12.2455,502.8250
152,2.961590,12.2467,502.8350
153,2.957344,12.2474,502.8450
154,2.952179,12.2486,502.8550
155,2.945518,12.2499,502.8650
156,2.939273,12.2505,502.8750
157,2.932263,12.2517,502.8850
158,2.927321,12.2530,502.8950
159,2.922659,12.2536,502.9050
160,2.917027,12.2548,502.9150
161,2.910243,12.2555,502.9250
162,2.905263,12.2567,502.9350
163,2.900185,12.2573,502.9450
164,2.894321,12.2586,502.9550
165,2.888174,12.2598,502.9650
166,2.882193,12.2605,502.9750
167,2.878078,12.2617,502.9850
168,2.871223,12.2623,502.9950
169,2.865406,12.2636,503.0050
170,2.859207,12.2648,503.0150
171,2.853877,12.2654,503.0250
172,2.847992,12.2667,503.0350
173,2.842523,12.2673,503.0450
174,2.837576,12.2685,503.0550
175,2.832132,12.2698,503.0650
176,2.825548,12.2704,503.0750
177,2.818511,12.2717,503.0850
178,2.813804,12.2723,503.0950
179,2.807917,12.2735,503.1050
180,2.802733,12.2748,503.1150
181,2.796853,12.2754,503.1250
182,2.792130,12.2766,503.1350
183,2.788249,12.2773,503.1450
184,2.783068,12.2785,503.1550
185,2.777585,12.2798,503.1650
186,2.770384,12.2804,503.1750
187,2.765331,12.2816,503.1850
188,2.760031,12.2823,503.1950
189,2.750510,12.2835,503.2050
190,2.744920,12.2847,503.2150
191,2.741274,12.2854,503.2250
192,2.736909,12.2866,503.2350
193,2.732140,12.2872,503.2450
194,2.726304,12.2885,503.2550
195,2.722635,12.2897,503.2650
196,2.716465,12.2904,503.2750
197,2.708440,12.2916,503.2850
198,2.703400,12.2922,503.2950
199,2.699167,12.2935,503.3050
200,2.694740,12.2947,503.3150
201,2.687926,12.2953,503.3250
202,2.683980,12.2966,503.3350
203,2.680477,12.2972,503.3450
204,2.675240,12.2985,503.3550
205,2.669477,12.2997,503.3650
206,2.663022,12.3003,503.3750
207,2.657494,12.3016,503.3850
208,2.653489,12.3022,503.3950
209,2.646110,12.3034,503.4050
210,2.640414,12.3041,503.4150
211,2.636568,12.3053,503.4250
212,2.632448,12.3066,503.4350
213,2.627349,12.3072,503.4450
214,2.621628,12.3084,503.4550
215,2.615637,12.3097,503.4650
216,2.611190,12.3103,503.4750
217,2.607056,12.3115,503.4850
218,2.602359,12.3122,503.4950
219,2.595074,12.3134,503.5050
220,2.590003,12.3147,503.5150
221,2.584547,12.3153,503.5250
222,2.578709,12.3165,503.5350
223,2.573339,12.3171,503.5450
224,2.569516,12.3184,503.5550
225,2.564566,12.3196,503.5650
226,2.559002,12.3203,503.5750
227,2.553421,12.3215,503.5850
228,2.550423,12.3221,503.5950
229,2.545668,12.3234,503.6050
230,2.538834,12.3240,503.6150
231,2.532588,12.3252,503.6250
232,2.527671,12.3265,503.6350
233,2.523516,12.3265,503.6450
234,2.518627,12.3284,503.6550
235,2.512965,12.3296,503.6650
236,2.507437,12.3302,503.6750
237,2.501677,12.3315,503.6850
238,2.497662,12.3321,503.6950
239,2.492946,12.3333,503.7050
240,2.488415,12.3340,503.7150
241,2.483949,12.3352,503.7250
242,2.481291,12.3365,503.7350
243,2.476479,12.3371,503.7450
244,2.469703,12.3383,503.7550
245,2.466179,12.3390,503.7650
246,2.461526,12.3402,503.7750
247,2.455693,12.3414,503.7850
248,2.451333,12.3421,503.7950
249,2.446631,12.3433,503.8050
250,2.440108,12.3439,503.8150
251,2.435932,12.3452,503.8250
252,2.432497,12.3458,503.8350
253,2.426238,12.3464,503.8450
254,2.420078,12.3483,503.8550
255,2.415958,12.3489,503.8650
256,2.411868,12.3508,503.8750
257,2.405555,12.3514,503.8850
258,2.399371,12.3520,503.8950
259,2.394865,12.3533,503.9050
260,2.390896,12.3539,503.9150
261,2.386942,12.3552,503.9250
262,2.383068,12.3564,503.9350
263,2.377589,12.3570,503.9450
264,2.373736,12.3583,503.9550
265,2.367456,12.3589,503.9650
266,2.362687,12.3601,503.9750
267,2.357646,12.3614,503.9850
268,2.353073,12.3620,503.9950
269,2.350218,12.3633,504.0050
270,2.346919,12.3639,504.0150
271,2.341835,12.3651,504.0250
272,2.335562,12.3658,504.0350
273,2.332638,12.3670,504.0450
274,2.329484,12.3682,504.0550
275,2.322446,12.3689,504.0650
276,2.318450,12.3707,504.0750
277,2.314078,12.3714,504.0850
278,2.308854,12.3720,504.0950
279,2.304828,12.3732,504.1050
280,2.300711,12.3739,504.1150
281,2.300295,12.3751,504.1250
282,2.295219,12.3757,504.1350
283,2.289561,12.3770,504.1450
284,2.286183,12.3776,504.1550
285,2.283117,12.3788,504.1650
286,2.280781,12.3801,504.1750
287,2.275828,12.3813,504.1850
288,2.271978,12.3820,504.1950
289,2.267007,12.3832,504.2050
290,2.263044,12.3838,504.2150
291,2.262048,12.3851,504.2250
292,2.256451,12.3857,504.2350
293,2.250779,12.3870,504.2450
294,2.247449,12.3876,504.2550
295,2.242656,12.3888,504.2650
296,2.238200,12.3907,504.2750
297,2.233498,12.3913,504.2850
298,2.231417,12.3919,504.2950
299,2.228981,12.3932,504.3050
300,2.222656,12.3938,504.3150
301,2.218698,12.3951,504.3250
302,2.217468,12.3957,504.3350
303,2.213416,12.3969,504.3450
304,2.209209,12.3976,504.3550
305,2.205333,12.3988,504.3650
306,2.202044,12.4000,504.3750
307,2.198328,12.4007,504.3850
308,2.196058,12.4019,504.3950
309,2.193652,12.4025,504.4050
310,2.185953,12.4038,504.4150
311,2.181567,12.4050,504.4250
312,2.179369,12.4057,504.4350
313,2.176243,12.4069,504.4450
314,2.170776,12.4075,504.4550
315,2.165287,12.4088,504.4650
316,2.162271,12.4100,504.4750
317,2.157837,12.4106,504.4850
318,2.153046,12.4119,504.4950
319,2.147809,12.4131,504.5050
320,2.142939,12.4138,504.5150
321,2.139635,12.4150,504.5250
322,2.136196,12.4156,504.5350
323,2.132984,12.4169,504.5450
324,2.127919,12.4175,504.5550
325,2.121144,12.4188,504.5650
326,2.118237,12.4200,504.5750
327,2.113877,12.4206,504.5850
328,2.109240,12.4219,504.5950
329,2.104062,12.4225,504.6050
330,2.100194,12.4237,504.6150
331,2.097228,12.4250,504.6250
332,2.090666,12.4256,504.6350
333,2.087479,12.4269,504.6450
334,2.083205,12.4275,504.6550
335,2.076799,12.4294,504.6650
336,2.073297,12.4300,504.6750
337,2.069659,12.4306,504.6850
338,2.065370,12.4318,504.6950
339,2.059619,12.4325,504.7050
340,2.054627,12.4337,504.7150
341,2.052076,12.4350,504.7250
342,2.048202,12.4356,504.7350
343,2.043042,12.4368,504.7450
344,2.040040,12.4375,504.7550
345,2.034349,12.4387,504.7650
346,2.030133,12.4399,504.7750
347,2.025253,12.4406,504.7850
348,2.022883,12.4418,504.7950
349,2.018438,12.4424,504.8050
350,2.014309,12.4437,504.8150
351,2.010777,12.4449,504.8250
352,2.005373,12.4456,504.8350
353,2.002925,12.4468,504.8450
354,1.997964,12.4474,504.8550
355,1.993082,12.4493,504.8650
356,1.988934,12.4499,504.8750
357,1.983088,12.4505,504.8850
358,1.978653,12.4518,504.8950
359,1.973143,12.4524,504.9050
360,1.970736,12.4543,504.9150
361,1.967809,12.4549,504.9250
362,1.964181,12.4555,504.9350
363,1.961712,12.4568,504.9450
364,1.956732,12.4574,504.9550
365,1.951347,12.4587,504.9650
366,1.948237,12.4599,504.9750
367,1.942787,12.4605,504.9850
368,1.939635,12.4618,504.9950
369,1.934590,12.4624,505.0050
370,1.929542,12.4636,505.0150
371,1.925182,12.4643,505.0250
372,1.920989,12.4655,505.0350
373,1.917258,12.4668,505.0450
374,1.912109,12.4674,505.0550
375,1.908978,12.4693,505.0650
376,1.904697,12.4699,505.0750
377,1.899067,12.4711,505.0850
378,1.895429,12.4717,505.0950
379,1.892212,12.4724,505.1050
380,1.887709,12.4742,505.1150
381,1.883762,12.4749,505.1250
382,1.878892,12.4755,505.1350
383,1.876533,12.4767,505.1450
384,1.872703,12.4774,505.1550
385,1.869093,12.4786,505.1650
386,1.864641,12.4798,505.1750
387,1.859369,12.4805,505.1850
388,1.855088,12.4817,505.1950
389,1.851585,12.4823,505.2050
390,1.848387,12.4836,505.2150
391,1.845191,12.4842,505.2250
392,1.840402,12.4855,505.2350
393,1.836554,12.4861,505.2450
394,1.831941,12.4873,505.2550
395,1.826605,12.4892,505.2650
396,1.822754,12.4898,505.2750
397,1.819420,12.4911,505.2850
398,1.815459,12.4917,505.2950
399,1.810400,12.4923,505.3050
400,1.806009,12.4936,505.3150
401,1.802067,12.4948,505.3250
402,1.799589,12.4954,505.3350
403,1.795934,12.4967,505.3450
404,1.792796,12.4973,505.3550
405,1.788511,12.4986,505.3650
406,1.783755,12.4998,505.3750
407,1.780587,12.5004,505.3850
408,1.777075,12.5010,505.3950
409,1.773690,12.5023,505.4050
410,1.769664,12.5035,505.4150
411,1.765074,12.5042,505.4250
412,1.762022,12.5054,505.4350
413,1.758274,12.5060,505.4450
414,1.753919,12.5073,505.4550
415,1.750344,12.5085,505.4650
416,1.744870,12.5098,505.4760
417,1.740610,12.5110,505.4860
418,1.738780,12.5117,505.4960
419,1.733159,12.5123,505.5060
420,1.729719,12.5141,505.5160
421,1.725230,12.5148,505.5260
422,1.722651,12.5154,505.5360
423,1.718536,12.5160,505.5460
424,1.714534,12.5173,505.5560
425,1.710575,12.5185,505.5660
426,1.705425,12.5191,505.5760
427,1.700875,12.5204,505.5860
428,1.699207,12.5210,505.5960
429,1.696226,12.5223,505.6060
430,1.692177,12.5235,505.6160
431,1.689289,12.5241,505.6260
432,1.683940,12.5254,505.6360
433,1.679093,12.5260,505.6460
434,1.675803,12.5272,505.6560
435,1.673594,12.5285,505.6660
436,1.668277,12.5297,505.6760
437,1.662165,12.5310,505.6860
438,1.661356,12.5316,505.6960
439,1.658513,12.5322,505.7060
440,1.652404,12.5335,505.7160
441,1.648754,12.5347,505.7260
442,1.647492,12.5353,505.7360
443,1.645193,12.5360,505.7460
444,1.638712,12.5372,505.7560
445,1.634078,12.5385,505.7660
446,1.631973,12.5397,505.7760
447,1.627332,12.5403,505.7860
448,1.621613,12.5410,505.7960
449,1.616142,12.5422,505.8060
450,1.612757,12.5434,505.8160
451,1.610014,12.5441,505.8260
452,1.608314,12.5453,505.8360
453,1.605792,12.5459,505.8460
454,1.601097,12.5472,505.8560
455,1.597625,12.5484,505.8660
456,1.591702,12.5497,505.8760
457,1.586755,12.5509,505.8860
458,1.584206,12.5509,505.8960
459,1.582135,12.5522,505.9060
460,1.577872,12.5534,505.9160
461,1.572696,12.5547,505.9260
462,1.569058,12.5553,505.9360
463,1.566727,12.5559,505.9460
464,1.562121,12.5572,505.9560
465,1.558843,12.5584,505.9660
466,1.555993,12.5597,505.9760
467,1.552888,12.5603,505.9860
468,1.547162,12.5609,505.9960
469,1.542792,12.5622,506.0060
470,1.539759,12.5634,506.0160
471,1.535488,12.5640,506.0260
472,1.531489,12.5653,506.0360
473,1.529257,12.5659,506.0460
474,1.524861,12.5671,506.0560
475,1.520624,12.5684,506.0660
476,1.516533,12.5696,506.0760
477,1.514365,12.5703,506.0860
478,1.508625,12.5709,506.0960
479,1.503332,12.5721,506.1060
480,1.501417,12.5734,506.1160
481,1.498642,12.5746,506.1260
482,1.494545,12.5753,506.1360
483,1.491073,12.5759,506.1460
484,1.489586,12.5771,506.1560
485,1.484684,12.5784,506.1660
486,1.479766,12.5796,506.1760
487,1.477257,12.5802,506.1860
488,1.473425,12.5809,506.1960
489,1.468331,12.5821,506.2060
490,1.463727,12.5827,506.2160
491,1.462493,12.5840,506.2260
492,1.459203,12.5852,506.2360
493,1.455081,12.5859,506.2460
494,1.451076,12.5871,506.2560
495,1.447926,12.5884,506.2660
496,1.444092,12.5896,506.2760
497,1.440094,12.5902,506.2860
498,1.436088,12.5915,506.2960
499,1.433582,12.5921,506.3060
500,1.429186,12.5933,506.3160
501,1.424335,12.5946,506.3260
502,1.421401,12.5952,506.3360
503,1.418109,12.5958,506.3460
504,1.414679,12.5971,506.3560
505,1.410264,12.5977,506.3660
506,1.407417,12.5996,506.3760
507,1.403199,12.6002,506.3860
508,1.398630,12.6008,506.3960
509,1.395247,12.6021,506.4060
510,1.391464,12.6027,506.4160
511,1.389652,12.6039,506.4260
512,1.386009,12.6052,506.4360
513,1.381959,12.6058,506.4460
514,1.377943,12.6071,506.4560
515,1.373718,12.6083,506.4660
516,1.370781,12.6096,506.4760
517,1.367870,12.6102,506.4860
518,1.364262,12.6114,506.4960
519,1.359813,12.6121,506.5060
520,1.355265,12.6133,506.5160
521,1.353835,12.6145,506.5260
522,1.350035,12.6152,506.5360
523,1.345974,12.6158,506.5460
524,1.343792,12.6170,506.5560
525,1.339203,12.6177,506.5660
526,1.336000,12.6195,506.5760
527,1.332453,12.6202,506.5860
528,1.330106,12.6208,506.5960
529,1.327622,12.6220,506.6060
530,1.322359,12.6227,506.6160
531,1.319236,12.6239,506.6260
532,1.316430,12.6245,506.6360
533,1.312616,12.6258,506.6460
534,1.309490,12.6270,506.6560
535,1.305864,12.6276,506.6660
536,1.303133,12.6295,506.6760
537,1.298375,12.6301,506.6860
538,1.293888,12.6314,506.6960
539,1.290344,12.6320,506.7060
540,1.285936,12.6333,506.7160
541,1.283687,12.6345,506.7260
542,1.281929,12.6351,506.7360
543,1.277887,12.6358,506.7460
544,1.274753,12.6370,506.7560
545,1.270760,12.6376,506.7660
546,1.269140,12.6389,506.7760
547,1.265876,12.6401,506.7860
548,1.261763,12.6407,506.7960
549,1.260372,12.6420,506.8060
550,1.256615,12.6426,506.8160
551,1.253119,12.6439,506.8260
552,1.249465,12.6445,506.8360
553,1.248228,12.6457,506.8460
554,1.244552,12.6464,506.8560
555,1.239102,12.6476,506.8660
556,1.234831,12.6495,506.8760
557,1.231679,12.6501,506.8860
558,1.227901,12.6513,506.8960
559,1.225583,12.6520,506.9060
560,1.221115,12.6532,506.9160
561,1.217893,12.6538,506.9260
562,1.214005,12.6551,506.9360
563,1.211555,12.6557,506.9460
564,1.209041,12.6563,506.9560
565,1.204003,12.6576,506.9660
566,1.200722,12.6588,506.9760
567,1.197907,12.6601,506.9860
568,1.194019,12.6607,506.9960
569,1.190115,12.6613,507.0060
570,1.186881,12.6626,507.0160
571,1.184155,12.6638,507.0260
572,1.181646,12.6644,507.0360
573,1.178067,12.6657,507.0460
574,1.176399,12.6663,507.0560
575,1.171408,12.6676,507.0660
576,1.168106,12.6688,507.0760
577,1.163526,12.6701,507.0860
578,1.160098,12.6713,507.0960
579,1.157229,12.6719,507.1060
580,1.153042,12.6732,507.1160
581,1.149055,12.6738,507.1260
582,1.145322,12.6751,507.1360
583,1.142394,12.6757,507.1460
584,1.139864,12.6763,507.1560
585,1.135710,12.6775,507.1660
586,1.131590,12.6788,507.1760
587,1.129675,12.6800,507.1860
588,1.127839,12.6807,507.1960
589,1.123554,12.6813,507.2060
590,1.119657,12.6825,507.2160
591,1.116944,12.6838,507.2260
592,1.115273,12.6844,507.2360
593,1.111267,12.6857,507.2460
594,1.107334,12.6863,507.2560
595,1.105144,12.6875,507.2660
596,1.099479,12.6888,507.2760
597,1.095696,12.6900,507.2860
598,1.094187,12.6906,507.2960
599,1.090500,12.6913,507.3060
600,1.086269,12.6931,507.3160
601,1.083987,12.6938,507.3260
602,1.080950,12.6950,507.3360
603,1.076678,12.6956,507.3460
604,1.073369,12.6963,507.3560
605,1.070975,12.6975,507.3660
606,1.067755,12.6988,507.3760
607,1.064085,12.7000,507.3860
608,1.061541,12.7006,507.3960
609,1.058852,12.7012,507.4060
610,1.053166,12.7025,507.4160
611,1.047697,12.7037,507.4260
612,1.046921,12.7044,507.4360
613,1.043860,12.7056,507.4460
614,1.039766,12.7062,507.4560
615,1.036463,12.7075,507.4660
616,1.032909,12.7087,507.4760
617,1.029041,12.7100,507.4860
618,1.024176,12.7106,507.4960
619,1.023166,12.7112,507.5060
620,1.020660,12.7131,507.5160
621,1.013975,12.7137,507.5260
622,1.010512,12.7143,507.5360
623,1.009378,12.7156,507.5460
624,1.007070,12.7162,507.5560
625,1.002137,12.7175,507.5660
626,0.998361,12.7187,507.5760
627,0.997622,12.7200,507.5860
628,0.994159,12.7206,507.5960
629,0.990084,12.7212,507.6060
630,0.987150,12.7225,507.6160
631,0.982270,12.7237,507.6260
632,0.980645,12.7243,507.6360
633,0.976313,12.7256,507.6460
634,0.973264,12.7262,507.6560
635,0.968805,12.7274,507.6660
636,0.965118,12.7287,507.6760
637,0.963016,12.7299,507.6860
638,0.958953,12.7306,507.6960
639,0.956301,12.7312,507.7060
640,0.952934,12.7324,507.7160
641,0.949521,12.7337,507.7260
642,0.947681,12.7343,507.7360
643,0.942958,12.7356,507.7460
644,0.939308,12.7362,507.7560
645,0.937028,12.7374,507.7660
646,0.932443,12.7387,507.7760
647,0.929783,12.7399,507.7860
