Point No.,Normal Force [N],Gap [mm],Time [s]
1.0,4.325166,10.9541,2336
2.0,4.091871,10.9715,2336
3.0,3.855668,10.9963,2336
4.0,3.618173,11.0211,2337
5.0,3.406529,11.0458,2337
6.0,3.214977,11.0707,2337
7.0,3.032201,11.0958,2337
8.0,2.869376,11.1207,2337
9.0,2.712543,11.1454,2337
10.0,2.572830,11.1703,2337
11.0,2.438523,11.1952,2337
12.0,2.305914,11.2201,2337
13.0,2.193450,11.2450,2337
14.0,2.070248,11.2700,2337
15.0,1.932605,11.2952,2337
16.0,1.788095,11.3201,2337
17.0,1.643032,11.3448,2337
18.0,1.491519,11.3697,2337
19.0,1.338511,11.3948,2337
20.0,1.190264,11.4197,2337
21.0,1.043425,11.4444,2337
22.0,0.892427,11.4693,2337
23.0,0.747412,11.4945,2337
24.0,0.602975,11.5194,2338
25.0,0.450015,11.5441,2338
26.0,0.338662,11.5690,2338
27.0,0.223529,11.5941,2338
28.0,0.108537,11.6191,2338
29.0,-0.001182,11.6441,2338
30.0,-0.108559,11.6690,2338
31.0,-0.215267,11.6939,2338
32.0,-0.318651,11.7189,2338
33.0,-0.397856,11.7438,2338
34.0,-0.488097,11.7688,2338
35.0,-0.593296,11.7937,2338
36.0,-0.685143,11.8186,2338
37.0,-0.776798,11.8433,2338
38.0,-0.860211,11.8683,2338
39.0,-0.938539,11.8922,2338
40.0,-1.003710,11.9172,2338
41.0,-1.065048,11.9420,2338
42.0,-1.124684,11.9668,2338
43.0,-1.173591,11.9918,2338
44.0,-1.220679,12.0168,2339
45.0,-1.248197,12.0419,2339
46.0,-1.299642,12.0665,2339
47.0,-1.337097,12.0915,2339
48.0,-1.387149,12.1166,2339
49.0,-1.424400,12.1417,2339
50.0,-1.470642,12.1664,2339
51.0,-1.506836,12.1913,2339
52.0,-1.537081,12.2165,2339
53.0,-1.557431,12.2416,2339
54.0,-1.596945,12.2663,2339
55.0,-1.636194,12.2913,2339
56.0,-1.652739,12.3164,2339
57.0,-1.691372,12.3415,2339
58.0,-1.736395,12.3662,2339
59.0,-1.771698,12.3912,2339
60.0,-1.784720,12.4164,2339
61.0,-1.808336,12.4414,2339
62.0,-1.780673,12.4664,2339
63.0,-1.764318,12.4915,2339
64.0,-1.780157,12.5164,2340
65.0,-1.809057,12.5415,2340
66.0,-1.808861,12.5664,2340
67.0,-1.757840,12.5915,2340
68.0,-1.727728,12.6165,2340
69.0,-1.669199,12.6415,2340
70.0,-1.622238,12.6665,2340
71.0,-1.606744,12.6916,2340
72.0,-1.594164,12.7157,2340
73.0,-1.609295,12.7416,2340
74.0,-1.586618,12.7666,2340
75.0,-1.512350,12.7916,2340
76.0,-1.485667,12.8166,2340
77.0,-1.412902,12.8417,2340
78.0,-1.281581,12.8665,2340
79.0,-1.231512,12.8915,2340
80.0,-1.202888,12.9164,2340
81.0,-1.148108,12.9410,2340
82.0,-1.078553,12.9654,2340
83.0,-0.989518,12.9908,2340
84.0,-0.911963,13.0158,2341
85.0,-0.913637,13.0407,2341
86.0,-0.862394,13.0655,2341
87.0,-0.755527,13.0906,2341
88.0,-0.618594,13.1157,2341
89.0,-0.579838,13.1407,2341
90.0,-0.507936,13.1657,2341
91.0,-0.445770,13.1908,2341
92.0,-0.367757,13.2158,2341
93.0,-0.332709,13.2408,2341
94.0,-0.274342,13.2659,2341
95.0,-0.248140,13.2909,2341
96.0,-0.207128,13.3159,2341
97.0,-0.097483,13.3410,2341
98.0,-0.079219,13.3660,2341
99.0,-0.049216,13.3910,2341
100.0,-0.012654,13.4160,2341
101.0,0.000360,13.4410,2341
102.0,-0.001863,13.4660,2341
103.0,-0.001857,13.4910,2341
104.0,-0.001529,13.5160,2342
105.0,-0.001254,13.5412,2342
106.0,-0.002839,13.5660,2342
107.0,-0.002459,13.5910,2342
108.0,-0.002942,13.6160,2342
109.0,-0.001987,13.6410,2342
110.0,-0.002745,13.6660,2342
111.0,-0.003372,13.6912,2342
112.0,-0.003179,13.7160,2342
113.0,-0.002917,13.7410,2342
114.0,-0.005046,13.7658,2342
115.0,-0.002990,13.7908,2342
116.0,-0.004190,13.8159,2342
117.0,-0.004765,13.8410,2342
118.0,-0.005352,13.8658,2342
119.0,-0.006139,13.8904,2342
120.0,-0.004652,13.9154,2342
121.0,-0.003615,13.9404,2342
122.0,-0.007148,13.9654,2342
123.0,-0.005713,13.9896,2342
124.0,-0.006272,14.0146,2343
125.0,-0.004183,14.0396,2343
126.0,-0.005881,14.0646,2343
127.0,-0.005069,14.0896,2343
128.0,-0.007029,14.1146,2343
129.0,-0.003103,14.1396,2343
130.0,-0.006107,14.1644,2343
131.0,-0.006705,14.1896,2343
132.0,-0.005638,14.2144,2343
133.0,-0.004853,14.2396,2343
134.0,-0.006558,14.2644,2343
135.0,-0.008659,14.2893,2343
136.0,-0.006226,14.3144,2343
137.0,-0.007026,14.3394,2343
138.0,-0.006366,14.3642,2343
139.0,-0.007395,14.3891,2343
140.0,-0.007516,14.4144,2343
141.0,-0.005602,14.4394,2343
142.0,-0.007761,14.4642,2343
143.0,-0.008226,14.4893,2343
144.0,-0.007357,14.5141,2344
145.0,-0.006404,14.5392,2344
146.0,-0.006554,14.5642,2344
147.0,-0.006745,14.5890,2344
148.0,-0.005342,14.6140,2344
149.0,-0.002840,14.6390,2344
150.0,-0.006018,14.6640,2344
151.0,-0.006078,14.6890,2344
152.0,-0.004958,14.7140,2344
153.0,-0.005969,14.7394,2344
154.0,-0.006497,14.7640,2344
155.0,-0.004828,14.7890,2344
156.0,-0.003927,14.8140,2344
157.0,-0.004233,14.8390,2344
158.0,-0.004546,14.8640,2344
159.0,-0.005318,14.8890,2344
160.0,-0.002643,14.9140,2344
161.0,-0.002480,14.9390,2344
162.0,-0.001234,14.9635,2344
163.0,-0.004662,14.9883,2344
