Point No.,Normal Force [N],Gap [mm],Time [s]
1,8.996161,21.8166,1.427E+04
2,9.001987,21.8166,1.427E+04
3,9.000650,21.8166,1.427E+04
4,9.000730,21.8166,1.427E+04
5,8.991789,21.8166,1.427E+04
6,8.990386,21.8172,1.427E+04
7,8.987248,21.8172,1.427E+04
8,8.928515,21.8178,1.427E+04
9,8.870590,21.8177,1.427E+04
10,8.802946,21.8202,1.427E+04
11,8.713828,21.8233,1.427E+04
12,8.598270,21.8232,1.427E+04
13,8.458036,21.8231,1.427E+04
14,8.346767,21.8268,1.427E+04
15,8.140912,21.8317,1.427E+04
16,7.946590,21.8316,1.427E+04
17,7.860469,21.8359,1.427E+04
18,7.689858,21.8358,1.427E+04
19,7.567161,21.8407,1.427E+04
20,7.425593,21.8406,1.427E+04
21,7.320591,21.8456,1.427E+04
22,7.159364,21.8455,1.427E+04
23,7.034020,21.8504,1.427E+04
24,6.889082,21.8503,1.427E+04
25,6.803596,21.8503,1.427E+04
26,6.657606,21.8552,1.427E+04
27,6.545743,21.8551,1.427E+04
28,6.423016,21.8607,1.427E+04
29,6.351368,21.8650,1.427E+04
30,6.318359,21.8650,1.427E+04
31,6.150681,21.8705,1.427E+04
32,6.141516,21.8705,1.427E+04
33,6.007716,21.8748,1.427E+04
34,5.989970,21.8748,1.427E+04
35,5.834311,21.8797,1.427E+04
36,5.840304,21.8797,1.427E+04
37,5.701713,21.8846,1.427E+04
38,5.696317,21.8846,1.427E+04
39,5.531414,21.8895,1.427E+04
40,5.531214,21.8895,1.427E+04
41,5.375862,21.8944,1.427E+04
42,5.367534,21.8944,1.427E+04
43,5.210808,21.8943,1.427E+04
44,5.219051,21.8993,1.427E+04
45,5.061768,21.8992,1.427E+04
46,5.074932,21.9042,1.427E+04
47,4.915254,21.9042,1.427E+04
48,4.962133,21.9098,1.427E+04
49,4.847016,21.9141,1.427E+04
50,4.864148,21.9141,1.427E+04
51,4.728698,21.9190,1.427E+04
52,4.749395,21.9191,1.427E+04
53,4.599594,21.9240,1.427E+04
54,4.640501,21.9240,1.427E+04
55,4.524186,21.9289,1.427E+04
56,4.577882,21.9290,1.427E+04
57,4.453707,21.9339,1.427E+04
58,4.474389,21.9339,1.427E+04
59,4.350569,21.9388,1.427E+04
60,4.391321,21.9388,1.427E+04
61,4.256732,21.9388,1.427E+04
62,4.302917,21.9438,1.427E+04
63,4.159640,21.9437,1.427E+04
64,4.211565,21.9494,1.427E+04
65,4.091270,21.9493,1.427E+04
66,4.129259,21.9537,1.427E+04
67,4.030170,21.9536,1.427E+04
68,4.074792,21.9587,1.427E+04
69,3.954711,21.9636,1.427E+04
70,3.997400,21.9636,1.427E+04
71,3.861791,21.9685,1.427E+04
72,3.946285,21.9686,1.427E+04
73,3.832368,21.9735,1.427E+04
74,3.912009,21.9736,1.427E+04
75,3.817583,21.9785,1.427E+04
76,3.893523,21.9785,1.427E+04
77,3.777540,21.9835,1.427E+04
78,3.843123,21.9835,1.427E+04
79,3.696470,21.9834,1.427E+04
80,3.777924,21.9885,1.427E+04
81,3.633285,21.9884,1.427E+04
82,3.694473,21.9934,1.427E+04
83,3.559827,21.9934,1.427E+04
84,3.638794,21.9984,1.427E+04
85,3.509530,21.9983,1.427E+04
86,3.600669,22.0034,1.427E+04
87,3.474796,22.0033,1.427E+04
88,3.578270,22.0084,1.427E+04
89,3.448426,22.0133,1.427E+04
90,3.513505,22.0133,1.427E+04
91,3.413024,22.0133,1.427E+04
92,3.518700,22.0183,1.427E+04
93,3.408179,22.0183,1.427E+04
94,3.509554,22.0233,1.427E+04
95,3.393013,22.0233,1.427E+04
96,3.502918,22.0283,1.427E+04
97,3.382315,22.0282,1.427E+04
98,3.459415,22.0333,1.427E+04
99,3.341857,22.0332,1.427E+04
100,3.430582,22.0383,1.427E+04
101,3.308871,22.0382,1.427E+04
102,3.406228,22.0433,1.427E+04
103,3.292004,22.0432,1.427E+04
104,3.409479,22.0483,1.427E+04
105,3.303634,22.0482,1.427E+04
106,3.401015,22.0533,1.427E+04
107,3.299790,22.0532,1.427E+04
108,3.406341,22.0583,1.427E+04
109,3.288455,22.0582,1.427E+04
110,3.386706,22.0632,1.427E+04
111,3.249540,22.0632,1.427E+04
112,3.366089,22.0682,1.427E+04
113,3.236442,22.0682,1.427E+04
114,3.323643,22.0732,1.427E+04
115,3.207323,22.0731,1.427E+04
116,3.308815,22.0782,1.427E+04
117,3.186963,22.0781,1.427E+04
118,3.291097,22.0832,1.427E+04
119,3.163606,22.0831,1.427E+04
120,3.281413,22.0882,1.427E+04
121,3.144854,22.0881,1.427E+04
122,3.229193,22.0932,1.427E+04
123,3.114085,22.0931,1.427E+04
124,3.220248,22.0981,1.427E+04
125,3.090367,22.0981,1.427E+04
126,3.187978,22.1031,1.427E+04
127,3.059930,22.1031,1.427E+04
128,3.173220,22.1081,1.427E+04
129,3.040842,22.1080,1.427E+04
130,3.130386,22.1131,1.427E+04
131,3.014431,22.1130,1.427E+04
132,3.110194,22.1181,1.427E+04
133,2.986346,22.1180,1.427E+04
134,3.089876,22.1231,1.427E+04
135,2.952354,22.1230,1.427E+04
136,3.069226,22.1281,1.427E+04
137,2.927842,22.1280,1.427E+04
138,3.023909,22.1330,1.427E+04
139,2.892359,22.1330,1.427E+04
140,2.998499,22.1380,1.427E+04
141,2.861796,22.1379,1.427E+04
142,2.965453,22.1430,1.427E+04
143,2.820594,22.1429,1.427E+04
144,2.950802,22.1480,1.427E+04
145,2.801151,22.1479,1.427E+04
146,2.900683,22.1523,1.427E+04
147,2.772130,22.1523,1.427E+04
148,2.873173,22.1579,1.427E+04
149,2.736025,22.1579,1.427E+04
150,2.835665,22.1623,1.427E+04
151,2.696947,22.1622,1.427E+04
152,2.829741,22.1679,1.427E+04
153,2.675801,22.1678,1.427E+04
154,2.779191,22.1723,1.427E+04
155,2.639088,22.1722,1.427E+04
156,2.755170,22.1779,1.427E+04
157,2.610348,22.1778,1.427E+04
158,2.716732,22.1829,1.427E+04
159,2.577825,22.1828,1.427E+04
160,2.709039,22.1878,1.427E+04
161,2.558752,22.1878,1.427E+04
162,2.659926,22.1922,1.427E+04
163,2.521795,22.1921,1.427E+04
164,2.641590,22.1978,1.427E+04
165,2.494824,22.1977,1.427E+04
166,2.610153,22.2022,1.427E+04
167,2.460645,22.2021,1.427E+04
168,2.599846,22.2078,1.427E+04
169,2.441346,22.2077,1.427E+04
170,2.552925,22.2121,1.427E+04
171,2.415310,22.2121,1.427E+04
172,2.536648,22.2177,1.427E+04
173,2.383465,22.2177,1.427E+04
174,2.507131,22.2221,1.427E+04
175,2.360954,22.2220,1.427E+04
176,2.496357,22.2277,1.427E+04
177,2.338690,22.2276,1.427E+04
178,2.453547,22.2327,1.427E+04
179,2.315310,22.2326,1.427E+04
180,2.433416,22.2377,1.427E+04
181,2.291719,22.2376,1.427E+04
182,2.405237,22.2427,1.427E+04
183,2.271947,22.2426,1.427E+04
184,2.395997,22.2477,1.427E+04
185,2.254740,22.2476,1.427E+04
186,2.352242,22.2520,1.427E+04
187,2.235755,22.2519,1.427E+04
188,2.337204,22.2576,1.427E+04
189,2.210755,22.2576,1.427E+04
190,2.310914,22.2626,1.427E+04
191,2.183844,22.2625,1.427E+04
192,2.305200,22.2676,1.427E+04
193,2.171158,22.2675,1.427E+04
194,2.265317,22.2720,1.427E+04
195,2.146369,22.2719,1.427E+04
196,2.259121,22.2776,1.427E+04
197,2.124344,22.2775,1.427E+04
198,2.235526,22.2826,1.427E+04
199,2.089460,22.2825,1.427E+04
200,2.229806,22.2876,1.427E+04
201,2.074487,22.2875,1.427E+04
202,2.196030,22.2925,1.427E+04
203,2.053407,22.2925,1.427E+04
204,2.181244,22.2975,1.427E+04
205,2.025158,22.2974,1.427E+04
206,2.159711,22.3025,1.427E+04
207,2.007514,22.3024,1.427E+04
208,2.155880,22.3075,1.427E+04
209,1.996526,22.3074,1.427E+04
210,2.123456,22.3125,1.427E+04
211,1.974590,22.3124,1.427E+04
212,2.104368,22.3175,1.427E+04
213,1.950110,22.3174,1.427E+04
214,2.077410,22.3225,1.427E+04
215,1.925729,22.3224,1.427E+04
216,2.076890,22.3275,1.427E+04
217,1.909708,22.3274,1.427E+04
218,2.037396,22.3325,1.427E+04
219,1.888356,22.3324,1.427E+04
220,2.025966,22.3374,1.427E+04
221,1.861352,22.3374,1.427E+04
222,1.995221,22.3424,1.427E+04
223,1.834894,22.3423,1.427E+04
224,1.988123,22.3474,1.427E+04
225,1.824826,22.3473,1.427E+04
226,1.953365,22.3524,1.427E+04
227,1.808511,22.3523,1.427E+04
228,1.940126,22.3574,1.427E+04
229,1.783376,22.3573,1.427E+04
230,1.911873,22.3624,1.427E+04
231,1.757961,22.3623,1.427E+04
232,1.904821,22.3674,1.427E+04
233,1.739168,22.3673,1.427E+04
234,1.871274,22.3724,1.427E+04
235,1.722479,22.3723,1.427E+04
236,1.858737,22.3773,1.427E+04
237,1.698714,22.3773,1.427E+04
238,1.825770,22.3823,1.427E+04
239,1.672214,22.3822,1.427E+04
240,1.830648,22.3873,1.427E+04
241,1.663259,22.3872,1.427E+04
242,1.796044,22.3923,1.427E+04
243,1.645121,22.3922,1.427E+04
244,1.783231,22.3973,1.427E+04
245,1.616745,22.3972,1.427E+04
246,1.756002,22.4023,1.427E+04
247,1.597302,22.4022,1.427E+04
248,1.751662,22.4073,1.427E+04
249,1.582441,22.4072,1.427E+04
250,1.717484,22.4123,1.427E+04
251,1.572649,22.4122,1.427E+04
252,1.711480,22.4173,1.427E+04
253,1.546224,22.4172,1.427E+04
254,1.685490,22.4222,1.427E+04
255,1.521305,22.4221,1.427E+04
256,1.680192,22.4272,1.427E+04
257,1.509703,22.4271,1.427E+04
258,1.651892,22.4322,1.427E+04
259,1.502240,22.4321,1.427E+04
260,1.634393,22.4372,1.427E+04
261,1.474164,22.4371,1.427E+04
262,1.611359,22.4422,1.427E+04
263,1.453098,22.4421,1.427E+04
264,1.612261,22.4472,1.427E+04
265,1.438780,22.4471,1.427E+04
266,1.579804,22.4522,1.427E+04
267,1.434043,22.4521,1.427E+04
268,1.570105,22.4572,1.427E+04
269,1.407823,22.4571,1.427E+04
270,1.540295,22.4622,1.427E+04
271,1.380122,22.4621,1.427E+04
272,1.550222,22.4672,1.427E+04
273,1.370148,22.4671,1.427E+04
274,1.516166,22.4721,1.427E+04
275,1.365845,22.4721,1.427E+04
276,1.502904,22.4771,1.427E+04
277,1.340585,22.4770,1.427E+04
278,1.474286,22.4821,1.427E+04
279,1.321108,22.4820,1.427E+04
280,1.481931,22.4871,1.427E+04
281,1.314276,22.4870,1.427E+04
282,1.455385,22.4921,1.427E+04
283,1.309348,22.4920,1.427E+04
284,1.440052,22.4971,1.427E+04
285,1.287127,22.4970,1.427E+04
286,1.419289,22.5021,1.427E+04
287,1.263605,22.5020,1.427E+04
288,1.424438,22.5071,1.427E+04
289,1.255848,22.5070,1.427E+04
290,1.394810,22.5121,1.427E+04
291,1.247814,22.5120,1.427E+04
292,1.382053,22.5171,1.427E+04
293,1.228179,22.5170,1.427E+04
294,1.351793,22.5220,1.427E+04
295,1.205350,22.5220,1.427E+04
296,1.367992,22.5271,1.427E+04
297,1.205247,22.5270,1.427E+04
298,1.336381,22.5320,1.427E+04
299,1.194417,22.5320,1.427E+04
300,1.319570,22.5370,1.427E+04
301,1.174001,22.5369,1.427E+04
302,1.301506,22.5420,1.427E+04
303,1.156035,22.5419,1.427E+04
304,1.308866,22.5470,1.427E+04
305,1.144826,22.5469,1.427E+04
306,1.287038,22.5520,1.427E+04
307,1.143676,22.5519,1.427E+04
308,1.272990,22.5570,1.427E+04
309,1.119509,22.5569,1.427E+04
310,1.247917,22.5620,1.427E+04
311,1.098195,22.5619,1.427E+04
312,1.257185,22.5670,1.427E+04
313,1.089114,22.5669,1.427E+04
314,1.234272,22.5720,1.427E+04
315,1.094342,22.5719,1.427E+04
316,1.216704,22.5770,1.427E+04
317,1.074192,22.5769,1.427E+04
318,1.196848,22.5820,1.427E+04
319,1.048081,22.5819,1.427E+04
320,1.203002,22.5870,1.427E+04
321,1.039663,22.5869,1.427E+04
322,1.184508,22.5919,1.427E+04
323,1.046116,22.5919,1.427E+04
324,1.170264,22.5969,1.427E+04
325,1.022446,22.5968,1.427E+04
326,1.149446,22.6019,1.427E+04
327,0.998106,22.6018,1.427E+04
328,1.148324,22.6069,1.427E+04
329,0.991017,22.6068,1.427E+04
330,1.132701,22.6119,1.427E+04
331,0.999285,22.6118,1.427E+04
332,1.117475,22.6169,1.427E+04
333,0.980192,22.6168,1.427E+04
334,1.094290,22.6219,1.427E+04
335,0.953697,22.6218,1.427E+04
336,1.100220,22.6269,1.427E+04
337,0.940963,22.6268,1.427E+04
338,1.082109,22.6319,1.427E+04
339,0.940641,22.6318,1.427E+04
340,1.069610,22.6369,1.427E+04
341,0.926131,22.6368,1.427E+04
342,1.048113,22.6419,1.427E+04
343,0.909857,22.6418,1.427E+04
344,1.053089,22.6469,1.427E+04
345,0.900435,22.6468,1.427E+04
346,1.031433,22.6519,1.427E+04
347,0.899023,22.6518,1.427E+04
348,1.018831,22.6569,1.427E+04
349,0.882343,22.6568,1.427E+04
350,0.997741,22.6618,1.427E+04
351,0.866219,22.6618,1.427E+04
352,1.004891,22.6668,1.427E+04
353,0.850073,22.6667,1.427E+04
354,0.993276,22.6718,1.427E+04
355,0.855511,22.6718,1.427E+04
356,0.974992,22.6768,1.427E+04
357,0.837405,22.6767,1.427E+04
358,0.954679,22.6818,1.427E+04
359,0.822179,22.6817,1.427E+04
360,0.955146,22.6868,1.427E+04
361,0.809338,22.6867,1.427E+04
362,0.941356,22.6918,1.427E+04
363,0.806645,22.6917,1.427E+04
364,0.926780,22.6968,1.427E+04
365,0.789895,22.6967,1.427E+04
366,0.905462,22.7018,1.427E+04
367,0.774730,22.7017,1.427E+04
368,0.906537,22.7068,1.427E+04
369,0.762829,22.7067,1.427E+04
370,0.895202,22.7118,1.427E+04
371,0.763442,22.7117,1.427E+04
372,0.880842,22.7168,1.427E+04
373,0.750288,22.7167,1.427E+04
374,0.857648,22.7218,1.427E+04
375,0.729479,22.7217,1.427E+04
376,0.859705,22.7268,1.427E+04
377,0.717180,22.7267,1.427E+04
378,0.844456,22.7317,1.427E+04
379,0.720047,22.7317,1.427E+04
380,0.828099,22.7367,1.427E+04
381,0.703774,22.7367,1.427E+04
382,0.807650,22.7417,1.427E+04
383,0.683049,22.7417,1.427E+04
384,0.808955,22.7467,1.427E+04
385,0.671162,22.7466,1.427E+04
386,0.795731,22.7517,1.427E+04
387,0.668211,22.7516,1.427E+04
388,0.781010,22.7567,1.427E+04
389,0.660482,22.7566,1.427E+04
390,0.761866,22.7617,1.427E+04
391,0.643273,22.7616,1.427E+04
392,0.761814,22.7667,1.427E+04
393,0.623956,22.7666,1.427E+04
394,0.745181,22.7717,1.427E+04
395,0.626584,22.7716,1.427E+04
396,0.729474,22.7767,1.427E+04
397,0.605728,22.7766,1.427E+04
398,0.716694,22.7817,1.427E+04
399,0.589427,22.7816,1.427E+04
400,0.712013,22.7867,1.427E+04
401,0.573346,22.7866,1.427E+04
402,0.699201,22.7917,1.427E+04
403,0.569881,22.7916,1.427E+04
404,0.683965,22.7967,1.427E+04
405,0.553860,22.7966,1.427E+04
406,0.664723,22.8016,1.427E+04
407,0.537138,22.8016,1.427E+04
408,0.660346,22.8066,1.427E+04
409,0.520477,22.8066,1.427E+04
410,0.645976,22.8116,1.427E+04
411,0.519799,22.8116,1.427E+04
412,0.633257,22.8166,1.427E+04
413,0.503708,22.8165,1.427E+04
414,0.611040,22.8216,1.427E+04
415,0.489535,22.8215,1.427E+04
416,0.647309,22.8266,1.427E+04
417,0.476572,22.8265,1.427E+04
418,0.615623,22.8310,1.427E+04
419,0.473033,22.8309,1.427E+04
420,0.617208,22.8366,1.427E+04
421,0.466018,22.8365,1.427E+04
422,0.593510,22.8416,1.427E+04
423,0.449133,22.8415,1.427E+04
424,0.599500,22.8466,1.427E+04
425,0.432551,22.8465,1.427E+04
426,0.552930,22.8510,1.427E+04
427,0.434075,22.8509,1.427E+04
428,0.554463,22.8566,1.427E+04
429,0.416007,22.8565,1.427E+04
430,0.538083,22.8616,1.427E+04
431,0.401978,22.8615,1.427E+04
432,0.538625,22.8666,1.427E+04
433,0.385850,22.8665,1.427E+04
434,0.500547,22.8709,1.427E+04
435,0.388992,22.8709,1.427E+04
436,0.509558,22.8766,1.427E+04
437,0.376348,22.8765,1.427E+04
438,0.482834,22.8809,1.427E+04
439,0.366247,22.8808,1.427E+04
440,0.483372,22.8865,1.427E+04
441,0.347393,22.8865,1.427E+04
442,0.453902,22.8909,1.427E+04
443,0.343905,22.8908,1.427E+04
444,0.455221,22.8965,1.427E+04
445,0.333734,22.8964,1.427E+04
446,0.437807,22.9009,1.427E+04
447,0.321660,22.9008,1.427E+04
448,0.441515,22.9065,1.427E+04
449,0.308871,22.9064,1.427E+04
450,0.413070,22.9109,1.427E+04
451,0.305270,22.9108,1.427E+04
452,0.410994,22.9165,1.427E+04
453,0.291910,22.9164,1.427E+04
454,0.399542,22.9209,1.427E+04
455,0.279144,22.9208,1.427E+04
456,0.398017,22.9265,1.427E+04
457,0.266631,22.9264,1.427E+04
458,0.376086,22.9308,1.427E+04
459,0.261010,22.9308,1.427E+04
460,0.372827,22.9358,1.427E+04
461,0.248796,22.9358,1.427E+04
462,0.358985,22.9408,1.427E+04
463,0.238260,22.9408,1.427E+04
464,0.359972,22.9465,1.427E+04
465,0.223474,22.9464,1.427E+04
466,0.332322,22.9508,1.427E+04
467,0.215534,22.9508,1.427E+04
468,0.329479,22.9564,1.427E+04
469,0.207795,22.9564,1.427E+04
470,0.310606,22.9608,1.427E+04
471,0.193033,22.9607,1.427E+04
472,0.315661,22.9664,1.427E+04
473,0.179308,22.9664,1.427E+04
474,0.286509,22.9708,1.427E+04
475,0.173692,22.9707,1.427E+04
476,0.286191,22.9758,1.427E+04
477,0.164050,22.9757,1.427E+04
478,0.265027,22.9808,1.427E+04
479,0.150395,22.9807,1.427E+04
480,0.272930,22.9864,1.427E+04
481,0.138275,22.9863,1.427E+04
482,0.243184,22.9908,1.427E+04
483,0.129142,22.9907,1.427E+04
484,0.238733,22.9958,1.427E+04
485,0.122937,22.9957,1.427E+04
486,0.222132,23.0008,1.427E+04
487,0.107641,23.0007,1.427E+04
488,0.227510,23.0064,1.427E+04
489,0.092934,23.0063,1.427E+04
490,0.195642,23.0107,1.427E+04
491,0.090465,23.0107,1.427E+04
492,0.193842,23.0157,1.427E+04
493,0.078153,23.0157,1.427E+04
494,0.180921,23.0207,1.427E+04
495,0.068263,23.0207,1.427E+04
496,0.182086,23.0264,1.427E+04
497,0.053000,23.0263,1.427E+04
498,0.156671,23.0307,1.427E+04
499,0.047393,23.0307,1.427E+04
500,0.148791,23.0357,1.427E+04
501,0.041730,23.0356,1.427E+04
502,0.135759,23.0407,1.427E+04
503,0.024826,23.0406,1.427E+04
504,0.144555,23.0463,1.427E+04
505,0.015600,23.0463,1.427E+04
506,0.114454,23.0507,1.427E+04
507,0.008534,23.0506,1.427E+04
508,0.105438,23.0557,1.427E+04
509,-0.002062,23.0556,1.427E+04
510,0.092532,23.0607,1.427E+04
511,-0.008931,23.0606,1.427E+04
512,0.102446,23.0663,1.427E+04
513,-0.024078,23.0662,1.427E+04
514,0.074749,23.0707,1.427E+04
515,-0.026360,23.0706,1.427E+04
516,0.069016,23.0757,1.427E+04
517,-0.032920,23.0756,1.427E+04
518,0.056484,23.0807,1.427E+04
519,-0.044223,23.0806,1.427E+04
520,0.067716,23.0863,1.427E+04
521,-0.057199,23.0862,1.427E+04
522,0.038069,23.0906,1.427E+04
523,-0.061529,23.0906,1.427E+04
524,0.030984,23.0956,1.427E+04
525,-0.067589,23.0956,1.427E+04
526,0.018410,23.1006,1.427E+04
527,-0.080159,23.1006,1.427E+04
528,0.021557,23.1063,1.427E+04
529,-0.089787,23.1062,1.427E+04
530,0.003942,23.1106,1.427E+04
531,-0.099387,23.1106,1.427E+04
532,-0.004517,23.1156,1.427E+04
533,-0.104873,23.1156,1.427E+04
534,-0.018887,23.1206,1.427E+04
535,-0.119182,23.1206,1.427E+04
536,-0.014225,23.1262,1.427E+04
537,-0.127103,23.1262,1.427E+04
538,-0.040856,23.1306,1.427E+04
539,-0.134323,23.1305,1.427E+04
540,-0.042390,23.1356,1.427E+04
541,-0.142997,23.1355,1.427E+04
542,-0.060814,23.1406,1.427E+04
543,-0.147561,23.1405,1.427E+04
544,-0.049797,23.1462,1.427E+04
545,-0.158943,23.1462,1.427E+04
546,-0.074767,23.1506,1.427E+04
547,-0.170372,23.1505,1.427E+04
548,-0.081538,23.1556,1.427E+04
549,-0.179013,23.1555,1.427E+04
550,-0.105270,23.1606,1.427E+04
551,-0.187603,23.1605,1.427E+04
552,-0.091363,23.1662,1.427E+04
553,-0.194412,23.1661,1.427E+04
554,-0.108829,23.1706,1.427E+04
555,-0.210872,23.1705,1.427E+04
556,-0.122927,23.1756,1.427E+04
557,-0.211639,23.1755,1.427E+04
558,-0.137026,23.1805,1.427E+04
559,-0.220089,23.1805,1.427E+04
560,-0.136254,23.1862,1.427E+04
561,-0.230433,23.1861,1.427E+04
562,-0.154332,23.1905,1.427E+04
563,-0.242413,23.1905,1.427E+04
564,-0.161548,23.1955,1.427E+04
565,-0.247449,23.1955,1.427E+04
566,-0.170849,23.2005,1.427E+04
567,-0.254697,23.2005,1.427E+04
568,-0.168370,23.2062,1.427E+04
569,-0.267529,23.2061,1.427E+04
570,-0.185696,23.2105,1.427E+04
571,-0.273921,23.2105,1.427E+04
572,-0.193149,23.2155,1.427E+04
573,-0.277975,23.2155,1.427E+04
574,-0.212457,23.2205,1.427E+04
575,-0.284844,23.2205,1.427E+04
576,-0.203386,23.2261,1.427E+04
577,-0.295198,23.2261,1.427E+04
578,-0.216787,23.2305,1.427E+04
579,-0.303704,23.2304,1.427E+04
580,-0.232986,23.2355,1.427E+04
581,-0.312658,23.2354,1.427E+04
582,-0.246794,23.2405,1.427E+04
583,-0.315824,23.2404,1.427E+04
584,-0.237409,23.2461,1.427E+04
585,-0.320019,23.2461,1.427E+04
586,-0.253687,23.2505,1.427E+04
587,-0.345004,23.2504,1.427E+04
588,-0.268674,23.2555,1.427E+04
589,-0.336975,23.2554,1.427E+04
590,-0.280444,23.2605,1.427E+04
591,-0.347052,23.2604,1.427E+04
592,-0.274178,23.2661,1.427E+04
593,-0.352934,23.2660,1.427E+04
594,-0.292270,23.2705,1.427E+04
595,-0.359439,23.2704,1.427E+04
596,-0.298761,23.2755,1.427E+04
597,-0.361267,23.2754,1.427E+04
598,-0.316816,23.2804,1.427E+04
599,-0.386056,23.2804,1.427E+04
600,-0.302516,23.2861,1.427E+04
601,-0.375198,23.2860,1.427E+04
602,-0.319116,23.2904,1.427E+04
603,-0.388370,23.2904,1.427E+04
604,-0.329675,23.2954,1.427E+04
605,-0.390353,23.2954,1.427E+04
606,-0.331924,23.3004,1.427E+04
607,-0.387982,23.3004,1.427E+04
608,-0.324302,23.3061,1.427E+04
609,-0.393776,23.3060,1.427E+04
610,-0.338036,23.3104,1.427E+04
611,-0.399238,23.3104,1.427E+04
612,-0.353248,23.3154,1.427E+04
613,-0.400818,23.3154,1.427E+04
614,-0.360561,23.3204,1.427E+04
615,-0.401300,23.3204,1.427E+04
616,-0.348258,23.3260,1.427E+04
617,-0.408511,23.3260,1.427E+04
618,-0.359818,23.3304,1.427E+04
619,-0.432892,23.3304,1.427E+04
620,-0.377508,23.3354,1.427E+04
621,-0.429165,23.3354,1.427E+04
622,-0.385191,23.3404,1.427E+04
623,-0.434290,23.3404,1.427E+04
