Point No.,Normal Force [N],Gap [mm],Time [s]
1,9.931480,21.8027,2630
2,9.930583,21.8027,2630
3,9.930355,21.8027,2630
4,9.932930,21.8027,2630
5,9.931228,21.8027,2630
6,9.932687,21.8027,2630
7,9.928947,21.8027,2630
8,9.916896,21.8034,2630
9,9.877774,21.8033,2630
10,9.821259,21.8033,2630
11,9.712261,21.8057,2630
12,9.654849,21.8057,2630
13,9.462469,21.8087,2630
14,9.355222,21.8086,2630
15,9.169792,21.8129,2630
16,9.011078,21.8128,2630
17,8.869297,21.8171,2630
18,8.680978,21.8220,2630
19,8.553252,21.8219,2630
20,8.379469,21.8268,2630
21,8.268871,21.8268,2630
22,8.074338,21.8316,2630
23,7.977424,21.8316,2630
24,7.826464,21.8365,2630
25,7.721946,21.8364,2630
26,7.549180,21.8413,2630
27,7.478636,21.8413,2630
28,7.316597,21.8462,2630
29,7.228381,21.8461,2631
30,7.055160,21.8460,2631
31,6.970294,21.8510,2631
32,6.828699,21.8509,2631
33,6.744041,21.8559,2631
34,6.597009,21.8558,2631
35,6.533758,21.8607,2631
36,6.392860,21.8606,2631
37,6.320454,21.8656,2631
38,6.172659,21.8655,2631
39,6.150764,21.8705,2631
40,6.031293,21.8704,2631
41,6.017134,21.8754,2631
42,5.902886,21.8754,2631
43,5.872851,21.8803,2631
44,5.758893,21.8803,2631
45,5.722853,21.8853,2631
46,5.586846,21.8852,2631
47,5.581951,21.8902,2631
48,5.454699,21.8901,2631
49,5.428824,21.8951,2631
50,5.304405,21.8950,2631
51,5.279948,21.9000,2631
52,5.144897,21.8999,2631
53,5.126795,21.9049,2631
54,4.977111,21.9048,2631
55,5.010503,21.9098,2631
56,4.899467,21.9098,2631
57,4.916713,21.9148,2631
58,4.802119,21.9147,2631
59,4.812401,21.9197,2631
60,4.684292,21.9196,2631
61,4.696382,21.9246,2631
62,4.586318,21.9246,2631
63,4.637078,21.9296,2631
64,4.524826,21.9295,2631
65,4.536610,21.9346,2631
66,4.416937,21.9345,2631
67,4.447872,21.9395,2631
68,4.314155,21.9394,2631
69,4.335581,21.9444,2631
70,4.208726,21.9444,2631
71,4.256610,21.9494,2631
72,4.126968,21.9493,2631
73,4.160084,21.9543,2631
74,4.055800,21.9543,2631
75,4.107071,21.9593,2631
76,3.999215,21.9592,2631
77,4.035203,21.9643,2631
78,3.912602,21.9642,2631
79,3.969629,21.9692,2631
80,3.855464,21.9692,2631
81,3.931789,21.9736,2631
82,3.833252,21.9735,2631
83,3.908455,21.9792,2631
84,3.802249,21.9791,2631
85,3.877461,21.9835,2631
86,3.745186,21.9835,2631
87,3.819275,21.9891,2631
88,3.677241,21.9890,2631
89,3.736250,21.9935,2631
90,3.628198,21.9934,2631
91,3.684705,21.9984,2631
92,3.561702,21.9984,2631
93,3.625093,22.0040,2631
94,3.494833,22.0039,2631
95,3.569768,22.0090,2631
96,3.443175,22.0089,2631
97,3.513444,22.0139,2631
98,3.425584,22.0139,2631
99,3.526603,22.0183,2631
100,3.440500,22.0183,2631
101,3.537419,22.0233,2631
102,3.419261,22.0233,2631
103,3.530339,22.0290,2631
104,3.426477,22.0289,2631
105,3.515941,22.0333,2631
106,3.412457,22.0333,2631
107,3.503741,22.0383,2631
108,3.386112,22.0382,2631
109,3.479369,22.0433,2631
110,3.361174,22.0432,2631
111,3.465354,22.0489,2631
112,3.347403,22.0489,2631
113,3.438420,22.0539,2631
114,3.345121,22.0538,2631
115,3.440028,22.0589,2631
116,3.325177,22.0588,2631
117,3.415006,22.0633,2631
118,3.289792,22.0632,2631
119,3.395165,22.0689,2631
120,3.269993,22.0688,2631
121,3.359322,22.0732,2631
122,3.261740,22.0732,2631
123,3.351008,22.0782,2631
124,3.231925,22.0782,2631
125,3.322614,22.0832,2631
126,3.193753,22.0831,2631
127,3.299589,22.0882,2631
128,3.162610,22.0881,2631
129,3.256296,22.0938,2631
130,3.149315,22.0937,2631
131,3.242853,22.0988,2631
132,3.126126,22.0987,2631
133,3.217293,22.1031,2631
134,3.091929,22.1031,2631
135,3.206215,22.1088,2631
136,3.067482,22.1087,2631
137,3.157335,22.1131,2631
138,3.050802,22.1131,2631
139,3.141791,22.1181,2631
140,3.013098,22.1180,2631
141,3.114987,22.1231,2631
142,2.991115,22.1230,2631
143,3.105565,22.1281,2631
144,2.957105,22.1280,2631
145,3.050662,22.1331,2631
146,2.938476,22.1330,2631
147,3.033416,22.1380,2631
148,2.906247,22.1380,2631
149,2.998854,22.1436,2631
150,2.869268,22.1436,2631
151,2.980407,22.1486,2631
152,2.839467,22.1486,2631
153,2.925256,22.1530,2631
154,2.809549,22.1529,2631
155,2.907805,22.1580,2631
156,2.774744,22.1579,2631
157,2.872374,22.1629,2631
158,2.739846,22.1629,2631
159,2.855899,22.1679,2631
160,2.711200,22.1678,2631
161,2.803026,22.1729,2631
162,2.685350,22.1728,2631
163,2.785949,22.1779,2631
164,2.653158,22.1778,2631
165,2.756152,22.1829,2631
166,2.622385,22.1828,2631
167,2.738256,22.1885,2631
168,2.593879,22.1884,2631
169,2.685794,22.1928,2631
170,2.570264,22.1928,2631
171,2.668417,22.1978,2631
172,2.533103,22.1977,2631
173,2.643605,22.2028,2631
174,2.503447,22.2027,2631
175,2.625789,22.2078,2631
176,2.475979,22.2077,2631
177,2.574922,22.2128,2631
178,2.453874,22.2127,2631
179,2.563984,22.2178,2631
180,2.430054,22.2177,2631
181,2.532523,22.2227,2631
182,2.392710,22.2227,2631
183,2.520370,22.2277,2631
184,2.369399,22.2277,2631
185,2.470442,22.2333,2631
186,2.351598,22.2333,2631
187,2.457853,22.2383,2631
188,2.324157,22.2382,2631
189,2.433393,22.2427,2631
190,2.299692,22.2426,2631
191,2.421539,22.2477,2631
192,2.280837,22.2476,2631
193,2.380930,22.2527,2631
194,2.268955,22.2526,2631
195,2.368562,22.2576,2631
196,2.248590,22.2576,2631
197,2.342244,22.2626,2631
198,2.223821,22.2626,2631
199,2.336147,22.2676,2631
200,2.204045,22.2676,2631
201,2.291153,22.2726,2631
202,2.189769,22.2725,2631
203,2.285041,22.2776,2631
204,2.159430,22.2775,2631
205,2.259771,22.2832,2631
206,2.137064,22.2831,2631
207,2.256516,22.2882,2631
208,2.115436,22.2881,2631
209,2.222413,22.2926,2631
210,2.103213,22.2925,2631
211,2.216128,22.2976,2631
212,2.069544,22.2975,2631
213,2.194740,22.3025,2631
214,2.046631,22.3025,2631
215,2.186453,22.3075,2631
216,2.032696,22.3075,2631
217,2.147632,22.3125,2631
218,2.022431,22.3124,2631
219,2.143330,22.3175,2631
220,1.996329,22.3174,2631
221,2.121651,22.3225,2631
222,1.964901,22.3224,2631
223,2.105934,22.3275,2631
224,1.948053,22.3274,2631
225,2.062895,22.3331,2631
226,1.936044,22.3330,2631
227,2.058756,22.3381,2631
228,1.913360,22.3380,2631
229,2.030371,22.3424,2632
230,1.886397,22.3424,2632
231,2.031190,22.3481,2632
232,1.870306,22.3480,2632
233,1.987739,22.3524,2632
234,1.853636,22.3523,2632
235,1.976731,22.3574,2632
236,1.827272,22.3573,2632
237,1.951658,22.3624,2632
238,1.804779,22.3623,2632
239,1.947412,22.3674,2632
240,1.785859,22.3673,2632
241,1.906285,22.3724,2632
242,1.775464,22.3723,2632
243,1.897597,22.3774,2632
244,1.749769,22.3773,2632
245,1.865499,22.3830,2632
246,1.726523,22.3829,2632
247,1.864634,22.3880,2632
248,1.702090,22.3879,2632
249,1.824849,22.3923,2632
250,1.697924,22.3923,2632
251,1.817405,22.3973,2632
252,1.673248,22.3972,2632
253,1.793121,22.4023,2632
254,1.644980,22.4022,2632
255,1.788899,22.4073,2632
256,1.625962,22.4072,2632
257,1.750882,22.4123,2632
258,1.621192,22.4122,2632
259,1.745359,22.4173,2632
260,1.595160,22.4172,2632
261,1.719720,22.4223,2632
262,1.576367,22.4222,2632
263,1.723446,22.4279,2632
264,1.556792,22.4278,2632
265,1.679626,22.4329,2632
266,1.556067,22.4328,2632
267,1.676858,22.4372,2632
268,1.529586,22.4372,2632
269,1.650727,22.4422,2632
270,1.509063,22.4421,2632
271,1.651602,22.4478,2632
272,1.488361,22.4478,2632
273,1.615665,22.4522,2632
274,1.486949,22.4521,2632
275,1.604620,22.4572,2632
276,1.459612,22.4571,2632
277,1.583746,22.4622,2632
278,1.437760,22.4621,2632
279,1.582642,22.4678,2632
280,1.419916,22.4677,2632
281,1.547758,22.4722,2632
282,1.418532,22.4721,2632
283,1.541375,22.4778,2632
284,1.396124,22.4777,2632
285,1.510330,22.4821,2632
286,1.376273,22.4821,2632
287,1.520561,22.4878,2632
288,1.364101,22.4877,2632
289,1.485916,22.4921,2632
290,1.355688,22.4921,2632
291,1.483764,22.4971,2632
292,1.340533,22.4970,2632
293,1.459098,22.5021,2632
294,1.317353,22.5020,2632
295,1.461819,22.5077,2632
296,1.304433,22.5076,2632
297,1.419378,22.5121,2632
298,1.304915,22.5120,2632
299,1.421651,22.5171,2632
300,1.284152,22.5170,2632
301,1.398200,22.5227,2632
302,1.262469,22.5226,2632
303,1.403951,22.5277,2632
304,1.245677,22.5276,2632
305,1.365055,22.5321,2632
306,1.248188,22.5320,2632
307,1.365616,22.5371,2632
308,1.230068,22.5370,2632
309,1.345401,22.5420,2632
310,1.213477,22.5420,2632
311,1.347851,22.5477,2632
312,1.190503,22.5476,2632
313,1.315296,22.5520,2632
314,1.193650,22.5520,2632
315,1.307220,22.5570,2632
316,1.172832,22.5569,2632
317,1.288932,22.5620,2632
318,1.158546,22.5619,2632
319,1.293154,22.5676,2632
320,1.138186,22.5675,2632
321,1.260126,22.5720,2632
322,1.141235,22.5719,2632
323,1.257092,22.5770,2632
324,1.131980,22.5769,2632
325,1.235254,22.5820,2632
326,1.111083,22.5819,2632
327,1.241389,22.5876,2632
328,1.088413,22.5875,2632
329,1.210559,22.5920,2632
330,1.092387,22.5919,2632
331,1.207964,22.5970,2632
332,1.078218,22.5969,2632
333,1.188782,22.6020,2632
334,1.061842,22.6019,2632
335,1.192789,22.6076,2632
336,1.051812,22.6075,2632
337,1.164891,22.6126,2632
338,1.044419,22.6125,2632
339,1.163479,22.6176,2632
340,1.029806,22.6175,2632
341,1.138153,22.6219,2632
342,1.016863,22.6218,2632
343,1.146855,22.6275,2632
344,0.997611,22.6275,2632
345,1.116858,22.6319,2632
346,1.001599,22.6318,2632
347,1.111775,22.6369,2632
348,0.984031,22.6368,2632
349,1.086865,22.6419,2632
350,0.969521,22.6418,2632
351,1.092874,22.6475,2632
352,0.955670,22.6474,2632
353,1.067323,22.6519,2632
354,0.946879,22.6518,2632
355,1.064807,22.6569,2632
356,0.940346,22.6568,2632
357,1.039930,22.6625,2632
358,0.925448,22.6624,2632
359,1.048581,22.6675,2632
360,0.910030,22.6674,2632
361,1.023648,22.6719,2632
362,0.905509,22.6718,2632
363,1.014459,22.6768,2632
364,0.895352,22.6768,2632
365,0.991793,22.6818,2632
366,0.882974,22.6818,2632
367,1.004372,22.6875,2632
368,0.867973,22.6874,2632
369,0.972116,22.6918,2632
370,0.862109,22.6918,2632
371,0.969932,22.6968,2632
372,0.849731,22.6968,2632
373,0.948543,22.7018,2632
374,0.834389,22.7017,2632
375,0.954412,22.7074,2632
376,0.823250,22.7074,2632
377,0.924704,22.7118,2632
378,0.818354,22.7117,2632
379,0.929310,22.7168,2632
380,0.806762,22.7167,2632
381,0.899911,22.7218,2632
382,0.791312,22.7217,2632
383,0.905406,22.7268,2632
384,0.779228,22.7267,2632
385,0.876484,22.7318,2632
386,0.771171,22.7317,2632
387,0.875488,22.7368,2632
388,0.764742,22.7367,2632
389,0.853795,22.7418,2632
390,0.749600,22.7417,2632
391,0.855759,22.7468,2632
392,0.734917,22.7467,2632
393,0.831508,22.7517,2632
394,0.724218,22.7517,2632
395,0.822698,22.7567,2632
396,0.717695,22.7567,2632
397,0.808025,22.7617,2632
398,0.702895,22.7617,2632
399,0.810119,22.7667,2632
400,0.683582,22.7667,2632
401,0.782577,22.7717,2632
402,0.677938,22.7717,2632
403,0.773781,22.7767,2632
404,0.670984,22.7766,2632
405,0.753252,22.7817,2632
406,0.657559,22.7816,2632
407,0.759682,22.7867,2632
408,0.641959,22.7866,2632
409,0.734300,22.7917,2632
410,0.626696,22.7916,2632
411,0.725429,22.7967,2632
412,0.619149,22.7966,2632
413,0.701314,22.8017,2632
414,0.603825,22.8016,2632
415,0.707398,22.8067,2632
416,0.535085,22.8066,2632
417,0.679528,22.8117,2632
418,0.528936,22.8116,2632
419,0.669773,22.8166,2632
420,0.515141,22.8166,2632
421,0.651508,22.8216,2632
422,0.501239,22.8215,2632
423,0.652079,22.8266,2632
424,0.487529,22.8265,2632
425,0.629095,22.8316,2632
426,0.480879,22.8315,2632
427,0.616203,22.8366,2632
428,0.466935,22.8365,2632
429,0.598709,22.8416,2633
430,0.455618,22.8415,2633
431,0.603278,22.8466,2633
432,0.445228,22.8465,2633
433,0.572345,22.8516,2633
434,0.441698,22.8515,2633
435,0.556703,22.8566,2633
436,0.427660,22.8565,2633
437,0.537274,22.8616,2633
438,0.407706,22.8615,2633
439,0.542787,22.8666,2633
440,0.397475,22.8665,2633
441,0.509409,22.8716,2633
442,0.397035,22.8715,2633
443,0.499397,22.8765,2633
444,0.380748,22.8765,2633
445,0.479696,22.8815,2633
446,0.362880,22.8815,2633
447,0.483849,22.8865,2633
448,0.357723,22.8865,2633
449,0.458017,22.8915,2633
450,0.351120,22.8915,2633
451,0.446388,22.8965,2633
452,0.338415,22.8965,2633
453,0.430680,22.9015,2633
454,0.319855,22.9014,2633
455,0.428300,22.9065,2633
456,0.304966,22.9064,2633
457,0.408174,22.9115,2633
458,0.310348,22.9114,2633
459,0.401104,22.9165,2633
460,0.291396,22.9164,2633
461,0.387192,22.9215,2633
462,0.276844,22.9214,2633
463,0.384513,22.9265,2633
464,0.261286,22.9264,2633
465,0.370531,22.9315,2633
466,0.262376,22.9314,2633
467,0.361249,22.9365,2633
468,0.244765,22.9364,2633
469,0.345261,22.9415,2633
470,0.230765,22.9414,2633
471,0.340776,22.9465,2633
472,0.212490,22.9464,2633
473,0.323778,22.9514,2633
474,0.215707,22.9514,2633
475,0.313201,22.9564,2633
476,0.198705,22.9564,2633
477,0.295118,22.9614,2633
478,0.183993,22.9614,2633
479,0.295946,22.9664,2633
480,0.170152,22.9664,2633
481,0.279186,22.9708,2633
482,0.173336,22.9707,2633
483,0.262825,22.9764,2633
484,0.154856,22.9763,2633
485,0.247276,22.9808,2633
486,0.138653,22.9807,2633
487,0.249871,22.9864,2633
488,0.123937,22.9863,2633
489,0.231798,22.9914,2633
490,0.127557,22.9913,2633
491,0.217676,22.9964,2633
492,0.109712,22.9963,2633
493,0.195006,23.0014,2633
494,0.092364,23.0013,2633
495,0.200547,23.0064,2633
496,0.078237,23.0063,2633
497,0.182857,23.0107,2633
498,0.079747,23.0107,2633
499,0.171312,23.0164,2633
500,0.064966,23.0163,2633
501,0.150189,23.0207,2633
502,0.051513,23.0207,2633
503,0.153425,23.0263,2633
504,0.034202,23.0263,2633
505,0.137709,23.0307,2633
506,0.039186,23.0306,2633
507,0.124924,23.0363,2633
508,0.026079,23.0363,2633
509,0.107328,23.0413,2633
510,0.009544,23.0413,2633
511,0.111405,23.0463,2633
512,-0.004606,23.0462,2633
513,0.099902,23.0507,2633
514,-0.004405,23.0506,2633
515,0.080486,23.0557,2633
516,-0.018953,23.0556,2633
517,0.064022,23.0607,2633
518,-0.032574,23.0606,2633
519,0.067533,23.0663,2633
520,-0.045588,23.0662,2633
521,0.050690,23.0707,2633
522,-0.049553,23.0706,2633
523,0.035300,23.0756,2633
524,-0.063965,23.0756,2633
525,0.015525,23.0806,2633
526,-0.078200,23.0806,2633
527,0.020931,23.0863,2633
528,-0.092476,23.0862,2633
529,0.005233,23.0906,2633
530,-0.093991,23.0906,2633
531,-0.012032,23.0956,2633
532,-0.105209,23.0956,2633
533,-0.026621,23.1006,2633
534,-0.122862,23.1005,2633
535,-0.027028,23.1062,2633
536,-0.141192,23.1062,2633
537,-0.037961,23.1106,2633
538,-0.137218,23.1105,2633
539,-0.050816,23.1156,2633
540,-0.145134,23.1155,2633
541,-0.071728,23.1206,2633
542,-0.166257,23.1205,2633
543,-0.067940,23.1262,2633
544,-0.181590,23.1261,2633
545,-0.082983,23.1306,2633
546,-0.178593,23.1305,2633
547,-0.098518,23.1362,2633
548,-0.194964,23.1361,2633
549,-0.119869,23.1406,2633
550,-0.215829,23.1405,2633
551,-0.114650,23.1462,2633
552,-0.210718,23.1461,2633
553,-0.128749,23.1505,2633
554,-0.210390,23.1505,2633
555,-0.139949,23.1555,2633
556,-0.215520,23.1555,2633
557,-0.161370,23.1605,2633
558,-0.248917,23.1605,2633
559,-0.161810,23.1662,2633
560,-0.255974,23.1661,2633
561,-0.164330,23.1705,2633
562,-0.245036,23.1705,2633
563,-0.183044,23.1755,2633
564,-0.253542,23.1755,2633
565,-0.196792,23.1805,2633
566,-0.301394,23.1804,2633
567,-0.201618,23.1861,2633
568,-0.285897,23.1861,2633
569,-0.206986,23.1905,2633
570,-0.285401,23.1905,2633
571,-0.226453,23.1955,2633
572,-0.301576,23.1955,2633
573,-0.229806,23.2005,2633
574,-0.300182,23.2005,2633
575,-0.221604,23.2061,2633
576,-0.309698,23.2061,2633
577,-0.238312,23.2105,2633
578,-0.310592,23.2104,2633
579,-0.251910,23.2155,2633
580,-0.319378,23.2154,2633
581,-0.264021,23.2205,2633
582,-0.329399,23.2204,2633
583,-0.258326,23.2261,2633
584,-0.329465,23.2261,2633
585,-0.264325,23.2305,2633
586,-0.345382,23.2304,2633
587,-0.283119,23.2355,2633
588,-0.354417,23.2354,2633
589,-0.327875,23.2404,2633
590,-0.353304,23.2404,2633
591,-0.288642,23.2461,2633
592,-0.373491,23.2460,2633
593,-0.313220,23.2504,2633
594,-0.364545,23.2504,2633
595,-0.306958,23.2554,2633
596,-0.372214,23.2554,2633
597,-0.350026,23.2604,2633
598,-0.386238,23.2604,2633
599,-0.332626,23.2661,2633
600,-0.394019,23.2660,2633
601,-0.339804,23.2704,2633
602,-0.390124,23.2704,2633
603,-0.346528,23.2760,2633
604,-0.403648,23.2760,2633
605,-0.352425,23.2804,2633
606,-0.411134,23.2804,2633
607,-0.344386,23.2861,2633
608,-0.423886,23.2860,2633
609,-0.360126,23.2904,2633
610,-0.427580,23.2904,2633
611,-0.394085,23.2954,2633
612,-0.431513,23.2954,2633
613,-0.418915,23.3004,2633
614,-0.450942,23.3004,2633
615,-0.412640,23.3060,2633
616,-0.453294,23.3060,2633
617,-0.415422,23.3104,2633
618,-0.459860,23.3104,2633
619,-0.416713,23.3160,2633
620,-0.465597,23.3160,2633
621,-0.426701,23.3210,2633
622,-0.474127,23.3210,2633
623,-0.421239,23.3260,2633
624,-0.486247,23.3260,2633
625,-0.427706,23.3304,2633
626,-0.497484,23.3303,2633
627,-0.442090,23.3360,2633
628,-0.492953,23.3360,2633
629,-0.477335,23.3403,2634
630,-0.504410,23.3403,2634
631,-0.476156,23.3460,2634
632,-0.514735,23.3459,2634
633,-0.470685,23.3503,2634
634,-0.517886,23.3503,2634
635,-0.491045,23.3560,2634
636,-0.531976,23.3559,2634
637,-0.491868,23.3603,2634
638,-0.531167,23.3603,2634
639,-0.507950,23.3660,2634
640,-0.545565,23.3659,2634
641,-0.507978,23.3703,2634
642,-0.550432,23.3703,2634
643,-0.517274,23.3759,2634
644,-0.559995,23.3759,2634
645,-0.535235,23.3803,2634
646,-0.564835,23.3803,2634
647,-0.532799,23.3859,2634
648,-0.572673,23.3859,2634
649,-0.540753,23.3903,2634
650,-0.581075,23.3903,2634
651,-0.552799,23.3959,2634
652,-0.583526,23.3959,2634
653,-0.566434,23.4003,2634
654,-0.593056,23.4003,2634
655,-0.565284,23.4059,2634
656,-0.599846,23.4059,2634
657,-0.569231,23.4109,2634
658,-0.603423,23.4109,2634
659,-0.585812,23.4159,2634
660,-0.611672,23.4159,2634
661,-0.596942,23.4209,2634
662,-0.622988,23.4209,2634
663,-0.600332,23.4259,2634
664,-0.629320,23.4259,2634
665,-0.600818,23.4303,2634
666,-0.631251,23.4303,2634
667,-0.617910,23.4359,2634
668,-0.635750,23.4359,2634
669,-0.631302,23.4409,2634
670,-0.647931,23.4409,2634
671,-0.633884,23.4459,2634
672,-0.657610,23.4459,2634
673,-0.631480,23.4503,2634
674,-0.658686,23.4502,2634
675,-0.643783,23.4559,2634
676,-0.662619,23.4559,2634
677,-0.655422,23.4609,2634
678,-0.676741,23.4609,2634
679,-0.668833,23.4659,2634
680,-0.681997,23.4658,2634
681,-0.659458,23.4702,2634
682,-0.684321,23.4702,2634
683,-0.671616,23.4759,2634
684,-0.691690,23.4758,2634
685,-0.688445,23.4802,2634
686,-0.697101,23.4802,2634
687,-0.690704,23.4858,2634
688,-0.707879,23.4858,2634
689,-0.693425,23.4902,2634
690,-0.711429,23.4902,2634
691,-0.703984,23.4958,2634
692,-0.715548,23.4958,2634
693,-0.717629,23.5008,2634
694,-0.725097,23.5008,2634
695,-0.722848,23.5058,2634
696,-0.732607,23.5058,2634
697,-0.723278,23.5108,2634
698,-0.733416,23.5108,2634
699,-0.731073,23.5158,2634
700,-0.736699,23.5158,2634
701,-0.746014,23.5208,2634
702,-0.748941,23.5208,2634
703,-0.748520,23.5258,2634
704,-0.752556,23.5258,2634
705,-0.748240,23.5308,2634
706,-0.755039,23.5308,2634
707,-0.757924,23.5358,2634
708,-0.754477,23.5358,2634
709,-0.773439,23.5408,2634
710,-0.763886,23.5408,2634
711,-0.769979,23.5458,2634
712,-0.766659,23.5458,2634
713,-0.769016,23.5508,2634
714,-0.769259,23.5508,2634
715,-0.772387,23.5558,2634
716,-0.763414,23.5558,2634
717,-0.770807,23.5608,2634
718,-0.761272,23.5608,2634
719,-0.775647,23.5658,2634
720,-0.764456,23.5658,2634
721,-0.774903,23.5708,2634
722,-0.775923,23.5708,2634
723,-0.781150,23.5758,2634
724,-0.773065,23.5758,2634
725,-0.791812,23.5808,2634
726,-0.781333,23.5808,2634
727,-0.799785,23.5858,2634
728,-0.784798,23.5858,2634
729,-0.801660,23.5908,2634
730,-0.796708,23.5908,2634
731,-0.810479,23.5958,2634
732,-0.793248,23.5958,2634
733,-0.817746,23.6008,2634
734,-0.801202,23.6008,2634
735,-0.823222,23.6058,2634
