Point No.,Normal Force [N],Gap [mm],Time [s]
1,9.003938,21.8172,1.262E+04
2,9.000528,21.8172,1.262E+04
3,8.999415,21.8172,1.262E+04
4,8.985855,21.8172,1.262E+04
5,8.987656,21.8178,1.262E+04
6,8.976114,21.8178,1.262E+04
7,8.931342,21.8184,1.262E+04
8,8.863108,21.8184,1.262E+04
9,8.800224,21.8208,1.262E+04
10,8.754249,21.8208,1.262E+04
11,8.590760,21.8238,1.262E+04
12,8.514235,21.8238,1.262E+04
13,8.324929,21.8274,1.262E+04
14,8.186332,21.8273,1.262E+04
15,8.008736,21.8322,1.262E+04
16,7.876704,21.8371,1.262E+04
17,7.744541,21.8371,1.262E+04
18,7.583517,21.8420,1.262E+04
19,7.481100,21.8419,1.262E+04
20,7.332477,21.8468,1.262E+04
21,7.214952,21.8468,1.262E+04
22,7.059440,21.8517,1.262E+04
23,6.955105,21.8516,1.262E+04
24,6.832711,21.8565,1.262E+04
25,6.711262,21.8565,1.262E+04
26,6.576353,21.8614,1.262E+04
27,6.480707,21.8613,1.262E+04
28,6.375222,21.8663,1.262E+04
29,6.287683,21.8662,1.262E+04
30,6.172135,21.8661,1.262E+04
31,6.116779,21.8711,1.262E+04
32,6.034365,21.8711,1.262E+04
33,5.965093,21.8760,1.262E+04
34,5.848142,21.8760,1.262E+04
35,5.804490,21.8809,1.262E+04
36,5.707436,21.8809,1.262E+04
37,5.657532,21.8852,1.262E+04
38,5.530675,21.8851,1.262E+04
39,5.498799,21.8907,1.262E+04
40,5.403414,21.8907,1.262E+04
41,5.348320,21.8957,1.262E+04
42,5.243279,21.8956,1.262E+04
43,5.192412,21.9006,1.262E+04
44,5.086534,21.9005,1.262E+04
45,5.045794,21.9055,1.262E+04
46,4.929961,21.9054,1.262E+04
47,4.942128,21.9104,1.262E+04
48,4.862264,21.9104,1.262E+04
49,4.850307,21.9147,1.262E+04
50,4.743695,21.9147,1.262E+04
51,4.725079,21.9197,1.262E+04
52,4.628184,21.9196,1.262E+04
53,4.607614,21.9246,1.262E+04
54,4.512187,21.9245,1.262E+04
55,4.548744,21.9302,1.262E+04
56,4.460707,21.9301,1.262E+04
57,4.454094,21.9345,1.262E+04
58,4.361366,21.9344,1.262E+04
59,4.353857,21.9401,1.262E+04
60,4.261202,21.9400,1.262E+04
61,4.258237,21.9450,1.262E+04
62,4.159514,21.9450,1.262E+04
63,4.182543,21.9500,1.262E+04
64,4.093234,21.9499,1.262E+04
65,4.104270,21.9543,1.262E+04
66,4.034038,21.9543,1.262E+04
67,4.044466,21.9593,1.262E+04
68,3.957134,21.9592,1.262E+04
69,3.981249,21.9642,1.262E+04
70,3.876867,21.9642,1.262E+04
71,3.925387,21.9692,1.262E+04
72,3.846575,21.9691,1.262E+04
73,3.892626,21.9742,1.262E+04
74,3.813145,21.9741,1.262E+04
75,3.863648,21.9792,1.262E+04
76,3.772125,21.9791,1.262E+04
77,3.820281,21.9848,1.262E+04
78,3.710255,21.9847,1.262E+04
79,3.756867,21.9897,1.262E+04
80,3.651059,21.9897,1.262E+04
81,3.680412,21.9940,1.262E+04
82,3.579977,21.9940,1.262E+04
83,3.621609,21.9990,1.262E+04
84,3.517438,21.9990,1.262E+04
85,3.562923,22.0040,1.262E+04
86,3.449395,22.0039,1.262E+04
87,3.523545,22.0090,1.262E+04
88,3.430026,22.0089,1.262E+04
89,3.488637,22.0139,1.262E+04
90,3.400038,22.0139,1.262E+04
91,3.484906,22.0189,1.262E+04
92,3.401454,22.0189,1.262E+04
93,3.479636,22.0239,1.262E+04
94,3.374337,22.0239,1.262E+04
95,3.465499,22.0295,1.262E+04
96,3.370793,22.0295,1.262E+04
97,3.439771,22.0345,1.262E+04
98,3.354609,22.0345,1.262E+04
99,3.423994,22.0389,1.262E+04
100,3.324180,22.0388,1.262E+04
101,3.404826,22.0439,1.262E+04
102,3.301081,22.0438,1.262E+04
103,3.390512,22.0489,1.262E+04
104,3.303091,22.0488,1.262E+04
105,3.379705,22.0539,1.262E+04
106,3.288380,22.0538,1.262E+04
107,3.360318,22.0589,1.262E+04
108,3.265294,22.0588,1.262E+04
109,3.338906,22.0638,1.262E+04
110,3.225102,22.0638,1.262E+04
111,3.314847,22.0688,1.262E+04
112,3.207290,22.0688,1.262E+04
113,3.279720,22.0738,1.262E+04
114,3.184695,22.0738,1.262E+04
115,3.257812,22.0788,1.262E+04
116,3.155156,22.0787,1.262E+04
117,3.234679,22.0838,1.262E+04
118,3.133098,22.0837,1.262E+04
119,3.234235,22.0888,1.262E+04
120,3.126360,22.0887,1.262E+04
121,3.191298,22.0938,1.262E+04
122,3.100337,22.0937,1.262E+04
123,3.191803,22.0988,1.262E+04
124,3.093159,22.0987,1.262E+04
125,3.169900,22.1037,1.262E+04
126,3.052177,22.1037,1.262E+04
127,3.148398,22.1087,1.262E+04
128,3.034281,22.1087,1.262E+04
129,3.115511,22.1137,1.262E+04
130,3.017030,22.1137,1.262E+04
131,3.095614,22.1187,1.262E+04
132,2.988665,22.1186,1.262E+04
133,3.068169,22.1237,1.262E+04
134,2.955361,22.1236,1.262E+04
135,3.045415,22.1287,1.262E+04
136,2.926963,22.1286,1.262E+04
137,3.002853,22.1336,1.262E+04
138,2.899565,22.1336,1.262E+04
139,2.983517,22.1386,1.262E+04
140,2.870012,22.1386,1.262E+04
141,2.949563,22.1436,1.262E+04
142,2.827510,22.1435,1.262E+04
143,2.923872,22.1486,1.262E+04
144,2.801604,22.1485,1.262E+04
145,2.878219,22.1536,1.262E+04
146,2.772663,22.1535,1.262E+04
147,2.860921,22.1586,1.262E+04
148,2.735876,22.1585,1.262E+04
149,2.827767,22.1635,1.262E+04
150,2.701440,22.1635,1.262E+04
151,2.804784,22.1685,1.262E+04
152,2.677185,22.1685,1.262E+04
153,2.758387,22.1735,1.262E+04
154,2.653780,22.1734,1.262E+04
155,2.743068,22.1785,1.262E+04
156,2.619888,22.1784,1.262E+04
157,2.705209,22.1835,1.262E+04
158,2.577695,22.1834,1.262E+04
159,2.689119,22.1885,1.262E+04
160,2.558756,22.1884,1.262E+04
161,2.644924,22.1934,1.262E+04
162,2.537251,22.1934,1.262E+04
163,2.627580,22.1984,1.262E+04
164,2.502904,22.1983,1.262E+04
165,2.594239,22.2034,1.262E+04
166,2.464990,22.2033,1.262E+04
167,2.571012,22.2084,1.262E+04
168,2.437003,22.2083,1.262E+04
169,2.532331,22.2134,1.262E+04
170,2.424391,22.2133,1.262E+04
171,2.523619,22.2184,1.262E+04
172,2.392153,22.2183,1.262E+04
173,2.492167,22.2233,1.262E+04
174,2.362058,22.2233,1.262E+04
175,2.474122,22.2283,1.262E+04
176,2.338349,22.2283,1.262E+04
177,2.430732,22.2333,1.262E+04
178,2.319439,22.2332,1.262E+04
179,2.426916,22.2383,1.262E+04
180,2.294361,22.2382,1.262E+04
181,2.389843,22.2433,1.262E+04
182,2.270086,22.2432,1.262E+04
183,2.377162,22.2483,1.262E+04
184,2.257152,22.2482,1.262E+04
185,2.338588,22.2533,1.262E+04
186,2.244682,22.2532,1.262E+04
187,2.330778,22.2583,1.262E+04
188,2.220529,22.2582,1.262E+04
189,2.302301,22.2632,1.262E+04
190,2.182399,22.2632,1.262E+04
191,2.291391,22.2682,1.262E+04
192,2.164480,22.2682,1.262E+04
193,2.254842,22.2732,1.262E+04
194,2.151597,22.2731,1.262E+04
195,2.249932,22.2782,1.262E+04
196,2.126341,22.2781,1.262E+04
197,2.223311,22.2832,1.262E+04
198,2.095520,22.2831,1.262E+04
199,2.213650,22.2882,1.262E+04
200,2.072401,22.2881,1.262E+04
201,2.179518,22.2932,1.262E+04
202,2.061183,22.2931,1.262E+04
203,2.182591,22.2982,1.262E+04
204,2.038107,22.2981,1.262E+04
205,2.154884,22.3031,1.262E+04
206,2.016582,22.3031,1.262E+04
207,2.148538,22.3081,1.262E+04
208,1.995735,22.3081,1.262E+04
209,2.106439,22.3131,1.262E+04
210,1.987706,22.3130,1.262E+04
211,2.105093,22.3181,1.262E+04
212,1.961179,22.3180,1.262E+04
213,2.081548,22.3231,1.262E+04
214,1.931592,22.3230,1.262E+04
215,2.060042,22.3281,1.262E+04
216,1.915067,22.3280,1.262E+04
217,2.024770,22.3331,1.262E+04
218,1.898695,22.3330,1.262E+04
219,2.022441,22.3381,1.262E+04
220,1.874688,22.3380,1.262E+04
221,1.994571,22.3431,1.262E+04
222,1.845878,22.3430,1.262E+04
223,1.983456,22.3480,1.262E+04
224,1.822708,22.3480,1.262E+04
225,1.941295,22.3530,1.262E+04
226,1.813893,22.3529,1.262E+04
227,1.945008,22.3580,1.262E+04
228,1.796563,22.3579,1.262E+04
229,1.914066,22.3630,1.262E+04
230,1.764269,22.3629,1.262E+04
231,1.902132,22.3686,1.262E+04
232,1.739154,22.3685,1.262E+04
233,1.859748,22.3730,1.262E+04
234,1.741202,22.3729,1.262E+04
235,1.861567,22.3780,1.262E+04
236,1.709596,22.3779,1.262E+04
237,1.833444,22.3830,1.262E+04
238,1.683942,22.3829,1.262E+04
239,1.830886,22.3880,1.262E+04
240,1.665761,22.3879,1.262E+04
241,1.785784,22.3929,1.262E+04
242,1.655918,22.3929,1.262E+04
243,1.789104,22.3979,1.262E+04
244,1.636778,22.3978,1.262E+04
245,1.763353,22.4029,1.262E+04
246,1.604765,22.4028,1.262E+04
247,1.753977,22.4079,1.262E+04
248,1.591410,22.4078,1.262E+04
249,1.720809,22.4129,1.262E+04
250,1.585602,22.4128,1.262E+04
251,1.714038,22.4179,1.262E+04
252,1.557007,22.4178,1.262E+04
253,1.690250,22.4229,1.262E+04
254,1.540182,22.4228,1.262E+04
255,1.687749,22.4279,1.262E+04
256,1.518944,22.4278,1.262E+04
257,1.646683,22.4328,1.262E+04
258,1.518018,22.4328,1.262E+04
259,1.646280,22.4378,1.262E+04
260,1.488824,22.4378,1.262E+04
261,1.623203,22.4428,1.262E+04
262,1.466416,22.4427,1.262E+04
263,1.615941,22.4478,1.262E+04
264,1.443156,22.4477,1.262E+04
265,1.576142,22.4528,1.262E+04
266,1.442932,22.4527,1.262E+04
267,1.575806,22.4578,1.262E+04
268,1.414103,22.4577,1.262E+04
269,1.553075,22.4628,1.262E+04
270,1.392874,22.4627,1.262E+04
271,1.554421,22.4678,1.262E+04
272,1.378812,22.4677,1.262E+04
273,1.513430,22.4728,1.262E+04
274,1.377653,22.4727,1.262E+04
275,1.511419,22.4778,1.262E+04
276,1.354936,22.4777,1.262E+04
277,1.494048,22.4828,1.262E+04
278,1.343306,22.4827,1.262E+04
279,1.497985,22.4878,1.262E+04
280,1.320066,22.4877,1.262E+04
281,1.454239,22.4927,1.262E+04
282,1.315118,22.4927,1.262E+04
283,1.454777,22.4977,1.262E+04
284,1.298812,22.4976,1.262E+04
285,1.437213,22.5027,1.262E+04
286,1.280776,22.5026,1.262E+04
287,1.434566,22.5083,1.262E+04
288,1.266837,22.5082,1.262E+04
289,1.391803,22.5127,1.262E+04
290,1.261342,22.5126,1.262E+04
291,1.396965,22.5177,1.262E+04
292,1.242254,22.5176,1.262E+04
293,1.373743,22.5227,1.262E+04
294,1.231008,22.5226,1.262E+04
295,1.378906,22.5277,1.262E+04
296,1.205640,22.5276,1.262E+04
297,1.338237,22.5327,1.262E+04
298,1.204798,22.5326,1.262E+04
299,1.336143,22.5377,1.262E+04
300,1.191377,22.5376,1.262E+04
301,1.323582,22.5427,1.262E+04
302,1.171639,22.5426,1.262E+04
303,1.326729,22.5477,1.262E+04
304,1.157367,22.5476,1.262E+04
305,1.291246,22.5526,1.262E+04
306,1.150694,22.5526,1.262E+04
307,1.287337,22.5576,1.262E+04
308,1.143381,22.5575,1.262E+04
309,1.269460,22.5626,1.262E+04
310,1.127622,22.5625,1.262E+04
311,1.279953,22.5676,1.262E+04
312,1.106028,22.5675,1.262E+04
313,1.241660,22.5726,1.262E+04
314,1.101207,22.5725,1.262E+04
315,1.240234,22.5776,1.262E+04
316,1.093084,22.5775,1.262E+04
317,1.220496,22.5826,1.262E+04
318,1.077087,22.5825,1.262E+04
319,1.225494,22.5876,1.262E+04
320,1.055380,22.5875,1.262E+04
321,1.188398,22.5926,1.262E+04
322,1.051293,22.5925,1.262E+04
323,1.189006,22.5976,1.262E+04
324,1.040458,22.5975,1.262E+04
325,1.173874,22.6026,1.262E+04
326,1.025368,22.6025,1.262E+04
327,1.176666,22.6076,1.262E+04
328,1.006205,22.6075,1.262E+04
329,1.144461,22.6126,1.262E+04
330,1.004442,22.6125,1.262E+04
331,1.137040,22.6175,1.262E+04
332,0.994272,22.6175,1.262E+04
333,1.124227,22.6225,1.262E+04
334,0.980262,22.6225,1.262E+04
335,1.129923,22.6275,1.262E+04
336,0.959069,22.6274,1.262E+04
337,1.091256,22.6325,1.262E+04
338,0.959841,22.6324,1.262E+04
339,1.091405,22.6375,1.262E+04
340,0.944676,22.6374,1.262E+04
341,1.077886,22.6425,1.262E+04
342,0.934655,22.6424,1.262E+04
343,1.085013,22.6475,1.262E+04
344,0.915838,22.6474,1.262E+04
345,1.051172,22.6525,1.262E+04
346,0.910863,22.6524,1.262E+04
347,1.044587,22.6575,1.262E+04
348,0.897924,22.6574,1.262E+04
349,1.025242,22.6625,1.262E+04
350,0.888721,22.6624,1.262E+04
351,1.035427,22.6675,1.262E+04
352,0.871401,22.6674,1.262E+04
353,1.005920,22.6725,1.262E+04
354,0.869778,22.6724,1.262E+04
355,0.999275,22.6775,1.262E+04
356,0.853407,22.6774,1.262E+04
357,0.976848,22.6825,1.262E+04
358,0.841033,22.6824,1.262E+04
359,0.987613,22.6875,1.262E+04
360,0.830891,22.6874,1.262E+04
361,0.956890,22.6924,1.262E+04
362,0.825911,22.6924,1.262E+04
363,0.955081,22.6974,1.262E+04
364,0.812130,22.6974,1.262E+04
365,0.937269,22.7024,1.262E+04
366,0.801454,22.7023,1.262E+04
367,0.944550,22.7074,1.262E+04
368,0.783685,22.7073,1.262E+04
369,0.912663,22.7124,1.262E+04
370,0.783114,22.7123,1.262E+04
371,0.903573,22.7174,1.262E+04
372,0.767155,22.7173,1.262E+04
373,0.887894,22.7224,1.262E+04
374,0.754300,22.7223,1.262E+04
375,0.894706,22.7274,1.262E+04
376,0.738055,22.7273,1.262E+04
377,0.864031,22.7324,1.262E+04
378,0.728571,22.7323,1.262E+04
379,0.860594,22.7374,1.262E+04
380,0.722090,22.7373,1.262E+04
381,0.839425,22.7424,1.262E+04
382,0.708413,22.7423,1.262E+04
383,0.847117,22.7474,1.262E+04
384,0.694024,22.7473,1.262E+04
385,0.821211,22.7524,1.262E+04
386,0.689731,22.7523,1.262E+04
387,0.816222,22.7574,1.262E+04
388,0.673477,22.7573,1.262E+04
389,0.791340,22.7623,1.262E+04
390,0.664162,22.7623,1.262E+04
391,0.802460,22.7674,1.262E+04
392,0.648936,22.7673,1.262E+04
393,0.775371,22.7723,1.262E+04
394,0.646210,22.7723,1.262E+04
395,0.769867,22.7773,1.262E+04
396,0.634772,22.7773,1.262E+04
397,0.746032,22.7823,1.262E+04
398,0.616362,22.7822,1.262E+04
399,0.755525,22.7873,1.262E+04
400,0.601104,22.7872,1.262E+04
401,0.729119,22.7923,1.262E+04
402,0.593327,22.7922,1.262E+04
403,0.717227,22.7973,1.262E+04
404,0.576703,22.7972,1.262E+04
405,0.694912,22.8023,1.262E+04
406,0.560753,22.8022,1.262E+04
407,0.706855,22.8073,1.262E+04
408,0.549596,22.8072,1.262E+04
409,0.679256,22.8123,1.262E+04
410,0.539467,22.8122,1.262E+04
411,0.667183,22.8173,1.262E+04
412,0.526809,22.8172,1.262E+04
413,0.643554,22.8216,1.262E+04
414,0.517456,22.8216,1.262E+04
415,0.655156,22.8273,1.262E+04
416,0.483301,22.8272,1.262E+04
417,0.624798,22.8316,1.262E+04
418,0.468744,22.8315,1.262E+04
419,0.617952,22.8366,1.262E+04
420,0.455212,22.8365,1.262E+04
421,0.592640,22.8416,1.262E+04
422,0.442390,22.8415,1.262E+04
423,0.600739,22.8472,1.262E+04
424,0.436091,22.8471,1.262E+04
425,0.568094,22.8522,1.262E+04
426,0.427510,22.8521,1.262E+04
427,0.556175,22.8572,1.262E+04
428,0.409965,22.8571,1.262E+04
429,0.532775,22.8616,1.262E+04
430,0.393313,22.8615,1.262E+04
431,0.542179,22.8672,1.262E+04
432,0.383353,22.8671,1.262E+04
433,0.509301,22.8716,1.262E+04
434,0.382609,22.8715,1.262E+04
435,0.490587,22.8765,1.262E+04
436,0.364349,22.8765,1.262E+04
437,0.469923,22.8815,1.262E+04
438,0.347851,22.8815,1.262E+04
439,0.482633,22.8872,1.262E+04
440,0.341824,22.8871,1.262E+04
441,0.454318,22.8915,1.262E+04
442,0.335366,22.8915,1.262E+04
443,0.445457,22.8971,1.262E+04
444,0.315343,22.8971,1.262E+04
445,0.428543,22.9015,1.262E+04
446,0.301291,22.9014,1.262E+04
447,0.428749,22.9071,1.262E+04
448,0.298878,22.9071,1.262E+04
449,0.410704,22.9115,1.262E+04
450,0.291401,22.9114,1.262E+04
451,0.400295,22.9165,1.262E+04
452,0.268258,22.9164,1.262E+04
453,0.387772,22.9215,1.262E+04
454,0.255824,22.9214,1.262E+04
455,0.390732,22.9265,1.262E+04
456,0.249951,22.9264,1.262E+04
457,0.373201,22.9315,1.262E+04
458,0.244854,22.9314,1.262E+04
459,0.360884,22.9365,1.262E+04
460,0.224382,22.9364,1.262E+04
461,0.344508,22.9421,1.262E+04
462,0.212102,22.9420,1.262E+04
463,0.344751,22.9471,1.262E+04
464,0.199752,22.9470,1.262E+04
465,0.327627,22.9514,1.262E+04
466,0.200814,22.9514,1.262E+04
467,0.311251,22.9564,1.262E+04
468,0.181927,22.9564,1.262E+04
469,0.292336,22.9614,1.262E+04
470,0.164433,22.9613,1.262E+04
471,0.298761,22.9664,1.262E+04
472,0.157620,22.9663,1.262E+04
473,0.279177,22.9714,1.262E+04
474,0.150194,22.9713,1.262E+04
475,0.269923,22.9764,1.262E+04
476,0.134847,22.9763,1.262E+04
477,0.244938,22.9814,1.262E+04
478,0.119331,22.9813,1.262E+04
479,0.252560,22.9870,1.262E+04
480,0.111115,22.9869,1.262E+04
481,0.232051,22.9914,1.262E+04
482,0.109109,22.9913,1.262E+04
483,0.223554,22.9964,1.262E+04
484,0.090437,22.9963,1.262E+04
485,0.201557,23.0014,1.262E+04
486,0.071167,23.0013,1.262E+04
487,0.209385,23.0064,1.262E+04
488,0.063442,23.0063,1.262E+04
489,0.189511,23.0114,1.262E+04
490,0.061945,23.0113,1.262E+04
491,0.174753,23.0164,1.262E+04
492,0.045092,23.0163,1.262E+04
493,0.157288,23.0213,1.262E+04
494,0.029273,23.0213,1.262E+04
495,0.162520,23.0263,1.262E+04
496,0.020033,23.0263,1.262E+04
497,0.142549,23.0313,1.262E+04
498,0.021141,23.0313,1.262E+04
499,0.134010,23.0363,1.262E+04
500,0.007370,23.0363,1.262E+04
501,0.111513,23.0413,1.262E+04
502,-0.005074,23.0412,1.262E+04
503,0.124849,23.0463,1.262E+04
504,-0.017176,23.0462,1.262E+04
505,0.103404,23.0513,1.262E+04
506,-0.016161,23.0512,1.262E+04
507,0.097190,23.0563,1.262E+04
508,-0.029184,23.0562,1.262E+04
509,0.076282,23.0613,1.262E+04
510,-0.046645,23.0612,1.262E+04
511,0.081225,23.0663,1.262E+04
512,-0.057942,23.0662,1.262E+04
513,0.060687,23.0713,1.262E+04
514,-0.057933,23.0712,1.262E+04
515,0.055782,23.0763,1.262E+04
516,-0.067720,23.0762,1.262E+04
517,0.034351,23.0813,1.262E+04
518,-0.085022,23.0812,1.262E+04
519,0.036671,23.0863,1.262E+04
520,-0.100622,23.0862,1.262E+04
521,0.021618,23.0913,1.262E+04
522,-0.099439,23.0912,1.262E+04
523,0.007267,23.0963,1.262E+04
524,-0.120538,23.0962,1.262E+04
525,-0.007402,23.1012,1.262E+04
526,-0.133154,23.1012,1.262E+04
527,-0.011648,23.1062,1.262E+04
528,-0.146000,23.1062,1.262E+04
529,-0.023746,23.1112,1.262E+04
530,-0.145200,23.1112,1.262E+04
531,-0.034954,23.1162,1.262E+04
532,-0.157793,23.1162,1.262E+04
533,-0.052691,23.1212,1.262E+04
534,-0.175488,23.1211,1.262E+04
535,-0.053009,23.1262,1.262E+04
536,-0.185284,23.1261,1.262E+04
537,-0.066607,23.1312,1.262E+04
538,-0.184181,23.1311,1.262E+04
539,-0.077798,23.1362,1.262E+04
540,-0.197236,23.1361,1.262E+04
541,-0.096689,23.1412,1.262E+04
542,-0.216708,23.1411,1.262E+04
543,-0.097171,23.1462,1.262E+04
544,-0.228300,23.1461,1.262E+04
545,-0.108520,23.1512,1.262E+04
546,-0.223213,23.1511,1.262E+04
547,-0.121108,23.1562,1.262E+04
548,-0.236180,23.1561,1.262E+04
549,-0.140519,23.1612,1.262E+04
550,-0.252981,23.1611,1.262E+04
551,-0.140108,23.1662,1.262E+04
552,-0.269105,23.1661,1.262E+04
553,-0.148604,23.1712,1.262E+04
554,-0.260065,23.1711,1.262E+04
555,-0.156455,23.1762,1.262E+04
556,-0.281665,23.1761,1.262E+04
557,-0.179691,23.1811,1.262E+04
558,-0.295029,23.1811,1.262E+04
559,-0.177372,23.1861,1.262E+04
560,-0.306963,23.1861,1.262E+04
561,-0.189142,23.1911,1.262E+04
562,-0.296325,23.1911,1.262E+04
563,-0.197741,23.1961,1.262E+04
564,-0.316689,23.1961,1.262E+04
565,-0.217540,23.2011,1.262E+04
566,-0.330811,23.2011,1.262E+04
567,-0.218719,23.2061,1.262E+04
568,-0.336156,23.2061,1.262E+04
569,-0.224003,23.2111,1.262E+04
570,-0.332373,23.2111,1.262E+04
571,-0.235314,23.2161,1.262E+04
572,-0.341833,23.2160,1.262E+04
573,-0.251971,23.2211,1.262E+04
574,-0.358845,23.2210,1.262E+04
575,-0.249811,23.2261,1.262E+04
576,-0.365813,23.2260,1.262E+04
577,-0.258092,23.2311,1.262E+04
578,-0.355282,23.2310,1.262E+04
579,-0.272125,23.2361,1.262E+04
580,-0.367861,23.2360,1.262E+04
581,-0.287907,23.2411,1.262E+04
582,-0.375497,23.2410,1.262E+04
583,-0.280585,23.2461,1.262E+04
584,-0.383545,23.2460,1.262E+04
585,-0.287795,23.2511,1.262E+04
586,-0.380772,23.2510,1.262E+04
587,-0.299210,23.2561,1.262E+04
588,-0.400519,23.2560,1.262E+04
589,-0.316376,23.2611,1.262E+04
590,-0.405869,23.2610,1.262E+04
591,-0.313841,23.2661,1.262E+04
592,-0.416792,23.2660,1.262E+04
593,-0.324966,23.2711,1.262E+04
594,-0.410479,23.2710,1.262E+04
595,-0.334216,23.2761,1.262E+04
596,-0.413809,23.2760,1.262E+04
597,-0.337297,23.2811,1.262E+04
598,-0.418209,23.2810,1.262E+04
599,-0.337905,23.2861,1.262E+04
600,-0.429095,23.2860,1.262E+04
601,-0.351821,23.2910,1.262E+04
602,-0.444354,23.2910,1.262E+04
603,-0.367618,23.2960,1.262E+04
604,-0.450853,23.2960,1.262E+04
605,-0.370643,23.3010,1.262E+04
606,-0.449329,23.3010,1.262E+04
607,-0.372411,23.3060,1.262E+04
608,-0.461908,23.3060,1.262E+04
609,-0.382623,23.3110,1.262E+04
610,-0.455399,23.3110,1.262E+04
611,-0.389619,23.3160,1.262E+04
612,-0.460921,23.3160,1.262E+04
613,-0.395539,23.3210,1.262E+04
614,-0.469408,23.3210,1.262E+04
615,-0.395212,23.3260,1.262E+04
616,-0.472761,23.3260,1.262E+04
617,-0.402104,23.3310,1.262E+04
618,-0.474192,23.3310,1.262E+04
619,-0.411438,23.3360,1.262E+04
620,-0.498003,23.3360,1.262E+04
621,-0.419135,23.3410,1.262E+04
622,-0.496035,23.3410,1.262E+04
623,-0.417961,23.3460,1.262E+04
