Point No.,Normal Force [N],Gap [mm],Time [s]
1,3.953210,11.4686,432.5560
2,3.953074,11.4686,432.5610
3,3.952860,11.4686,432.5660
4,3.952682,11.4686,432.5710
5,3.952509,11.4686,432.5760
6,3.952037,11.4692,432.5810
7,3.952004,11.4692,432.5860
8,3.951910,11.4692,432.5910
9,3.950966,11.4692,432.5950
10,3.949718,11.4692,432.6000
11,3.944546,11.4711,432.6050
12,3.937835,11.4711,432.6100
13,3.927113,11.4748,432.6150
14,3.918569,11.4748,432.6200
15,3.895590,11.4798,432.6250
16,3.878700,11.4842,432.6310
17,3.859813,11.4842,432.6360
18,3.837171,11.4898,432.6410
19,3.814656,11.4898,432.6460
20,3.792832,11.4947,432.6510
21,3.772284,11.4947,432.6560
22,3.749213,11.4997,432.6610
23,3.728413,11.4997,432.6660
24,3.707641,11.5041,432.6710
25,3.686117,11.5040,432.6760
26,3.664765,11.5097,432.6810
27,3.642801,11.5096,432.6860
28,3.623900,11.5146,432.6910
29,3.604836,11.5146,432.6960
30,3.592485,11.5146,432.7000
31,3.565116,11.5196,432.7050
32,3.551808,11.5196,432.7100
33,3.524915,11.5240,432.7150
34,3.512289,11.5239,432.7200
35,3.486117,11.5296,432.7250
36,3.474843,11.5296,432.7300
37,3.451681,11.5345,432.7350
38,3.440042,11.5345,432.7400
39,3.413028,11.5395,432.7450
40,3.401048,11.5395,432.7500
41,3.376157,11.5439,432.7550
42,3.363573,11.5439,432.7600
43,3.338223,11.5495,432.7650
44,3.326711,11.5495,432.7700
45,3.303007,11.5544,432.7750
46,3.291237,11.5544,432.7800
47,3.266687,11.5594,432.7850
48,3.255450,11.5594,432.7900
49,3.231775,11.5638,432.7950
50,3.220127,11.5638,432.8000
51,3.196390,11.5694,432.8050
52,3.185490,11.5694,432.8100
53,3.163536,11.5744,432.8150
54,3.151447,11.5744,432.8200
55,3.127791,11.5793,432.8250
56,3.116877,11.5793,432.8300
57,3.095315,11.5837,432.8350
58,3.083699,11.5837,432.8400
59,3.060089,11.5893,432.8450
60,3.048464,11.5893,432.8500
61,3.026870,11.5943,432.8550
62,3.015955,11.5943,432.8600
63,2.994108,11.5993,432.8650
64,2.983821,11.5993,432.8700
65,2.963073,11.6042,432.8750
66,2.951139,11.6042,432.8800
67,2.929016,11.6092,432.8850
68,2.918289,11.6092,432.8900
69,2.898480,11.6142,432.8950
70,2.887057,11.6142,432.9000
71,2.865944,11.6192,432.9050
72,2.855418,11.6192,432.9100
73,2.835469,11.6235,432.9150
74,2.823035,11.6235,432.9200
75,2.799356,11.6292,432.9250
76,2.787529,11.6291,432.9300
77,2.768703,11.6341,432.9350
78,2.758494,11.6341,432.9400
79,2.738682,11.6391,432.9450
80,2.727491,11.6391,432.9500
81,2.707029,11.6441,432.9550
82,2.694164,11.6441,432.9600
83,2.672719,11.6491,432.9650
84,2.661992,11.6491,432.9700
85,2.644920,11.6541,432.9750
86,2.634300,11.6541,432.9800
87,2.614417,11.6590,432.9850
88,2.603143,11.6590,432.9900
89,2.583905,11.6634,432.9950
90,2.571275,11.6634,433.0000
91,2.551176,11.6690,433.0050
92,2.540379,11.6690,433.0100
93,2.522871,11.6740,433.0150
94,2.511083,11.6740,433.0200
95,2.490807,11.6790,433.0250
96,2.479074,11.6790,433.0300
97,2.460921,11.6833,433.0350
98,2.448188,11.6833,433.0400
99,2.428553,11.6889,433.0450
100,2.416961,11.6889,433.0500
101,2.400262,11.6939,433.0550
102,2.389198,11.6939,433.0600
103,2.370143,11.6989,433.0650
104,2.357480,11.6989,433.0700
105,2.340117,11.7033,433.0750
106,2.328277,11.7033,433.0800
107,2.311606,11.7089,433.0850
108,2.301988,11.7089,433.0900
109,2.287608,11.7138,433.0950
110,2.276343,11.7138,433.1000
111,2.259448,11.7188,433.1050
112,2.249226,11.7188,433.1100
113,2.234473,11.7232,433.1150
114,2.224055,11.7232,433.1200
115,2.207173,11.7288,433.1250
116,2.195740,11.7288,433.1300
117,2.180122,11.7338,433.1350
118,2.169432,11.7338,433.1400
119,2.152658,11.7388,433.1450
120,2.141805,11.7388,433.1500
121,2.126187,11.7438,433.1550
122,2.114824,11.7437,433.1600
123,2.098069,11.7487,433.1650
124,2.087612,11.7487,433.1700
125,2.073285,11.7537,433.1750
126,2.061922,11.7537,433.1800
127,2.044199,11.7587,433.1850
128,2.032317,11.7587,433.1900
129,2.016105,11.7631,433.1950
130,2.003474,11.7631,433.2000
131,1.985607,11.7687,433.2050
132,1.973692,11.7687,433.2100
133,1.957124,11.7730,433.2150
134,1.944545,11.7730,433.2200
135,1.926444,11.7780,433.2250
136,1.913870,11.7780,433.2300
137,1.898209,11.7830,433.2350
138,1.885363,11.7830,433.2400
139,1.867547,11.7886,433.2450
140,1.855707,11.7886,433.2500
141,1.841122,11.7936,433.2550
142,1.828539,11.7936,433.2600
143,1.810274,11.7986,433.2650
144,1.797246,11.7986,433.2700
145,1.781006,11.8029,433.2750
146,1.767795,11.8029,433.2800
147,1.749932,11.8085,433.2850
148,1.737508,11.8085,433.2900
149,1.722240,11.8129,433.2950
150,1.710180,11.8129,433.3000
151,1.693510,11.8179,433.3050
152,1.681066,11.8179,433.3100
153,1.665616,11.8229,433.3150
154,1.652485,11.8228,433.3200
155,1.636315,11.8285,433.3250
156,1.624359,11.8285,433.3300
157,1.609268,11.8328,433.3350
158,1.596993,11.8328,433.3400
159,1.579565,11.8384,433.3450
160,1.566547,11.8384,433.3500
161,1.551695,11.8428,433.3550
162,1.538335,11.8428,433.3600
163,1.521417,11.8484,433.3650
164,1.508062,11.8484,433.3700
165,1.493640,11.8528,433.3750
166,1.481454,11.8527,433.3800
167,1.465265,11.8577,433.3850
168,1.452523,11.8577,433.3900
169,1.436797,11.8627,433.3950
170,1.422128,11.8627,433.4000
171,1.404316,11.8677,433.4050
172,1.390526,11.8677,433.4100
173,1.375717,11.8727,433.4150
174,1.362778,11.8727,433.4200
175,1.346855,11.8777,433.4250
176,1.334384,11.8777,433.4300
177,1.320009,11.8827,433.4350
178,1.306771,11.8826,433.4400
179,1.290662,11.8883,433.4450
180,1.278116,11.8883,433.4500
181,1.265967,11.8926,433.4550
182,1.253767,11.8926,433.4600
183,1.238041,11.8976,433.4650
184,1.224648,11.8976,433.4700
185,1.209806,11.9026,433.4750
186,1.195539,11.9026,433.4800
187,1.179495,11.9076,433.4850
188,1.167047,11.9076,433.4900
189,1.155043,11.9126,433.4950
190,1.142810,11.9126,433.5000
191,1.128104,11.9175,433.5050
192,1.114622,11.9175,433.5100
193,1.100701,11.9225,433.5150
194,1.086794,11.9225,433.5200
195,1.071648,11.9281,433.5250
196,1.060028,11.9281,433.5300
197,1.048095,11.9325,433.5350
198,1.035361,11.9325,433.5400
199,1.019350,11.9375,433.5450
200,1.005191,11.9375,433.5500
201,0.991489,11.9425,433.5550
202,0.977859,11.9425,433.5600
203,0.964358,11.9474,433.5650
204,0.951966,11.9474,433.5700
205,0.940108,11.9524,433.5750
206,0.927440,11.9524,433.5800
207,0.912191,11.9574,433.5850
208,0.898387,11.9574,433.5900
209,0.885373,11.9624,433.5950
210,0.871751,11.9624,433.6000
211,0.857718,11.9674,433.6050
212,0.844831,11.9674,433.6100
213,0.832200,11.9724,433.6150
214,0.818550,11.9724,433.6200
215,0.802876,11.9773,433.6250
216,0.789694,11.9773,433.6300
217,0.778167,11.9823,433.6350
218,0.764587,11.9823,433.6400
219,0.750147,11.9873,433.6450
220,0.736778,11.9873,433.6500
221,0.724994,11.9923,433.6550
222,0.711513,11.9923,433.6600
223,0.698176,11.9973,433.6650
224,0.685901,11.9973,433.6700
225,0.675590,12.0016,433.6750
226,0.661571,12.0016,433.6800
227,0.647510,12.0073,433.6850
228,0.633902,12.0072,433.6900
229,0.622502,12.0122,433.6950
230,0.609446,12.0122,433.7000
231,0.596081,12.0172,433.7050
232,0.583339,12.0172,433.7100
233,0.572794,12.0222,433.7150
234,0.558420,12.0222,433.7200
235,0.542693,12.0272,433.7250
236,0.527005,12.0272,433.7300
237,0.515689,12.0322,433.7350
238,0.502244,12.0322,433.7400
239,0.489240,12.0372,433.7450
240,0.476044,12.0372,433.7500
241,0.464615,12.0415,433.7550
242,0.450348,12.0415,433.7600
243,0.435763,12.0471,433.7650
244,0.421571,12.0471,433.7700
245,0.410919,12.0521,433.7750
246,0.398943,12.0521,433.7800
247,0.386757,12.0571,433.7850
248,0.373851,12.0571,433.7900
249,0.361337,12.0615,433.7950
250,0.346692,12.0615,433.8000
251,0.334669,12.0671,433.8050
252,0.324110,12.0671,433.8100
253,0.317185,12.0721,433.8150
254,0.307720,12.0721,433.8200
255,0.299696,12.0771,433.8250
256,0.288693,12.0770,433.8300
257,0.279425,12.0814,433.8350
258,0.267206,12.0814,433.8400
259,0.257503,12.0870,433.8450
260,0.246444,12.0870,433.8500
261,0.239574,12.0920,433.8550
262,0.228132,12.0920,433.8600
263,0.217171,12.0970,433.8650
264,0.204826,12.0970,433.8700
265,0.195352,12.1014,433.8750
266,0.183624,12.1014,433.8800
267,0.174323,12.1070,433.8850
268,0.162338,12.1070,433.8900
269,0.154019,12.1120,433.8950
270,0.142170,12.1120,433.9000
271,0.131882,12.1170,433.9050
272,0.119514,12.1169,433.9100
273,0.110587,12.1213,433.9150
274,0.098214,12.1213,433.9200
275,0.088875,12.1269,433.9250
276,0.077442,12.1269,433.9300
277,0.070484,12.1319,433.9350
278,0.059177,12.1319,433.9400
279,0.050255,12.1369,433.9450
280,0.038995,12.1369,433.9500
281,0.031139,12.1413,433.9550
282,0.019177,12.1413,433.9600
283,0.009142,12.1469,433.9650
284,-0.003236,12.1469,433.9700
285,-0.010409,12.1519,433.9750
286,-0.021903,12.1519,433.9800
287,-0.032219,12.1562,433.9850
288,-0.043993,12.1562,433.9900
289,-0.050606,12.1618,433.9950
290,-0.062235,12.1618,434.0000
291,-0.072668,12.1668,434.0050
292,-0.086051,12.1668,434.0100
293,-0.092546,12.1718,434.0150
294,-0.103273,12.1718,434.0200
295,-0.111242,12.1762,434.0250
296,-0.122876,12.1762,434.0300
297,-0.130573,12.1812,434.0350
298,-0.142955,12.1812,434.0400
299,-0.152266,12.1868,434.0450
300,-0.165055,12.1868,434.0500
301,-0.171022,12.1911,434.0550
302,-0.181941,12.1911,434.0600
303,-0.190395,12.1961,434.0650
304,-0.202656,12.1961,434.0700
305,-0.210115,12.2011,434.0750
306,-0.222759,12.2011,434.0800
307,-0.231326,12.2067,434.0850
308,-0.243217,12.2067,434.0900
309,-0.247884,12.2117,434.0950
310,-0.258999,12.2117,434.1000
311,-0.268230,12.2167,434.1050
312,-0.280931,12.2167,434.1100
313,-0.287370,12.2211,434.1150
314,-0.299257,12.2211,434.1200
315,-0.306631,12.2267,434.1250
316,-0.318438,12.2267,434.1300
317,-0.324045,12.2311,434.1350
318,-0.336381,12.2311,434.1400
319,-0.344863,12.2360,434.1450
320,-0.356675,12.2360,434.1500
321,-0.361838,12.2410,434.1550
322,-0.373346,12.2410,434.1600
323,-0.380210,12.2467,434.1650
324,-0.392411,12.2466,434.1700
325,-0.398125,12.2510,434.1750
326,-0.409624,12.2510,434.1800
327,-0.417536,12.2560,434.1850
328,-0.429254,12.2560,434.1900
329,-0.434290,12.2616,434.1950
330,-0.445747,12.2616,434.2000
331,-0.452869,12.2666,434.2050
332,-0.465270,12.2666,434.2100
333,-0.470624,12.2716,434.2150
334,-0.482221,12.2716,434.2200
335,-0.489455,12.2760,434.2250
336,-0.500360,12.2760,434.2300
337,-0.505209,12.2810,434.2350
338,-0.517120,12.2809,434.2400
339,-0.523718,12.2866,434.2450
340,-0.535707,12.2866,434.2500
341,-0.540028,12.2909,434.2550
342,-0.551438,12.2909,434.2600
343,-0.558125,12.2959,434.2650
344,-0.569352,12.2959,434.2700
345,-0.573042,12.3009,434.2750
346,-0.584316,12.3009,434.2800
347,-0.591148,12.3065,434.2850
348,-0.603442,12.3065,434.2900
349,-0.607402,12.3115,434.2950
350,-0.618284,12.3115,434.3000
351,-0.624536,12.3165,434.3050
352,-0.636357,12.3165,434.3100
353,-0.641295,12.3209,434.3150
354,-0.653552,12.3209,434.3200
355,-0.660042,12.3265,434.3250
356,-0.671831,12.3265,434.3300
357,-0.674534,12.3309,434.3350
358,-0.685649,12.3308,434.3400
359,-0.691719,12.3358,434.3450
360,-0.703096,12.3358,434.3500
361,-0.706940,12.3408,434.3550
362,-0.718714,12.3408,434.3600
363,-0.724536,12.3464,434.3650
364,-0.736348,12.3464,434.3700
365,-0.739565,12.3514,434.3750
366,-0.750554,12.3514,434.3800
367,-0.755988,12.3564,434.3850
368,-0.767421,12.3564,434.3900
369,-0.771873,12.3608,434.3950
370,-0.783788,12.3608,434.4000
371,-0.790302,12.3664,434.4050
372,-0.802240,12.3664,434.4100
373,-0.802993,12.3714,434.4150
374,-0.813135,12.3714,434.4200
375,-0.818911,12.3758,434.4250
376,-0.830952,12.3758,434.4300
377,-0.836255,12.3808,434.4350
378,-0.849497,12.3808,434.4400
379,-0.855469,12.3864,434.4450
380,-0.865794,12.3864,434.4500
381,-0.866430,12.3914,434.4550
382,-0.876245,12.3914,434.4600
383,-0.882081,12.3957,434.4650
384,-0.894403,12.3957,434.4700
385,-0.898059,12.4013,434.4750
386,-0.908441,12.4013,434.4800
387,-0.910227,12.4063,434.4850
388,-0.917896,12.4063,434.4900
389,-0.917723,12.4113,434.4950
390,-0.926308,12.4113,434.5000
391,-0.931246,12.4157,434.5050
392,-0.941945,12.4157,434.5100
393,-0.944536,12.4207,434.5150
394,-0.954206,12.4207,434.5200
395,-0.957769,12.4263,434.5250
396,-0.967865,12.4263,434.5300
397,-0.969628,12.4313,434.5350
398,-0.978242,12.4313,434.5400
399,-0.984452,12.4357,434.5450
400,-0.994552,12.4357,434.5500
401,-0.997620,12.4407,434.5550
402,-1.007164,12.4407,434.5600
403,-1.011288,12.4463,434.5650
404,-1.025317,12.4463,434.5700
405,-1.033491,12.4513,434.5750
406,-1.046224,12.4513,434.5800
407,-1.051298,12.4563,434.5850
408,-1.060879,12.4562,434.5900
409,-1.060851,12.4606,434.5950
410,-1.069755,12.4606,434.6000
411,-1.070699,12.4656,434.6050
412,-1.082549,12.4656,434.6100
413,-1.086977,12.4712,434.6150
414,-1.097414,12.4712,434.6200
415,-1.100477,12.4756,434.6250
416,-1.111471,12.4756,434.6310
417,-1.111097,12.4806,434.6360
418,-1.120384,12.4806,434.6410
419,-1.120131,12.4856,434.6460
420,-1.129404,12.4856,434.6510
421,-1.127571,12.4906,434.6560
422,-1.140702,12.4906,434.6610
423,-1.145280,12.4962,434.6660
424,-1.158223,12.4962,434.6710
425,-1.159331,12.5006,434.6760
426,-1.172972,12.5006,434.6810
427,-1.178027,12.5062,434.6860
428,-1.189437,12.5062,434.6910
429,-1.186715,12.5105,434.6960
430,-1.196072,12.5105,434.7010
431,-1.198055,12.5155,434.7060
432,-1.210091,12.5155,434.7110
433,-1.212425,12.5205,434.7160
434,-1.224120,12.5205,434.7210
435,-1.225710,12.5262,434.7260
436,-1.235997,12.5261,434.7310
437,-1.235128,12.5305,434.7360
438,-1.245079,12.5305,434.7410
439,-1.246135,12.5355,434.7460
440,-1.256465,12.5355,434.7510
441,-1.256923,12.5411,434.7560
442,-1.268951,12.5411,434.7610
443,-1.268951,12.5461,434.7660
444,-1.278817,12.5461,434.7710
445,-1.276778,12.5511,434.7760
446,-1.285018,12.5511,434.7810
447,-1.283451,12.5555,434.7860
448,-1.290255,12.5555,434.7910
449,-1.288305,12.5605,434.7960
450,-1.298677,12.5605,434.8010
451,-1.298275,12.5655,434.8060
452,-1.309151,12.5655,434.8110
453,-1.307992,12.5705,434.8160
454,-1.319378,12.5705,434.8210
455,-1.320931,12.5755,434.8260
456,-1.332205,12.5755,434.8310
457,-1.330826,12.5805,434.8360
458,-1.341987,12.5805,434.8410
459,-1.342474,12.5861,434.8460
460,-1.355333,12.5861,434.8510
461,-1.354562,12.5911,434.8560
462,-1.366173,12.5911,434.8610
463,-1.365887,12.5961,434.8660
464,-1.375520,12.5961,434.8710
465,-1.374594,12.6004,434.8760
466,-1.387187,12.6004,434.8810
467,-1.388529,12.6054,434.8860
468,-1.401356,12.6054,434.8910
469,-1.399663,12.6104,434.8960
470,-1.410592,12.6104,434.9010
471,-1.411396,12.6154,434.9060
472,-1.421408,12.6154,434.9110
473,-1.419098,12.6204,434.9160
474,-1.430423,12.6204,434.9210
475,-1.430685,12.6254,434.9260
476,-1.443320,12.6254,434.9310
477,-1.442044,12.6310,434.9360
478,-1.452873,12.6310,434.9410
479,-1.451779,12.6360,434.9460
480,-1.457779,12.6360,434.9510
481,-1.453178,12.6404,434.9560
482,-1.460533,12.6404,434.9610
483,-1.457924,12.6454,434.9660
484,-1.464022,12.6454,434.9710
485,-1.456484,12.6504,434.9760
486,-1.457583,12.6504,434.9810
487,-1.452476,12.6554,434.9860
488,-1.458780,12.6554,434.9910
489,-1.455642,12.6604,434.9960
490,-1.466472,12.6604,435.0010
491,-1.465471,12.6654,435.0060
492,-1.474071,12.6654,435.0110
493,-1.469123,12.6704,435.0160
494,-1.476970,12.6704,435.0210
495,-1.476273,12.6754,435.0260
496,-1.487393,12.6754,435.0310
497,-1.485972,12.6804,435.0360
498,-1.497821,12.6804,435.0410
499,-1.497639,12.6860,435.0460
500,-1.508805,12.6860,435.0510
501,-1.505490,12.6904,435.0560
502,-1.515913,12.6904,435.0610
503,-1.516512,12.6954,435.0660
504,-1.528838,12.6953,435.0710
505,-1.527328,12.7003,435.0760
506,-1.537788,12.7003,435.0810
507,-1.536797,12.7053,435.0860
508,-1.547094,12.7053,435.0910
509,-1.544008,12.7103,435.0960
510,-1.555053,12.7103,435.1010
511,-1.554861,12.7153,435.1060
512,-1.566145,12.7153,435.1110
513,-1.564031,12.7203,435.1160
514,-1.574291,12.7203,435.1210
515,-1.572888,12.7259,435.1260
516,-1.583994,12.7259,435.1310
517,-1.581295,12.7309,435.1360
518,-1.592046,12.7309,435.1410
519,-1.591985,12.7353,435.1460
520,-1.601164,12.7353,435.1510
521,-1.596334,12.7403,435.1560
522,-1.603119,12.7403,435.1610
523,-1.600510,12.7453,435.1660
524,-1.609890,12.7453,435.1710
525,-1.604223,12.7503,435.1760
526,-1.610241,12.7503,435.1810
527,-1.607842,12.7553,435.1860
528,-1.617410,12.7553,435.1910
529,-1.614665,12.7603,435.1960
530,-1.625111,12.7603,435.2010
531,-1.624438,12.7653,435.2060
532,-1.636844,12.7653,435.2110
533,-1.634155,12.7709,435.2160
534,-1.644625,12.7709,435.2210
535,-1.644012,12.7753,435.2260
536,-1.654725,12.7753,435.2310
537,-1.652177,12.7803,435.2360
538,-1.664064,12.7803,435.2410
539,-1.664718,12.7853,435.2460
540,-1.678214,12.7853,435.2510
541,-1.675787,12.7903,435.2560
542,-1.686163,12.7903,435.2610
543,-1.684719,12.7953,435.2660
544,-1.695076,12.7952,435.2710
545,-1.692869,12.8003,435.2760
546,-1.704363,12.8002,435.2810
547,-1.703812,12.8052,435.2860
548,-1.715492,12.8052,435.2910
549,-1.712308,12.8102,435.2960
550,-1.722563,12.8102,435.3010
551,-1.721861,12.8159,435.3060
552,-1.733467,12.8159,435.3110
553,-1.731354,12.8202,435.3160
554,-1.742483,12.8202,435.3210
555,-1.741473,12.8252,435.3260
556,-1.752607,12.8252,435.3310
557,-1.749642,12.8302,435.3360
558,-1.759747,12.8302,435.3410
559,-1.759130,12.8352,435.3460
560,-1.771405,12.8352,435.3510
561,-1.769100,12.8402,435.3560
562,-1.779855,12.8402,435.3610
563,-1.778429,12.8452,435.3660
564,-1.790218,12.8452,435.3710
565,-1.787875,12.8502,435.3760
566,-1.799261,12.8502,435.3810
567,-1.799084,12.8552,435.3860
568,-1.810391,12.8552,435.3910
569,-1.808492,12.8602,435.3960
570,-1.819056,12.8602,435.4010
571,-1.817479,12.8652,435.4060
572,-1.828127,12.8652,435.4110
573,-1.824704,12.8702,435.4160
574,-1.834342,12.8702,435.4210
575,-1.832668,12.8752,435.4260
576,-1.842782,12.8752,435.4310
577,-1.840042,12.8802,435.4360
578,-1.850320,12.8802,435.4410
579,-1.848553,12.8852,435.4460
580,-1.859697,12.8852,435.4510
581,-1.856109,12.8902,435.4560
582,-1.865116,12.8902,435.4610
583,-1.862549,12.8952,435.4660
584,-1.867576,12.8951,435.4710
585,-1.860767,12.8995,435.4760
586,-1.866533,12.8995,435.4810
587,-1.863886,12.9052,435.4860
588,-1.874828,12.9051,435.4910
589,-1.871592,12.9101,435.4960
590,-1.881118,12.9101,435.5010
591,-1.879939,12.9151,435.5060
592,-1.891162,12.9151,435.5110
593,-1.888838,12.9201,435.5160
594,-1.899065,12.9201,435.5210
595,-1.898270,12.9251,435.5260
596,-1.909647,12.9251,435.5310
597,-1.906210,12.9301,435.5360
598,-1.914613,12.9301,435.5410
599,-1.912948,12.9345,435.5460
600,-1.923998,12.9345,435.5510
601,-1.922077,12.9395,435.5560
602,-1.933182,12.9395,435.5610
603,-1.932490,12.9451,435.5660
604,-1.943863,12.9451,435.5710
605,-1.940673,12.9501,435.5760
606,-1.950133,12.9501,435.5810
607,-1.948945,12.9545,435.5860
608,-1.959579,12.9545,435.5910
609,-1.957190,12.9601,435.5960
610,-1.967403,12.9601,435.6010
611,-1.965761,12.9651,435.6060
612,-1.975422,12.9651,435.6110
613,-1.970601,12.9701,435.6160
614,-1.978116,12.9701,435.6210
615,-1.976923,12.9745,435.6260
616,-1.987365,12.9745,435.6310
617,-1.985046,12.9795,435.6360
618,-1.994379,12.9794,435.6410
619,-1.992298,12.9844,435.6460
620,-2.001847,12.9844,435.6510
621,-1.998069,12.9894,435.6560
622,-2.005700,12.9894,435.6610
623,-2.000959,12.9944,435.6660
624,-2.003587,12.9944,435.6710
625,-1.996783,12.9994,435.6760
626,-2.001828,12.9994,435.6810
627,-1.999112,13.0051,435.6860
628,-2.006023,13.0051,435.6910
629,-1.998522,13.0101,435.6960
630,-2.000898,13.0101,435.7010
631,-1.996586,13.0144,435.7060
632,-2.004288,13.0144,435.7110
633,-2.000641,13.0194,435.7160
634,-2.007631,13.0194,435.7210
635,-2.002062,13.0244,435.7260
