Point No.,Normal Force [N],Gap [mm],Time [s]
1,3.954380,11.4698,243.4560
2,3.954375,11.4698,243.4610
3,3.954450,11.4698,243.4660
4,3.954403,11.4698,243.4710
5,3.954263,11.4698,243.4760
6,3.953772,11.4705,243.4810
7,3.953463,11.4705,243.4860
8,3.953519,11.4705,243.4910
9,3.953038,11.4705,243.4950
10,3.952200,11.4705,243.5000
11,3.945860,11.4730,243.5050
12,3.941740,11.4730,243.5100
13,3.930933,11.4754,243.5150
14,3.920510,11.4754,243.5200
15,3.902165,11.4804,243.5250
16,3.881417,11.4848,243.5310
17,3.864705,11.4848,243.5360
18,3.839640,11.4904,243.5410
19,3.819963,11.4904,243.5460
20,3.796624,11.4947,243.5510
21,3.778419,11.4947,243.5560
22,3.753800,11.4997,243.5610
23,3.735563,11.4997,243.5660
24,3.712051,11.5047,243.5710
25,3.692799,11.5047,243.5760
26,3.669021,11.5103,243.5810
27,3.649708,11.5103,243.5860
28,3.629189,11.5146,243.5910
29,3.611298,11.5146,243.5960
30,3.599084,11.5146,243.6000
31,3.571247,11.5202,243.6050
32,3.560356,11.5202,243.6100
33,3.531528,11.5246,243.6150
34,3.519219,11.5246,243.6200
35,3.490124,11.5302,243.6250
36,3.481712,11.5302,243.6300
37,3.456264,11.5345,243.6350
38,3.445850,11.5345,243.6400
39,3.418486,11.5401,243.6450
40,3.409297,11.5401,243.6500
41,3.381057,11.5445,243.6550
42,3.371593,11.5445,243.6600
43,3.344101,11.5501,243.6650
44,3.336339,11.5501,243.6700
45,3.309619,11.5545,243.6750
46,3.300407,11.5544,243.6800
47,3.273257,11.5601,243.6850
48,3.264353,11.5601,243.6900
49,3.236400,11.5644,243.6950
50,3.227693,11.5644,243.7000
51,3.201188,11.5700,243.7050
52,3.194436,11.5700,243.7100
53,3.168530,11.5750,243.7150
54,3.159528,11.5750,243.7200
55,3.132228,11.5800,243.7250
56,3.124747,11.5800,243.7300
57,3.099159,11.5843,243.7350
58,3.091335,11.5843,243.7400
59,3.065233,11.5899,243.7450
60,3.058752,11.5899,243.7500
61,3.032729,11.5943,243.7550
62,3.024236,11.5943,243.7600
63,2.998887,11.5999,243.7650
64,2.992785,11.5999,243.7700
65,2.967304,11.6043,243.7750
66,2.959528,11.6042,243.7800
67,2.932187,11.6099,243.7850
68,2.926519,11.6099,243.7900
69,2.901155,11.6142,243.7950
70,2.893252,11.6142,243.8000
71,2.867590,11.6198,243.8050
72,2.861698,11.6198,243.8100
73,2.837676,11.6242,243.8150
74,2.830480,11.6242,243.8200
75,2.803119,11.6298,243.8250
76,2.797185,11.6298,243.8300
77,2.773131,11.6341,243.8350
78,2.766285,11.6341,243.8400
79,2.742090,11.6397,243.8450
80,2.736596,11.6397,243.8500
81,2.711887,11.6441,243.8550
82,2.704166,11.6441,243.8600
83,2.677419,11.6497,243.8650
84,2.671686,11.6497,243.8700
85,2.646920,11.6541,243.8750
86,2.639645,11.6541,243.8800
87,2.615848,11.6597,243.8850
88,2.610387,11.6597,243.8900
89,2.587024,11.6640,243.8950
90,2.579528,11.6640,243.9000
91,2.554235,11.6696,243.9050
92,2.549343,11.6696,243.9100
93,2.526098,11.6746,243.9150
94,2.519084,11.6746,243.9200
95,2.494618,11.6796,243.9250
96,2.488169,11.6796,243.9300
97,2.464611,11.6840,243.9350
98,2.457620,11.6840,243.9400
99,2.432902,11.6896,243.9450
100,2.427319,11.6896,243.9500
101,2.404769,11.6939,243.9550
102,2.397353,11.6939,243.9600
103,2.373842,11.6995,243.9650
104,2.368642,11.6995,243.9700
105,2.346884,11.7039,243.9750
106,2.339771,11.7039,243.9800
107,2.317180,11.7095,243.9850
108,2.312243,11.7095,243.9900
109,2.292252,11.7139,243.9950
110,2.284827,11.7138,244.0000
111,2.262642,11.7195,244.0050
112,2.256227,11.7195,244.0100
113,2.235778,11.7238,244.0150
114,2.229156,11.7238,244.0200
115,2.209025,11.7294,244.0250
116,2.204260,11.7294,244.0300
117,2.184536,11.7338,244.0350
118,2.178064,11.7338,244.0400
119,2.157522,11.7394,244.0450
120,2.152443,11.7394,244.0500
121,2.132210,11.7438,244.0550
122,2.126046,11.7438,244.0600
123,2.103068,11.7494,244.0650
124,2.097821,11.7494,244.0700
125,2.074912,11.7537,244.0750
126,2.066809,11.7537,244.0800
127,2.043643,11.7593,244.0850
128,2.038083,11.7593,244.0900
129,2.017283,11.7637,244.0950
130,2.010157,11.7637,244.1000
131,1.986416,11.7693,244.1050
132,1.981440,11.7693,244.1100
133,1.960444,11.7737,244.1150
134,1.953528,11.7737,244.1200
135,1.930825,11.7793,244.1250
136,1.924962,11.7793,244.1300
137,1.902885,11.7836,244.1350
138,1.894987,11.7836,244.1400
139,1.870517,11.7892,244.1450
140,1.864064,11.7892,244.1500
141,1.841585,11.7936,244.1550
142,1.834239,11.7936,244.1600
143,1.811901,11.7992,244.1650
144,1.806173,11.7992,244.1700
145,1.784199,11.8036,244.1750
146,1.776731,11.8035,244.1800
147,1.753061,11.8092,244.1850
148,1.747421,11.8092,244.1900
149,1.725583,11.8135,244.1950
150,1.718200,11.8135,244.2000
151,1.695431,11.8191,244.2050
152,1.689170,11.8191,244.2100
153,1.667917,11.8235,244.2150
154,1.660720,11.8235,244.2200
155,1.637218,11.8291,244.2250
156,1.631489,11.8291,244.2300
157,1.610629,11.8334,244.2350
158,1.603026,11.8334,244.2400
159,1.580328,11.8384,244.2450
160,1.573940,11.8384,244.2500
161,1.551069,11.8434,244.2550
162,1.543694,11.8434,244.2600
163,1.520734,11.8490,244.2650
164,1.514935,11.8490,244.2700
165,1.493496,11.8534,244.2750
166,1.485794,11.8534,244.2800
167,1.462867,11.8584,244.2850
168,1.456082,11.8584,244.2900
169,1.433860,11.8633,244.2950
170,1.426668,11.8633,244.3000
171,1.404905,11.8690,244.3050
172,1.399902,11.8690,244.3100
173,1.379673,11.8733,244.3150
174,1.372261,11.8733,244.3200
175,1.349437,11.8783,244.3250
176,1.342581,11.8783,244.3300
177,1.322315,11.8833,244.3350
178,1.315296,11.8833,244.3400
179,1.293238,11.8889,244.3450
180,1.287094,11.8889,244.3500
181,1.266912,11.8932,244.3550
182,1.259355,11.8932,244.3600
183,1.236760,11.8982,244.3650
184,1.229825,11.8982,244.3700
185,1.209624,11.9032,244.3750
186,1.202997,11.9032,244.3800
187,1.182245,11.9088,244.3850
188,1.176975,11.9088,244.3900
189,1.157536,11.9132,244.3950
190,1.150348,11.9132,244.4000
191,1.128347,11.9182,244.4050
192,1.121726,11.9182,244.4100
193,1.101567,11.9232,244.4150
194,1.093379,11.9231,244.4200
195,1.071536,11.9288,244.4250
196,1.066210,11.9288,244.4300
197,1.047809,11.9331,244.4350
198,1.040786,11.9331,244.4400
199,1.019135,11.9381,244.4450
200,1.011943,11.9381,244.4500
201,0.990592,11.9431,244.4550
202,0.982362,11.9431,244.4600
203,0.961258,11.9487,244.4650
204,0.956156,11.9487,244.4700
205,0.937938,11.9531,244.4750
206,0.930372,11.9530,244.4800
207,0.908347,11.9580,244.4850
208,0.901295,11.9580,244.4900
209,0.881506,11.9630,244.4950
210,0.873804,11.9630,244.5000
211,0.852654,11.9686,244.5050
212,0.846818,11.9686,244.5100
213,0.828871,11.9730,244.5150
214,0.822399,11.9730,244.5200
215,0.802997,11.9780,244.5250
216,0.796381,11.9780,244.5300
217,0.777059,11.9830,244.5350
218,0.768875,11.9830,244.5400
219,0.748291,11.9886,244.5450
220,0.742525,11.9886,244.5500
221,0.724143,11.9929,244.5550
222,0.717554,11.9929,244.5600
223,0.697999,11.9979,244.5650
224,0.691803,11.9979,244.5700
225,0.673107,12.0029,244.5750
226,0.665411,12.0029,244.5800
227,0.644148,12.0085,244.5850
228,0.637704,12.0085,244.5900
229,0.619523,12.0129,244.5950
230,0.612415,12.0129,244.6000
231,0.593383,12.0179,244.6050
232,0.587089,12.0178,244.6100
233,0.568889,12.0228,244.6150
234,0.560772,12.0228,244.6200
235,0.539345,12.0284,244.6250
236,0.532794,12.0284,244.6300
237,0.514403,12.0328,244.6350
238,0.507155,12.0328,244.6400
239,0.487388,12.0378,244.6450
240,0.480547,12.0378,244.6500
241,0.462390,12.0428,244.6550
242,0.453687,12.0428,244.6600
243,0.433089,12.0484,244.6650
244,0.426631,12.0484,244.6700
245,0.409586,12.0527,244.6750
246,0.401978,12.0527,244.6800
247,0.383381,12.0577,244.6850
248,0.376049,12.0577,244.6900
249,0.357788,12.0627,244.6950
250,0.350288,12.0627,244.7000
251,0.332635,12.0677,244.7050
252,0.328230,12.0677,244.7100
253,0.315642,12.0727,244.7150
254,0.310755,12.0727,244.7200
255,0.296680,12.0777,244.7250
256,0.291578,12.0777,244.7300
257,0.276582,12.0827,244.7350
258,0.270054,12.0827,244.7400
259,0.254024,12.0883,244.7450
260,0.248637,12.0883,244.7500
261,0.234945,12.0926,244.7550
262,0.229432,12.0926,244.7600
263,0.213561,12.0976,244.7650
264,0.207552,12.0976,244.7700
265,0.192845,12.1026,244.7750
266,0.186911,12.1026,244.7800
267,0.171260,12.1076,244.7850
268,0.165873,12.1076,244.7900
269,0.151438,12.1126,244.7950
270,0.144354,12.1126,244.8000
271,0.128225,12.1176,244.8050
272,0.122221,12.1176,244.8100
273,0.107585,12.1226,244.8150
274,0.100818,12.1226,244.8200
275,0.085738,12.1276,244.8250
276,0.081286,12.1275,244.8300
277,0.069039,12.1325,244.8350
278,0.063063,12.1325,244.8400
279,0.047748,12.1375,244.8450
280,0.041277,12.1375,244.8500
281,0.026823,12.1425,244.8550
282,0.019953,12.1425,244.8600
283,0.004887,12.1475,244.8650
284,-0.000309,12.1475,244.8700
285,-0.014239,12.1525,244.8750
286,-0.020659,12.1525,244.8800
287,-0.035918,12.1575,244.8850
288,-0.042305,12.1575,244.8900
289,-0.056128,12.1625,244.8950
290,-0.063128,12.1625,244.9000
291,-0.078303,12.1675,244.9050
292,-0.083872,12.1675,244.9100
293,-0.095497,12.1724,244.9150
294,-0.101094,12.1724,244.9200
295,-0.115721,12.1774,244.9250
296,-0.121613,12.1774,244.9300
297,-0.134894,12.1824,244.9350
298,-0.142231,12.1824,244.9400
299,-0.157826,12.1874,244.9450
300,-0.163680,12.1874,244.9500
301,-0.176339,12.1924,244.9550
302,-0.182778,12.1924,244.9600
303,-0.197040,12.1974,244.9650
304,-0.203409,12.1974,244.9700
305,-0.216451,12.2024,244.9750
306,-0.223054,12.2024,244.9800
307,-0.237601,12.2074,244.9850
308,-0.243540,12.2074,244.9900
309,-0.255127,12.2124,244.9950
310,-0.261108,12.2123,245.0000
311,-0.274702,12.2173,245.0050
312,-0.280519,12.2173,245.0100
313,-0.292546,12.2223,245.0150
314,-0.300005,12.2223,245.0200
315,-0.313926,12.2279,245.0250
316,-0.319518,12.2279,245.0300
317,-0.330264,12.2323,245.0350
318,-0.336072,12.2323,245.0400
319,-0.348305,12.2373,245.0450
320,-0.354042,12.2373,245.0500
321,-0.366257,12.2423,245.0550
322,-0.373739,12.2423,245.0600
323,-0.387823,12.2473,245.0650
324,-0.393841,12.2473,245.0700
325,-0.404583,12.2523,245.0750
326,-0.410592,12.2523,245.0800
327,-0.423493,12.2573,245.0850
328,-0.429329,12.2572,245.0900
329,-0.439930,12.2622,245.0950
330,-0.447094,12.2622,245.1000
331,-0.460066,12.2672,245.1050
332,-0.465392,12.2672,245.1100
333,-0.475567,12.2722,245.1150
334,-0.482586,12.2722,245.1200
335,-0.496002,12.2772,245.1250
336,-0.502450,12.2772,245.1300
337,-0.513355,12.2822,245.1350
338,-0.520355,12.2822,245.1400
339,-0.532340,12.2878,245.1450
340,-0.537755,12.2878,245.1500
341,-0.546967,12.2922,245.1550
342,-0.553594,12.2922,245.1600
343,-0.566032,12.2972,245.1650
344,-0.572163,12.2972,245.1700
345,-0.582090,12.3022,245.1750
346,-0.588908,12.3022,245.1800
347,-0.600103,12.3071,245.1850
348,-0.605878,12.3071,245.1900
349,-0.615001,12.3121,245.1950
350,-0.621024,12.3121,245.2000
351,-0.631382,12.3171,245.2050
352,-0.637227,12.3171,245.2100
353,-0.646748,12.3221,245.2150
354,-0.653846,12.3221,245.2200
355,-0.665513,12.3277,245.2250
356,-0.671910,12.3277,245.2300
357,-0.681445,12.3321,245.2350
358,-0.687674,12.3321,245.2400
359,-0.698162,12.3371,245.2450
360,-0.704120,12.3371,245.2500
361,-0.713355,12.3421,245.2550
362,-0.720949,12.3421,245.2600
363,-0.731728,12.3477,245.2650
364,-0.737905,12.3477,245.2700
365,-0.746177,12.3521,245.2750
366,-0.751770,12.3521,245.2800
367,-0.761931,12.3571,245.2850
368,-0.768020,12.3570,245.2900
369,-0.776629,12.3620,245.2950
370,-0.784484,12.3620,245.3000
371,-0.796367,12.3677,245.3050
372,-0.803096,12.3677,245.3100
373,-0.810704,12.3720,245.3150
374,-0.816530,12.3720,245.3200
375,-0.826589,12.3770,245.3250
376,-0.832962,12.3770,245.3300
377,-0.840959,12.3820,245.3350
378,-0.848586,12.3820,245.3400
379,-0.858766,12.3876,245.3450
380,-0.864447,12.3876,245.3500
381,-0.870180,12.3920,245.3550
382,-0.875553,12.3920,245.3600
383,-0.886004,12.3970,245.3650
384,-0.893654,12.3970,245.3700
385,-0.901515,12.4020,245.3750
386,-0.908604,12.4020,245.3800
387,-0.915665,12.4076,245.3850
388,-0.920365,12.4076,245.3900
389,-0.928034,12.4120,245.3950
390,-0.935202,12.4119,245.4000
391,-0.944265,12.4169,245.4050
392,-0.951284,12.4169,245.4100
393,-0.956661,12.4219,245.4150
394,-0.962282,12.4219,245.4200
395,-0.969684,12.4276,245.4250
396,-0.974819,12.4276,245.4300
397,-0.982619,12.4319,245.4350
398,-0.988913,12.4319,245.4400
399,-0.997176,12.4369,245.4450
400,-1.002792,12.4369,245.4500
401,-1.008319,12.4419,245.4550
402,-1.013888,12.4419,245.4600
403,-1.021193,12.4475,245.4650
404,-1.026065,12.4475,245.4700
405,-1.030218,12.4519,245.4750
406,-1.034697,12.4519,245.4800
407,-1.043358,12.4569,245.4850
408,-1.048324,12.4569,245.4900
409,-1.056535,12.4619,245.4950
410,-1.066673,12.4619,245.5000
411,-1.077162,12.4675,245.5050
412,-1.085537,12.4675,245.5100
413,-1.092256,12.4719,245.5150
414,-1.097077,12.4719,245.5200
415,-1.102750,12.4768,245.5250
416,-1.105892,12.4768,245.5310
417,-1.111064,12.4818,245.5360
418,-1.114936,12.4818,245.5410
419,-1.121459,12.4875,245.5460
420,-1.129479,12.4875,245.5510
421,-1.136105,12.4918,245.5560
422,-1.142418,12.4918,245.5610
423,-1.148427,12.4968,245.5660
424,-1.153318,12.4968,245.5710
425,-1.158906,12.5018,245.5760
426,-1.164204,12.5018,245.5810
427,-1.170666,12.5074,245.5860
428,-1.173687,12.5074,245.5910
429,-1.178882,12.5118,245.5960
430,-1.189455,12.5118,245.6010
431,-1.199729,12.5168,245.6060
432,-1.205878,12.5168,245.6110
433,-1.210727,12.5218,245.6160
434,-1.214375,12.5218,245.6210
435,-1.218892,12.5274,245.6260
436,-1.225883,12.5274,245.6310
437,-1.233547,12.5318,245.6360
438,-1.241221,12.5318,245.6410
439,-1.247702,12.5368,245.6460
440,-1.252261,12.5368,245.6510
441,-1.257171,12.5418,245.6560
442,-1.263185,12.5418,245.6610
443,-1.269876,12.5474,245.6660
444,-1.275469,12.5474,245.6710
445,-1.280706,12.5517,245.6760
446,-1.284251,12.5517,245.6810
447,-1.289334,12.5567,245.6860
448,-1.292738,12.5567,245.6910
449,-1.296067,12.5617,245.6960
450,-1.298565,12.5617,245.7010
451,-1.302521,12.5674,245.7060
452,-1.305836,12.5674,245.7110
453,-1.310250,12.5717,245.7160
454,-1.313762,12.5717,245.7210
455,-1.316741,12.5767,245.7260
456,-1.317335,12.5767,245.7310
457,-1.320463,12.5817,245.7360
458,-1.324887,12.5817,245.7410
459,-1.329282,12.5873,245.7460
460,-1.332359,12.5873,245.7510
461,-1.336713,12.5917,245.7560
462,-1.343521,12.5917,245.7610
463,-1.350133,12.5967,245.7660
464,-1.357157,12.5967,245.7710
465,-1.362221,12.6017,245.7760
466,-1.368623,12.6017,245.7810
467,-1.374510,12.6073,245.7860
468,-1.379125,12.6073,245.7910
469,-1.383156,12.6117,245.7960
470,-1.389352,12.6117,245.8010
471,-1.395053,12.6167,245.8060
472,-1.399383,12.6167,245.8110
473,-1.402011,12.6217,245.8160
474,-1.405490,12.6217,245.8210
475,-1.408660,12.6273,245.8260
476,-1.412130,12.6273,245.8310
477,-1.415894,12.6317,245.8360
478,-1.422109,12.6317,245.8410
479,-1.427431,12.6367,245.8460
480,-1.432055,12.6367,245.8510
481,-1.435572,12.6417,245.8560
482,-1.440771,12.6417,245.8610
483,-1.445368,12.6473,245.8660
484,-1.451134,12.6473,245.8710
485,-1.454767,12.6516,245.8760
486,-1.459416,12.6516,245.8810
487,-1.464293,12.6573,245.8860
488,-1.469357,12.6573,245.8910
489,-1.472537,12.6616,245.8960
490,-1.478616,12.6616,245.9010
491,-1.482894,12.6673,245.9060
492,-1.486374,12.6672,245.9110
493,-1.487365,12.6716,245.9160
494,-1.490522,12.6716,245.9210
495,-1.492163,12.6766,245.9260
496,-1.493243,12.6766,245.9310
497,-1.494440,12.6816,245.9360
498,-1.499374,12.6816,245.9410
499,-1.503736,12.6872,245.9460
500,-1.509128,12.6872,245.9510
501,-1.512083,12.6916,245.9560
502,-1.517872,12.6916,245.9610
503,-1.521838,12.6966,245.9660
504,-1.527889,12.6966,245.9710
505,-1.531401,12.7016,245.9760
506,-1.539444,12.7016,245.9810
507,-1.544433,12.7072,245.9860
508,-1.550391,12.7072,245.9910
509,-1.553309,12.7116,245.9960
510,-1.560332,12.7116,246.0010
511,-1.564896,12.7166,246.0060
512,-1.571681,12.7166,246.0110
513,-1.575198,12.7216,246.0160
514,-1.583330,12.7216,246.0210
515,-1.587590,12.7272,246.0260
516,-1.593332,12.7272,246.0310
517,-1.595665,12.7316,246.0360
518,-1.602011,12.7316,246.0410
519,-1.606393,12.7366,246.0460
520,-1.613599,12.7365,246.0510
521,-1.616549,12.7415,246.0560
522,-1.624040,12.7415,246.0610
523,-1.627529,12.7472,246.0660
524,-1.632313,12.7472,246.0710
525,-1.633762,12.7515,246.0760
526,-1.638115,12.7515,246.0810
527,-1.639939,12.7565,246.0860
528,-1.643905,12.7565,246.0910
529,-1.644887,12.7615,246.0960
530,-1.650405,12.7615,246.1010
531,-1.652921,12.7671,246.1060
532,-1.657905,12.7671,246.1110
533,-1.659481,12.7715,246.1160
534,-1.666940,12.7715,246.1210
535,-1.671331,12.7765,246.1260
536,-1.679070,12.7765,246.1310
537,-1.681380,12.7815,246.1360
538,-1.688300,12.7815,246.1410
539,-1.691190,12.7871,246.1460
540,-1.697250,12.7871,246.1510
541,-1.698681,12.7915,246.1560
542,-1.706206,12.7915,246.1610
543,-1.710293,12.7965,246.1660
544,-1.717335,12.7965,246.1710
545,-1.719397,12.8015,246.1760
546,-1.727842,12.8015,246.1810
547,-1.731335,12.8071,246.1860
548,-1.737896,12.8071,246.1910
549,-1.738855,12.8115,246.1960
550,-1.745640,12.8115,246.2010
551,-1.747987,12.8165,246.2060
552,-1.754538,12.8165,246.2110
553,-1.755815,12.8215,246.2160
554,-1.763793,12.8215,246.2210
555,-1.766823,12.8265,246.2260
556,-1.774052,12.8265,246.2310
557,-1.775689,12.8315,246.2360
558,-1.782988,12.8314,246.2410
559,-1.785494,12.8364,246.2460
560,-1.792130,12.8364,246.2510
561,-1.793388,12.8414,246.2560
562,-1.802273,12.8414,246.2610
563,-1.805233,12.8471,246.2660
564,-1.813832,12.8471,246.2710
565,-1.815446,12.8514,246.2760
566,-1.823545,12.8514,246.2810
567,-1.826224,12.8564,246.2860
568,-1.833047,12.8564,246.2910
569,-1.834590,12.8614,246.2960
570,-1.843395,12.8614,246.3010
571,-1.845719,12.8664,246.3060
572,-1.853014,12.8664,246.3110
573,-1.853351,12.8714,246.3160
574,-1.861001,12.8714,246.3210
575,-1.863741,12.8764,246.3260
576,-1.871246,12.8764,246.3310
577,-1.871794,12.8808,246.3360
578,-1.880458,12.8808,246.3410
579,-1.882675,12.8864,246.3460
580,-1.890161,12.8864,246.3510
581,-1.890227,12.8914,246.3560
582,-1.897166,12.8914,246.3610
583,-1.899561,12.8964,246.3660
584,-1.907515,12.8964,246.3710
585,-1.908567,12.9014,246.3760
586,-1.918125,12.9014,246.3810
587,-1.920360,12.9064,246.3860
588,-1.927880,12.9064,246.3910
589,-1.927754,12.9114,246.3960
590,-1.935174,12.9114,246.4010
591,-1.936811,12.9164,246.4060
592,-1.944826,12.9164,246.4110
593,-1.945831,12.9207,246.4160
594,-1.955562,12.9207,246.4210
595,-1.957405,12.9263,246.4260
596,-1.963877,12.9263,246.4310
597,-1.963058,12.9313,246.4360
598,-1.971728,12.9313,246.4410
599,-1.974038,12.9363,246.4460
600,-1.981908,12.9363,246.4510
601,-1.982104,12.9413,246.4560
602,-1.991186,12.9413,246.4610
603,-1.992850,12.9463,246.4660
604,-2.000556,12.9463,246.4710
605,-1.999766,12.9513,246.4760
606,-2.006982,12.9513,246.4810
607,-2.008973,12.9563,246.4860
608,-2.018260,12.9563,246.4910
609,-2.018012,12.9607,246.4960
610,-2.026116,12.9607,246.5010
611,-2.025925,12.9663,246.5060
612,-2.031840,12.9663,246.5110
613,-2.028824,12.9713,246.5160
614,-2.033669,12.9713,246.5210
615,-2.033276,12.9763,246.5260
616,-2.039687,12.9763,246.5310
617,-2.039243,12.9813,246.5360
618,-2.048048,12.9813,246.5410
619,-2.048974,12.9863,246.5460
620,-2.056362,12.9863,246.5510
621,-2.054847,12.9913,246.5560
622,-2.062768,12.9913,246.5610
623,-2.062343,12.9963,246.5660
624,-2.063428,12.9963,246.5710
625,-2.058050,13.0007,246.5760
626,-2.061595,13.0007,246.5810
627,-2.060220,13.0063,246.5860
628,-2.066687,13.0063,246.5910
629,-2.065013,13.0107,246.5960
630,-2.072570,13.0107,246.6010
631,-2.073560,13.0163,246.6060
632,-2.081496,13.0163,246.6110
633,-2.080673,13.0206,246.6160
634,-2.089633,13.0206,246.6210
635,-2.089801,13.0263,246.6260
