Point No.,Normal Force [N],Gap [mm],Time [s]
1.0,4.031756,11.2186,606.4091
2.0,4.031457,11.2186,606.4140
3.0,4.030890,11.2186,606.4190
4.0,4.030587,11.2186,606.4240
5.0,4.031723,11.2186,606.4290
6.0,4.032257,11.2186,606.4340
7.0,4.032682,11.2186,606.4390
8.0,4.031765,11.2186,606.4440
9.0,4.029427,11.2211,606.4481
10.0,4.020365,11.2211,606.4530
11.0,4.014473,11.2236,606.4580
12.0,4.002301,11.2236,606.4630
13.0,3.990391,11.2286,606.4680
14.0,3.972552,11.2286,606.4730
15.0,3.957372,11.2336,606.4780
16.0,3.928282,11.2336,606.4840
17.0,3.890208,11.2398,606.4890
18.0,3.866823,11.2398,606.4940
19.0,3.829334,11.2466,606.4990
20.0,3.796344,11.2466,606.5040
21.0,3.752331,11.2553,606.5090
22.0,3.720169,11.2553,606.5140
23.0,3.668922,11.2647,606.5190
24.0,3.631424,11.2646,606.5240
25.0,3.575703,11.2740,606.5291
26.0,3.537176,11.2740,606.5341
27.0,3.480136,11.2839,606.5390
28.0,3.442736,11.2839,606.5440
29.0,3.384686,11.2932,606.5490
30.0,3.345341,11.2932,606.5530
31.0,3.306968,11.3038,606.5580
32.0,3.251686,11.3038,606.5630
33.0,3.211274,11.3138,606.5681
34.0,3.155838,11.3137,606.5731
35.0,3.119149,11.3237,606.5780
36.0,3.066098,11.3237,606.5830
37.0,3.028357,11.3337,606.5880
38.0,2.974192,11.3336,606.5930
39.0,2.936853,11.3436,606.5980
40.0,2.883012,11.3436,606.6030
41.0,2.846823,11.3536,606.6080
42.0,2.796236,11.3535,606.6130
43.0,2.761356,11.3635,606.6180
44.0,2.712466,11.3635,606.6230
45.0,2.677442,11.3735,606.6281
46.0,2.625897,11.3734,606.6331
47.0,2.589810,11.3834,606.6380
48.0,2.542212,11.3834,606.6430
49.0,2.508380,11.3934,606.6480
50.0,2.460089,11.3933,606.6530
51.0,2.425378,11.4033,606.6580
52.0,2.379504,11.4033,606.6630
53.0,2.347080,11.4133,606.6680
54.0,2.302184,11.4132,606.6730
55.0,2.271050,11.4232,606.6780
56.0,2.230610,11.4232,606.6830
57.0,2.201515,11.4332,606.6880
58.0,2.158635,11.4331,606.6931
59.0,2.127145,11.4431,606.6981
60.0,2.083212,11.4431,606.7030
61.0,2.049946,11.4531,606.7080
62.0,2.003133,11.4531,606.7130
63.0,1.969731,11.4630,606.7180
64.0,1.924615,11.4630,606.7230
65.0,1.891522,11.4730,606.7280
66.0,1.844096,11.4730,606.7330
67.0,1.810914,11.4829,606.7380
68.0,1.765892,11.4829,606.7430
69.0,1.734267,11.4929,606.7480
70.0,1.689553,11.4929,606.7531
71.0,1.655726,11.5029,606.7581
72.0,1.610105,11.5028,606.7630
73.0,1.577016,11.5128,606.7680
74.0,1.530255,11.5128,606.7730
75.0,1.496970,11.5228,606.7780
76.0,1.452018,11.5227,606.7830
77.0,1.419672,11.5327,606.7880
78.0,1.374805,11.5327,606.7930
79.0,1.342895,11.5427,606.7980
80.0,1.299481,11.5426,606.8030
81.0,1.268548,11.5526,606.8080
82.0,1.225649,11.5526,606.8130
83.0,1.194838,11.5626,606.8181
84.0,1.152691,11.5626,606.8231
85.0,1.121417,11.5725,606.8280
86.0,1.078059,11.5725,606.8330
87.0,1.046617,11.5825,606.8380
88.0,1.005074,11.5825,606.8430
89.0,0.974225,11.5925,606.8480
90.0,0.931840,11.5924,606.8530
91.0,0.901169,11.6024,606.8580
92.0,0.860201,11.6024,606.8630
93.0,0.830760,11.6124,606.8680
94.0,0.788773,11.6123,606.8730
95.0,0.758700,11.6229,606.8781
96.0,0.718939,11.6229,606.8831
97.0,0.690423,11.6323,606.8880
98.0,0.649666,11.6323,606.8930
99.0,0.619935,11.6422,606.8980
100.0,0.580313,11.6422,606.9030
101.0,0.547613,11.6522,606.9080
102.0,0.503961,11.6522,606.9130
103.0,0.474258,11.6622,606.9180
104.0,0.434524,11.6621,606.9230
105.0,0.405981,11.6715,606.9280
106.0,0.365920,11.6715,606.9330
107.0,0.341641,11.6821,606.9380
108.0,0.310451,11.6821,606.9431
109.0,0.286261,11.6914,606.9481
110.0,0.252546,11.6914,606.9530
111.0,0.229315,11.7020,606.9580
112.0,0.200837,11.7020,606.9630
113.0,0.179013,11.7020,606.9680
114.0,0.146729,11.7113,606.9730
115.0,0.123526,11.7219,606.9780
116.0,0.093935,11.7219,606.9830
117.0,0.071569,11.7319,606.9880
118.0,0.039186,11.7319,606.9930
119.0,0.015773,11.7419,606.9980
120.0,-0.015343,11.7419,607.0031
121.0,-0.040804,11.7512,607.0081
122.0,-0.078410,11.7512,607.0130
123.0,-0.104232,11.7618,607.0180
124.0,-0.136951,11.7618,607.0230
125.0,-0.160047,11.7712,607.0280
126.0,-0.192429,11.7711,607.0330
127.0,-0.215969,11.7817,607.0380
128.0,-0.247992,11.7817,607.0430
129.0,-0.271457,11.7911,607.0480
130.0,-0.304372,11.7911,607.0530
131.0,-0.327571,11.7911,607.0580
132.0,-0.357344,11.8017,607.0630
133.0,-0.379205,11.8017,607.0681
134.0,-0.410185,11.8116,607.0731
135.0,-0.432256,11.8216,607.0780
136.0,-0.462058,11.8216,607.0830
137.0,-0.483834,11.8316,607.0880
138.0,-0.513608,11.8316,607.0930
139.0,-0.535328,11.8409,607.0980
140.0,-0.564190,11.8409,607.1030
141.0,-0.585588,11.8509,607.1080
142.0,-0.615754,11.8509,607.1130
143.0,-0.636998,11.8609,607.1180
144.0,-0.665855,11.8609,607.1230
145.0,-0.686065,11.8708,607.1281
146.0,-0.714725,11.8708,607.1331
147.0,-0.735534,11.8808,607.1380
148.0,-0.762726,11.8808,607.1430
149.0,-0.783311,11.8808,607.1480
150.0,-0.813687,11.8908,607.1530
151.0,-0.834632,11.8908,607.1580
152.0,-0.861178,11.9014,607.1630
153.0,-0.880201,11.9014,607.1680
154.0,-0.907627,11.9113,607.1730
155.0,-0.927950,11.9213,607.1780
156.0,-0.955955,11.9213,607.1830
157.0,-0.976652,11.9307,607.1880
158.0,-1.005284,11.9307,607.1931
159.0,-1.024788,11.9406,607.1981
160.0,-1.049381,11.9406,607.2030
161.0,-1.067169,11.9506,607.2080
162.0,-1.092705,11.9506,607.2130
163.0,-1.110260,11.9606,607.2180
164.0,-1.132574,11.9606,607.2230
165.0,-1.147950,11.9706,607.2280
166.0,-1.168333,11.9706,607.2330
167.0,-1.182759,11.9706,607.2380
168.0,-1.202273,11.9805,607.2430
169.0,-1.216713,11.9805,607.2480
170.0,-1.238420,11.9911,607.2531
171.0,-1.255057,11.9911,607.2581
172.0,-1.277405,12.0011,607.2630
173.0,-1.293393,12.0011,607.2680
174.0,-1.314875,12.0105,607.2730
175.0,-1.329769,12.0205,607.2780
176.0,-1.348782,12.0205,607.2830
177.0,-1.362993,12.0304,607.2880
178.0,-1.384176,12.0304,607.2930
179.0,-1.399144,12.0404,607.2980
180.0,-1.417928,12.0404,607.3030
181.0,-1.432354,12.0504,607.3080
182.0,-1.453468,12.0504,607.3130
183.0,-1.468745,12.0604,607.3181
184.0,-1.489152,12.0604,607.3231
185.0,-1.504419,12.0697,607.3280
186.0,-1.526949,12.0697,607.3330
187.0,-1.543344,12.0697,607.3380
188.0,-1.564760,12.0803,607.3430
189.0,-1.580225,12.0803,607.3480
190.0,-1.602352,12.0903,607.3530
191.0,-1.617938,12.0903,607.3580
192.0,-1.638667,12.1003,607.3630
193.0,-1.653346,12.1003,607.3680
194.0,-1.674786,12.1103,607.3730
195.0,-1.689525,12.1203,607.3781
196.0,-1.708333,12.1202,607.3831
197.0,-1.722768,12.1296,607.3880
198.0,-1.743741,12.1296,607.3930
199.0,-1.758471,12.1402,607.3980
200.0,-1.778111,12.1402,607.4030
201.0,-1.792303,12.1496,607.4080
202.0,-1.811644,12.1496,607.4130
203.0,-1.823951,12.1602,607.4180
204.0,-1.839561,12.1602,607.4230
205.0,-1.851742,12.1602,607.4280
206.0,-1.870465,12.1695,607.4330
207.0,-1.883853,12.1695,607.4380
208.0,-1.901665,12.1801,607.4431
209.0,-1.913738,12.1801,607.4481
210.0,-1.928099,12.1901,607.4530
211.0,-1.938490,12.1901,607.4580
212.0,-1.952948,12.2001,607.4630
213.0,-1.964517,12.2001,607.4680
214.0,-1.982081,12.2101,607.4730
215.0,-1.994408,12.2101,607.4780
216.0,-2.011387,12.2201,607.4830
217.0,-2.023849,12.2201,607.4880
218.0,-2.043503,12.2294,607.4930
219.0,-2.056890,12.2294,607.4980
220.0,-2.073131,12.2400,607.5031
221.0,-2.081267,12.2400,607.5081
222.0,-2.093719,12.2494,607.5130
223.0,-2.103409,12.2494,607.5180
224.0,-2.117723,12.2600,607.5230
225.0,-2.128941,12.2600,607.5280
226.0,-2.146594,12.2694,607.5330
227.0,-2.159341,12.2693,607.5380
228.0,-2.176535,12.2800,607.5430
229.0,-2.188123,12.2800,607.5480
230.0,-2.205958,12.2899,607.5530
231.0,-2.218817,12.2899,607.5580
232.0,-2.236713,12.2999,607.5630
233.0,-2.248824,12.2999,607.5681
234.0,-2.268370,12.3093,607.5731
235.0,-2.281263,12.3093,607.5780
236.0,-2.298027,12.3199,607.5830
237.0,-2.309067,12.3199,607.5880
238.0,-2.326542,12.3293,607.5930
239.0,-2.339438,12.3292,607.5980
240.0,-2.356484,12.3399,607.6030
241.0,-2.368244,12.3399,607.6080
242.0,-2.385775,12.3492,607.6130
243.0,-2.397358,12.3492,607.6180
244.0,-2.412163,12.3598,607.6230
245.0,-2.422759,12.3598,607.6281
246.0,-2.439411,12.3698,607.6331
247.0,-2.450830,12.3698,607.6380
248.0,-2.463811,12.3798,607.6430
249.0,-2.470723,12.3798,607.6480
250.0,-2.480173,12.3898,607.6530
251.0,-2.487875,12.3898,607.6580
252.0,-2.499617,12.3998,607.6630
253.0,-2.508525,12.3998,607.6680
254.0,-2.524176,12.4098,607.6730
255.0,-2.533996,12.4098,607.6780
256.0,-2.544359,12.4197,607.6830
257.0,-2.548862,12.4197,607.6880
258.0,-2.555039,12.4297,607.6931
259.0,-2.559705,12.4297,607.6981
260.0,-2.564877,12.4397,607.7030
261.0,-2.566327,12.4397,607.7080
262.0,-2.571246,12.4491,607.7130
263.0,-2.576988,12.4491,607.7180
264.0,-2.586187,12.4597,607.7230
265.0,-2.593977,12.4597,607.7280
266.0,-2.607356,12.4697,607.7330
267.0,-2.616951,12.4697,607.7380
268.0,-2.630358,12.4797,607.7430
269.0,-2.639336,12.4797,607.7480
270.0,-2.654136,12.4897,607.7531
271.0,-2.662067,12.4897,607.7581
272.0,-2.666243,12.4997,607.7630
273.0,-2.668048,12.4997,607.7680
274.0,-2.669128,12.5091,607.7730
275.0,-2.670049,12.5091,607.7780
276.0,-2.674150,12.5197,607.7830
277.0,-2.679009,12.5197,607.7880
278.0,-2.690578,12.5290,607.7930
279.0,-2.698802,12.5290,607.7980
280.0,-2.709348,12.5396,607.8030
281.0,-2.716091,12.5396,607.8080
282.0,-2.723428,12.5490,607.8130
283.0,-2.727421,12.5490,607.8181
284.0,-2.733725,12.5603,607.8231
285.0,-2.738831,12.5603,607.8280
286.0,-2.746636,12.5696,607.8330
287.0,-2.749100,12.5696,607.8380
288.0,-2.751349,12.5796,607.8430
289.0,-2.751817,12.5796,607.8480
290.0,-2.753715,12.5896,607.8530
291.0,-2.756937,12.5896,607.8580
292.0,-2.761454,12.5996,607.8630
293.0,-2.762694,12.5996,607.8680
294.0,-2.765602,12.6090,607.8730
295.0,-2.768562,12.6090,607.8781
296.0,-2.770834,12.6196,607.8831
297.0,-2.771545,12.6196,607.8880
298.0,-2.776717,12.6290,607.8930
299.0,-2.781633,12.6290,607.8980
300.0,-2.789151,12.6396,607.9030
301.0,-2.794889,12.6396,607.9080
302.0,-2.805322,12.6496,607.9130
303.0,-2.812163,12.6496,607.9180
304.0,-2.821221,12.6596,607.9230
305.0,-2.822670,12.6596,607.9280
306.0,-2.817400,12.6696,607.9330
307.0,-2.812397,12.6696,607.9380
308.0,-2.802502,12.6796,607.9431
309.0,-2.795217,12.6796,607.9481
310.0,-2.779687,12.6890,607.9530
311.0,-2.770395,12.6890,607.9580
312.0,-2.762820,12.6996,607.9630
313.0,-2.762324,12.6996,607.9680
314.0,-2.767332,12.7090,607.9730
315.0,-2.772626,12.7090,607.9780
316.0,-2.780874,12.7196,607.9830
317.0,-2.786336,12.7196,607.9880
318.0,-2.797541,12.7290,607.9930
319.0,-2.804461,12.7290,607.9980
320.0,-2.814043,12.7396,608.0031
321.0,-2.818644,12.7396,608.0081
322.0,-2.826916,12.7496,608.0130
323.0,-2.831569,12.7496,608.0180
324.0,-2.832303,12.7596,608.0230
325.0,-2.824101,12.7596,608.0280
326.0,-2.808805,12.7696,608.0330
327.0,-2.795320,12.7696,608.0380
328.0,-2.777937,12.7790,608.0430
329.0,-2.770334,12.7790,608.0480
330.0,-2.765902,12.7896,608.0530
331.0,-2.761852,12.7896,608.0580
332.0,-2.756834,12.7990,608.0630
333.0,-2.755240,12.7990,608.0681
334.0,-2.756792,12.8090,608.0731
335.0,-2.752341,12.8090,608.0780
336.0,-2.737555,12.8190,608.0830
337.0,-2.728006,12.8190,608.0880
338.0,-2.716975,12.8290,608.0930
339.0,-2.708497,12.8290,608.0980
340.0,-2.694576,12.8397,608.1030
341.0,-2.680898,12.8397,608.1080
342.0,-2.658756,12.8497,608.1130
343.0,-2.645218,12.8497,608.1180
344.0,-2.622960,12.8597,608.1230
345.0,-2.604887,12.8597,608.1281
346.0,-2.582707,12.8691,608.1331
347.0,-2.572556,12.8691,608.1380
348.0,-2.564578,12.8791,608.1430
349.0,-2.559402,12.8791,608.1480
350.0,-2.554332,12.8891,608.1530
351.0,-2.552570,12.8891,608.1580
352.0,-2.553019,12.8991,608.1630
353.0,-2.553846,12.8991,608.1680
354.0,-2.555647,12.9091,608.1730
355.0,-2.552228,12.9091,608.1780
356.0,-2.541263,12.9191,608.1830
357.0,-2.534230,12.9191,608.1880
358.0,-2.527823,12.9298,608.1931
359.0,-2.523053,12.9298,608.1981
360.0,-2.512396,12.9398,608.2030
361.0,-2.496068,12.9398,608.2080
362.0,-2.472439,12.9492,608.2130
363.0,-2.461066,12.9492,608.2180
364.0,-2.444784,12.9592,608.2230
365.0,-2.419275,12.9592,608.2280
366.0,-2.376091,12.9692,608.2330
367.0,-2.351401,12.9692,608.2380
368.0,-2.307875,12.9793,608.2430
369.0,-2.272158,12.9793,608.2480
370.0,-2.230139,12.9893,608.2531
371.0,-2.206182,12.9893,608.2581
372.0,-2.168399,12.9993,608.2630
373.0,-2.140528,12.9994,608.2680
374.0,-2.112649,13.0094,608.2730
375.0,-2.101497,13.0094,608.2780
376.0,-2.093954,13.0200,608.2830
377.0,-2.083844,13.0200,608.2880
378.0,-2.054066,13.0294,608.2930
379.0,-2.027178,13.0294,608.2980
380.0,-1.995932,13.0394,608.3030
381.0,-1.978555,13.0395,608.3080
382.0,-1.956605,13.0495,608.3130
383.0,-1.935759,13.0495,608.3181
384.0,-1.898106,13.0595,608.3231
385.0,-1.872635,13.0595,608.3280
386.0,-1.841931,13.0689,608.3330
387.0,-1.812607,13.0689,608.3380
388.0,-1.765167,13.0796,608.3430
389.0,-1.729072,13.0796,608.3480
390.0,-1.675600,13.0890,608.3530
391.0,-1.644148,13.0890,608.3580
392.0,-1.599196,13.0997,608.3630
393.0,-1.569207,13.0997,608.3680
394.0,-1.535427,13.1091,608.3730
395.0,-1.519734,13.1091,608.3781
396.0,-1.500860,13.1197,608.3831
397.0,-1.476596,13.1198,608.3880
398.0,-1.428399,13.1298,608.3930
399.0,-1.392953,13.1298,608.3980
400.0,-1.341894,13.1398,608.4030
401.0,-1.307112,13.1399,608.4080
402.0,-1.255249,13.1493,608.4130
403.0,-1.224667,13.1493,608.4180
404.0,-1.189834,13.1599,608.4230
405.0,-1.170881,13.1599,608.4280
406.0,-1.154646,13.1693,608.4330
407.0,-1.144957,13.1693,608.4380
408.0,-1.128408,13.1800,608.4431
409.0,-1.117578,13.1800,608.4481
410.0,-1.109670,13.1893,608.4530
411.0,-1.105569,13.1893,608.4580
412.0,-1.096184,13.1994,608.4630
413.0,-1.084087,13.1994,608.4680
414.0,-1.062291,13.2100,608.4730
415.0,-1.043502,13.2100,608.4780
416.0,-1.019912,13.2200,608.4840
417.0,-0.998943,13.2300,608.4890
418.0,-0.983965,13.2300,608.4940
419.0,-0.968637,13.2401,608.4990
420.0,-0.958700,13.2401,608.5040
421.0,-0.939383,13.2494,608.5090
422.0,-0.919607,13.2495,608.5140
423.0,-0.882885,13.2601,608.5190
424.0,-0.855025,13.2601,608.5240
425.0,-0.820271,13.2695,608.5291
426.0,-0.799649,13.2695,608.5341
427.0,-0.777517,13.2802,608.5390
428.0,-0.766944,13.2802,608.5440
429.0,-0.758691,13.2896,608.5490
430.0,-0.750685,13.2896,608.5540
431.0,-0.737811,13.3002,608.5590
432.0,-0.729783,13.3002,608.5640
433.0,-0.723867,13.3102,608.5690
434.0,-0.721945,13.3102,608.5740
435.0,-0.720907,13.3202,608.5790
436.0,-0.718307,13.3202,608.5840
437.0,-0.704873,13.3296,608.5891
438.0,-0.678321,13.3296,608.5941
439.0,-0.633145,13.3403,608.5990
440.0,-0.599495,13.3403,608.6040
441.0,-0.547131,13.3497,608.6090
442.0,-0.512794,13.3497,608.6140
443.0,-0.463928,13.3597,608.6190
444.0,-0.427987,13.3597,608.6240
445.0,-0.376268,13.3698,608.6290
446.0,-0.348066,13.3698,608.6340
447.0,-0.310236,13.3804,608.6390
448.0,-0.282979,13.3805,608.6440
449.0,-0.249521,13.3905,608.6490
450.0,-0.230040,13.3905,608.6541
451.0,-0.204901,13.4005,608.6591
452.0,-0.188782,13.4005,608.6640
453.0,-0.168352,13.4105,608.6690
454.0,-0.156965,13.4105,608.6740
455.0,-0.145738,13.4205,608.6790
456.0,-0.138859,13.4205,608.6840
457.0,-0.132817,13.4299,608.6890
458.0,-0.132892,13.4299,608.6940
459.0,-0.134510,13.4405,608.6990
460.0,-0.133729,13.4405,608.7040
461.0,-0.132284,13.4499,608.7090
462.0,-0.126696,13.4499,608.7141
463.0,-0.113799,13.4606,608.7191
464.0,-0.104517,13.4606,608.7240
465.0,-0.096605,13.4706,608.7290
466.0,-0.095693,13.4706,608.7340
467.0,-0.095838,13.4806,608.7390
468.0,-0.093659,13.4806,608.7440
469.0,-0.091761,13.4906,608.7490
470.0,-0.090807,13.4906,608.7540
471.0,-0.090596,13.5006,608.7590
472.0,-0.091906,13.5006,608.7640
473.0,-0.094103,13.5106,608.7690
474.0,-0.094276,13.5106,608.7740
475.0,-0.094188,13.5206,608.7791
476.0,-0.091485,13.5206,608.7841
477.0,-0.089946,13.5306,608.7890
478.0,-0.091910,13.5306,608.7940
479.0,-0.093986,13.5406,608.7990
480.0,-0.093168,13.5406,608.8040
481.0,-0.093313,13.5499,608.8090
482.0,-0.093322,13.5499,608.8140
483.0,-0.094131,13.5606,608.8190
484.0,-0.094477,13.5606,608.8240
485.0,-0.093514,13.5699,608.8290
486.0,-0.092883,13.5699,608.8340
487.0,-0.090456,13.5806,608.8391
488.0,-0.088375,13.5806,608.8441
489.0,-0.088015,13.5900,608.8490
490.0,-0.091055,13.5899,608.8540
491.0,-0.094510,13.6012,608.8590
492.0,-0.093972,13.6012,608.8640
493.0,-0.093163,13.6106,608.8690
494.0,-0.095885,13.6106,608.8740
495.0,-0.096381,13.6206,608.8790
496.0,-0.094585,13.6206,608.8840
497.0,-0.092556,13.6306,608.8890
498.0,-0.094272,13.6306,608.8940
499.0,-0.094838,13.6406,608.8990
500.0,-0.086159,13.6406,608.9041
501.0,-0.067000,13.6500,608.9091
502.0,-0.055787,13.6500,608.9140
503.0,-0.045261,13.6606,608.9190
504.0,-0.039822,13.6606,608.9240
505.0,-0.036961,13.6700,608.9290
506.0,-0.038101,13.6700,608.9340
507.0,-0.039345,13.6806,608.9390
508.0,-0.037381,13.6806,608.9440
509.0,-0.034711,13.6900,608.9490
510.0,-0.029203,13.6900,608.9540
511.0,-0.018027,13.7006,608.9590
512.0,-0.012369,13.7006,608.9641
513.0,-0.004391,13.7106,608.9691
514.0,-0.001019,13.7106,608.9740
515.0,0.000164,13.7206,608.9790
516.0,-0.001295,13.7206,608.9840
517.0,-0.005382,13.7300,608.9890
518.0,-0.010461,13.7300,608.9940
519.0,-0.014267,13.7400,608.9990
520.0,-0.012326,13.7400,609.0040
521.0,-0.006163,13.7500,609.0090
522.0,-0.004676,13.7500,609.0140
523.0,-0.000486,13.7600,609.0190
524.0,0.001118,13.7600,609.0240
525.0,-0.000276,13.7700,609.0291
526.0,-0.000903,13.7700,609.0341
527.0,-0.001567,13.7700,609.0390
528.0,-0.002572,13.7800,609.0440
529.0,-0.004171,13.7906,609.0490
530.0,-0.006233,13.7906,609.0540
531.0,-0.007426,13.8006,609.0590
532.0,-0.006500,13.8006,609.0640
533.0,-0.004400,13.8100,609.0690
534.0,-0.003965,13.8100,609.0740
535.0,-0.002614,13.8200,609.0790
536.0,-0.002179,13.8200,609.0840
537.0,-0.002595,13.8300,609.0891
538.0,-0.003760,13.8300,609.0941
539.0,-0.003965,13.8400,609.0990
540.0,-0.003521,13.8400,609.1040
541.0,-0.004335,13.8500,609.1090
542.0,-0.006042,13.8500,609.1140
543.0,-0.004152,13.8600,609.1190
544.0,-0.002661,13.8600,609.1240
545.0,-0.000762,13.8600,609.1290
546.0,-0.000636,13.8700,609.1340
547.0,0.000295,13.8700,609.1390
548.0,-0.000416,13.8806,609.1440
549.0,-0.000056,13.8806,609.1490
550.0,-0.001043,13.8906,609.1541
551.0,-0.001211,13.9000,609.1591
552.0,-0.002268,13.9000,609.1640
553.0,-0.002591,13.9100,609.1690
554.0,-0.005270,13.9100,609.1740
555.0,-0.006074,13.9200,609.1790
556.0,-0.004657,13.9200,609.1840
557.0,-0.000234,13.9300,609.1890
558.0,-0.000846,13.9300,609.1940
559.0,-0.001141,13.9400,609.1990
560.0,-0.002455,13.9400,609.2040
561.0,-0.001412,13.9500,609.2090
562.0,-0.001814,13.9500,609.2141
563.0,0.000673,13.9600,609.2191
564.0,0.000744,13.9600,609.2240
565.0,0.000954,13.9600,609.2290
566.0,-0.000145,13.9706,609.2340
567.0,0.001707,13.9706,609.2390
568.0,0.000860,13.9806,609.2440
569.0,0.000519,13.9900,609.2490
570.0,-0.002511,13.9900,609.2540
571.0,-0.005649,14.0000,609.2590
572.0,-0.006467,14.0000,609.2640
573.0,-0.003297,14.0100,609.2690
574.0,-0.003460,14.0100,609.2740
575.0,-0.003488,14.0200,609.2791
576.0,-0.005279,14.0200,609.2841
577.0,-0.005251,14.0300,609.2890
578.0,-0.006318,14.0300,609.2940
579.0,-0.003853,14.0400,609.2990
580.0,-0.003068,14.0400,609.3040
581.0,-0.003446,14.0494,609.3090
582.0,-0.004938,14.0494,609.3140
583.0,-0.002427,14.0494,609.3190
584.0,-0.002801,14.0600,609.3240
585.0,-0.003236,14.0600,609.3290
586.0,-0.004690,14.0700,609.3340
587.0,-0.003605,14.0700,609.3391
588.0,-0.004092,14.0800,609.3441
589.0,-0.001506,14.0900,609.3490
590.0,-0.002899,14.0900,609.3540
591.0,-0.001749,14.1000,609.3590
592.0,0.000519,14.1000,609.3640
593.0,0.004237,14.1094,609.3690
