Data stamp = , 12-04-2022 14:38:47 777

Calibration Values: 
Slope = , 26.54 , g/V 
Offset Voltage at no contact = , -0.501760 , V 

No , Time , Stage Position ,   Mass , Force 
   ,  (s) ,      (mm)      ,   (g)  , (mN)  

1 ,0.0000 ,0.54932 ,5.43198 ,53.29861 
2 ,0.2069 ,0.54941 ,5.40803 ,53.06356 
3 ,0.5275 ,0.55024 ,5.41487 ,53.13072 
4 ,0.7193 ,0.55167 ,5.41829 ,53.16429 
5 ,0.9116 ,0.55322 ,5.41145 ,53.09714 
6 ,1.1034 ,0.55510 ,5.41145 ,53.09714 
7 ,1.3118 ,0.55699 ,5.40803 ,53.06356 
8 ,1.5037 ,0.55907 ,5.41487 ,53.13072 
9 ,1.6799 ,0.56091 ,5.41829 ,53.16429 
10 ,1.8879 ,0.56286 ,5.40118 ,52.99640 
11 ,2.0960 ,0.56498 ,5.37038 ,52.69420 
12 ,2.3041 ,0.56708 ,5.35327 ,52.52631 
13 ,2.5119 ,0.56912 ,5.33616 ,52.35841 
14 ,2.7203 ,0.57114 ,5.32247 ,52.22410 
15 ,2.8963 ,0.57311 ,5.31563 ,52.15694 
16 ,3.0725 ,0.57486 ,5.29167 ,51.92190 
17 ,3.2805 ,0.57687 ,5.28141 ,51.82116 
18 ,3.4566 ,0.57861 ,5.26087 ,51.61969 
19 ,3.6484 ,0.58046 ,5.24034 ,51.41822 
20 ,3.8248 ,0.58234 ,5.20954 ,51.11602 
21 ,4.0009 ,0.58412 ,5.20270 ,51.04886 
22 ,4.1768 ,0.58591 ,5.19927 ,51.01528 
23 ,4.3529 ,0.58758 ,5.16848 ,50.71308 
24 ,4.5449 ,0.58948 ,5.14110 ,50.44445 
25 ,4.7212 ,0.59127 ,5.14452 ,50.47803 
26 ,4.9131 ,0.59324 ,5.12741 ,50.31014 
27 ,5.0893 ,0.59496 ,5.10688 ,50.10867 
28 ,5.2653 ,0.59674 ,5.06581 ,49.70573 
29 ,5.4415 ,0.59849 ,5.06923 ,49.73931 
30 ,5.6496 ,0.60051 ,5.04870 ,49.53784 
31 ,5.8415 ,0.60257 ,5.03501 ,49.40352 
32 ,6.0336 ,0.60439 ,5.01448 ,49.20205 
33 ,6.2098 ,0.60618 ,4.99394 ,49.00058 
34 ,6.3858 ,0.60792 ,4.96999 ,48.76554 
35 ,6.5939 ,0.60989 ,4.98026 ,48.86627 
36 ,6.7856 ,0.61191 ,4.95288 ,48.59764 
37 ,6.9620 ,0.61375 ,4.94603 ,48.53049 
38 ,7.1542 ,0.61566 ,4.92208 ,48.29544 
39 ,7.3462 ,0.61754 ,4.89128 ,47.99324 
40 ,7.5380 ,0.61936 ,4.88444 ,47.92608 
41 ,7.7143 ,0.62118 ,4.86732 ,47.75819 
42 ,7.9064 ,0.62311 ,4.85021 ,47.59030 
43 ,8.0825 ,0.62487 ,4.82968 ,47.38883 
44 ,8.2744 ,0.62678 ,4.82626 ,47.35525 
45 ,8.4987 ,0.62891 ,4.79204 ,47.01946 
46 ,8.6908 ,0.63099 ,4.77835 ,46.88515 
47 ,8.8829 ,0.63283 ,4.76466 ,46.75084 
48 ,9.0750 ,0.63475 ,4.75097 ,46.61653 
49 ,9.2990 ,0.63689 ,4.73044 ,46.41506 
50 ,9.4750 ,0.63880 ,4.73044 ,46.41506 
51 ,9.6512 ,0.64058 ,4.70648 ,46.18001 
52 ,9.8433 ,0.64248 ,4.68253 ,45.94496 
53 ,10.0351 ,0.64433 ,4.66542 ,45.77707 
54 ,10.2112 ,0.64616 ,4.65857 ,45.70991 
55 ,10.3874 ,0.64793 ,4.64146 ,45.54202 
56 ,10.5634 ,0.64969 ,4.60382 ,45.17266 
57 ,10.7394 ,0.65144 ,4.61066 ,45.23981 
58 ,10.9157 ,0.65325 ,4.60382 ,45.17266 
59 ,11.1076 ,0.65507 ,4.56275 ,44.76972 
60 ,11.3157 ,0.65720 ,4.56617 ,44.80330 
61 ,11.5078 ,0.65919 ,4.53537 ,44.50109 
62 ,11.6839 ,0.66091 ,4.52169 ,44.36678 
63 ,11.8600 ,0.66266 ,4.50800 ,44.23247 
64 ,12.0516 ,0.66460 ,4.51142 ,44.26604 
65 ,12.2438 ,0.66641 ,4.46009 ,43.76237 
66 ,12.4198 ,0.66823 ,4.45324 ,43.69521 
67 ,12.6121 ,0.67013 ,4.44640 ,43.62806 
68 ,12.8204 ,0.67212 ,4.41902 ,43.35943 
69 ,12.9964 ,0.67408 ,4.40533 ,43.22512 
70 ,13.1722 ,0.67577 ,4.40191 ,43.19154 
71 ,13.3485 ,0.67753 ,4.39507 ,43.12438 
72 ,13.5405 ,0.67948 ,4.36427 ,42.82218 
73 ,13.7164 ,0.68119 ,4.35058 ,42.68786 
74 ,13.8929 ,0.68297 ,4.34031 ,42.58713 
75 ,14.0849 ,0.68486 ,4.31636 ,42.35208 
76 ,14.2765 ,0.68686 ,4.30267 ,42.21777 
77 ,14.4530 ,0.68856 ,4.28556 ,42.04988 
78 ,14.6291 ,0.69034 ,4.27187 ,41.91556 
79 ,14.8050 ,0.69209 ,4.25818 ,41.78125 
80 ,14.9810 ,0.69387 ,4.23765 ,41.57978 
81 ,15.1573 ,0.69562 ,4.21369 ,41.34473 
82 ,15.3490 ,0.69746 ,4.21711 ,41.37831 
83 ,15.5414 ,0.69944 ,4.17947 ,41.00895 
84 ,15.7335 ,0.70138 ,4.18974 ,41.10968 
85 ,15.9096 ,0.70318 ,4.16920 ,40.90821 
86 ,16.1176 ,0.70511 ,4.13498 ,40.57243 
87 ,16.3094 ,0.70710 ,4.12471 ,40.47170 
88 ,16.4857 ,0.70887 ,4.11445 ,40.37096 
89 ,16.6779 ,0.71076 ,4.10076 ,40.23665 
90 ,16.8699 ,0.71267 ,4.09049 ,40.13591 
91 ,17.0619 ,0.71465 ,4.06996 ,39.93444 
92 ,17.2381 ,0.71639 ,4.06654 ,39.90087 
93 ,17.4298 ,0.71825 ,4.04258 ,39.66582 
94 ,17.6062 ,0.72015 ,4.01863 ,39.43077 
95 ,17.7984 ,0.72204 ,4.00494 ,39.29646 
96 ,18.0064 ,0.72408 ,3.98783 ,39.12856 
97 ,18.1984 ,0.72596 ,3.98098 ,39.06141 
98 ,18.3743 ,0.72782 ,3.97756 ,39.02783 
99 ,18.5502 ,0.72951 ,3.96045 ,38.85994 
100 ,18.7267 ,0.73134 ,3.95018 ,38.75920 
101 ,18.9346 ,0.73327 ,3.90912 ,38.35626 
102 ,19.1109 ,0.73513 ,3.91254 ,38.38984 
103 ,19.2869 ,0.73691 ,3.88516 ,38.12122 
104 ,19.4630 ,0.73866 ,3.86805 ,37.95332 
105 ,19.6388 ,0.74041 ,3.86463 ,37.91975 
106 ,19.8149 ,0.74213 ,3.85094 ,37.78543 
107 ,19.9908 ,0.74395 ,3.84067 ,37.68470 
108 ,20.1672 ,0.74570 ,3.82356 ,37.51681 
109 ,20.3593 ,0.74754 ,3.80987 ,37.38249 
110 ,20.5675 ,0.74968 ,3.78934 ,37.18102 
111 ,20.7431 ,0.75144 ,3.76881 ,36.97955 
112 ,20.9355 ,0.75338 ,3.77565 ,37.04671 
113 ,21.1278 ,0.75523 ,3.74485 ,36.74450 
114 ,21.3357 ,0.75733 ,3.73801 ,36.67735 
115 ,21.5278 ,0.75923 ,3.71063 ,36.40872 
116 ,21.7037 ,0.76102 ,3.68325 ,36.14010 
117 ,21.8801 ,0.76287 ,3.68325 ,36.14010 
118 ,22.0721 ,0.76474 ,3.67641 ,36.07294 
119 ,22.2483 ,0.76651 ,3.65930 ,35.90505 
120 ,22.4403 ,0.76844 ,3.64219 ,35.73716 
121 ,22.6323 ,0.77032 ,3.63192 ,35.63642 
122 ,22.8081 ,0.77211 ,3.61481 ,35.46853 
123 ,22.9845 ,0.77386 ,3.59770 ,35.30064 
124 ,23.1765 ,0.77570 ,3.58059 ,35.13275 
125 ,23.3846 ,0.77782 ,3.56006 ,34.93128 
126 ,23.5768 ,0.77981 ,3.54295 ,34.76338 
127 ,23.7529 ,0.78156 ,3.53610 ,34.69623 
128 ,23.9288 ,0.78332 ,3.53610 ,34.69623 
129 ,24.1046 ,0.78504 ,3.49504 ,34.29329 
130 ,24.2810 ,0.78680 ,3.50188 ,34.36045 
131 ,24.4732 ,0.78873 ,3.48819 ,34.22613 
132 ,24.6490 ,0.79048 ,3.47108 ,34.05824 
133 ,24.8413 ,0.79240 ,3.44028 ,33.75604 
134 ,25.0012 ,0.79412 ,3.44028 ,33.75604 
135 ,25.2094 ,0.79593 ,3.43001 ,33.65530 
136 ,25.4014 ,0.79797 ,3.38895 ,33.25236 
137 ,25.5776 ,0.79976 ,3.39237 ,33.28594 
138 ,25.7695 ,0.80171 ,3.38895 ,33.25236 
139 ,25.9456 ,0.80348 ,3.34788 ,32.84942 
140 ,26.3459 ,0.80645 ,3.33419 ,32.71511 
141 ,26.5379 ,0.80940 ,3.31024 ,32.48006 
142 ,26.7140 ,0.81114 ,3.29997 ,32.37933 
143 ,26.8901 ,0.81292 ,3.29997 ,32.37933 
144 ,27.0818 ,0.81482 ,3.25891 ,31.97639 
145 ,27.2583 ,0.81662 ,3.24180 ,31.80849 
146 ,27.4504 ,0.81852 ,3.24864 ,31.87565 
147 ,27.6263 ,0.82033 ,3.22126 ,31.60702 
148 ,27.8025 ,0.82202 ,3.19731 ,31.37198 
149 ,27.9946 ,0.82394 ,3.20415 ,31.43913 
150 ,28.1703 ,0.82569 ,3.19731 ,31.37198 
151 ,28.3467 ,0.82745 ,3.18362 ,31.23766 
152 ,28.5386 ,0.82936 ,3.14940 ,30.90188 
153 ,28.7147 ,0.83108 ,3.15282 ,30.93546 
154 ,28.8908 ,0.83291 ,3.13913 ,30.80115 
155 ,29.0669 ,0.83471 ,3.11860 ,30.59968 
156 ,29.2429 ,0.83642 ,3.09122 ,30.33105 
157 ,29.4349 ,0.83834 ,3.08095 ,30.23031 
158 ,29.6273 ,0.84025 ,3.07753 ,30.19674 
159 ,29.8034 ,0.84203 ,3.06042 ,30.02884 
160 ,29.9952 ,0.84391 ,3.05358 ,29.96169 
161 ,30.1715 ,0.84572 ,3.04673 ,29.89453 
162 ,30.3472 ,0.84745 ,3.02278 ,29.65948 
163 ,30.5237 ,0.84923 ,2.99882 ,29.42444 
164 ,30.7316 ,0.85124 ,2.98855 ,29.32370 
165 ,30.9077 ,0.85303 ,2.97487 ,29.18939 
166 ,31.0840 ,0.85483 ,2.96118 ,29.05507 
167 ,31.2600 ,0.85663 ,2.93722 ,28.82003 
168 ,31.4360 ,0.85831 ,2.94407 ,28.88718 
169 ,31.6122 ,0.86007 ,2.92353 ,28.68571 
170 ,31.8042 ,0.86194 ,2.89958 ,28.45066 
171 ,31.9962 ,0.86388 ,2.90985 ,28.55140 
172 ,32.1883 ,0.86582 ,2.86536 ,28.11488 
173 ,32.3644 ,0.86761 ,2.86878 ,28.14846 
174 ,32.5403 ,0.86943 ,2.85851 ,28.04772 
175 ,32.7325 ,0.87122 ,2.83798 ,27.84625 
176 ,32.9086 ,0.87309 ,2.83114 ,27.77910 
177 ,33.0846 ,0.87480 ,2.80718 ,27.54405 
178 ,33.2610 ,0.87657 ,2.78322 ,27.30900 
179 ,33.4529 ,0.87851 ,2.79691 ,27.44332 
180 ,33.6450 ,0.88039 ,2.76269 ,27.10753 
181 ,33.8369 ,0.88233 ,2.75243 ,27.00680 
182 ,34.0131 ,0.88410 ,2.74900 ,26.97322 
183 ,34.2048 ,0.88596 ,2.71136 ,26.60386 
184 ,34.3813 ,0.88780 ,2.69767 ,26.46954 
185 ,34.5570 ,0.88952 ,2.69767 ,26.46954 
186 ,34.7336 ,0.89131 ,2.69083 ,26.40239 
187 ,34.9252 ,0.89323 ,2.66687 ,26.16734 
188 ,35.1015 ,0.89498 ,2.63949 ,25.89871 
189 ,35.2776 ,0.89673 ,2.63949 ,25.89871 
190 ,35.4696 ,0.89866 ,2.62581 ,25.76440 
191 ,35.6615 ,0.90054 ,2.59501 ,25.46220 
192 ,35.8535 ,0.90239 ,2.60869 ,25.59651 
193 ,36.0296 ,0.90430 ,2.59158 ,25.42862 
194 ,36.2057 ,0.90605 ,2.58474 ,25.36146 
195 ,36.3817 ,0.90775 ,2.55736 ,25.09283 
196 ,36.5578 ,0.90953 ,2.53341 ,24.85779 
197 ,36.7338 ,0.91126 ,2.52998 ,24.82421 
198 ,36.9098 ,0.91310 ,2.53683 ,24.89136 
199 ,37.0700 ,0.91476 ,2.49918 ,24.52200 
200 ,37.2300 ,0.91637 ,2.48892 ,24.42127 
201 ,37.4060 ,0.91803 ,2.47523 ,24.28696 
202 ,37.5821 ,0.91975 ,2.46839 ,24.21980 
203 ,37.7583 ,0.92154 ,2.44443 ,23.98475 
204 ,37.9504 ,0.92339 ,2.43759 ,23.91759 
205 ,38.1264 ,0.92521 ,2.44443 ,23.98475 
206 ,38.3025 ,0.92706 ,2.41021 ,23.64897 
207 ,38.4946 ,0.92881 ,2.40679 ,23.61539 
208 ,38.6705 ,0.93068 ,2.39652 ,23.51465 
209 ,38.8465 ,0.93244 ,2.37941 ,23.34676 
210 ,39.0386 ,0.93428 ,2.34861 ,23.04456 
211 ,39.2147 ,0.93607 ,2.34177 ,22.97740 
212 ,39.3913 ,0.93789 ,2.34861 ,23.04456 
213 ,39.6152 ,0.94001 ,2.31781 ,22.74235 
214 ,39.7914 ,0.94186 ,2.31097 ,22.67520 
215 ,39.9832 ,0.94378 ,2.28359 ,22.40657 
216 ,40.1756 ,0.94565 ,2.27674 ,22.33941 
217 ,40.3678 ,0.94760 ,2.26306 ,22.20510 
218 ,40.5599 ,0.94947 ,2.24594 ,22.03721 
219 ,40.7519 ,0.95143 ,2.23226 ,21.90290 
220 ,40.9437 ,0.95336 ,2.20146 ,21.60069 
221 ,41.1358 ,0.95518 ,2.19803 ,21.56711 
222 ,41.3120 ,0.95707 ,2.20488 ,21.63427 
223 ,41.4881 ,0.95879 ,2.15697 ,21.16417 
224 ,41.6962 ,0.96086 ,2.17408 ,21.33206 
225 ,41.8724 ,0.96270 ,2.15697 ,21.16417 
226 ,42.0644 ,0.96457 ,2.12275 ,20.82839 
227 ,42.2565 ,0.96652 ,2.12617 ,20.86197 
228 ,42.4486 ,0.96837 ,2.10906 ,20.69408 
229 ,42.6405 ,0.97032 ,2.07826 ,20.39187 
230 ,42.8331 ,0.97215 ,2.07826 ,20.39187 
231 ,43.0409 ,0.97429 ,2.05773 ,20.19040 
232 ,43.2325 ,0.97623 ,2.05088 ,20.12325 
233 ,43.4089 ,0.97805 ,2.04404 ,20.05609 
234 ,43.6171 ,0.98002 ,2.01666 ,19.78746 
235 ,43.8091 ,0.98197 ,2.01666 ,19.78746 
236 ,44.0011 ,0.98385 ,2.00639 ,19.68673 
237 ,44.1773 ,0.98572 ,1.97902 ,19.41810 
238 ,44.3853 ,0.98771 ,1.95506 ,19.18305 
239 ,44.5774 ,0.98974 ,1.94822 ,19.11590 
240 ,44.7534 ,0.99146 ,1.94137 ,19.04874 
241 ,44.9297 ,0.99324 ,1.92426 ,18.88085 
242 ,45.1217 ,0.99518 ,1.89346 ,18.57864 
243 ,45.3295 ,0.99707 ,1.88662 ,18.51149 
244 ,45.5058 ,0.99902 ,1.87293 ,18.37717 
245 ,45.7138 ,1.00101 ,1.86266 ,18.27644 
246 ,45.9220 ,1.00305 ,1.84213 ,18.07497 
247 ,46.0981 ,1.00490 ,1.84213 ,18.07497 
248 ,46.2902 ,1.00669 ,1.82844 ,17.94066 
249 ,46.4662 ,1.00860 ,1.80449 ,17.70561 
250 ,46.6419 ,1.01035 ,1.78737 ,17.53772 
251 ,46.8023 ,1.01204 ,1.78395 ,17.50414 
252 ,46.9784 ,1.01373 ,1.77369 ,17.40340 
253 ,47.1545 ,1.01544 ,1.77711 ,17.43698 
254 ,47.3465 ,1.01739 ,1.72920 ,16.96689 
255 ,47.5227 ,1.01927 ,1.74289 ,17.10120 
256 ,47.6987 ,1.02089 ,1.71893 ,16.86615 
257 ,47.8746 ,1.02265 ,1.72235 ,16.89973 
258 ,48.0829 ,1.02469 ,1.69840 ,16.66468 
259 ,48.2750 ,1.02663 ,1.69498 ,16.63110 
260 ,48.4670 ,1.02863 ,1.66418 ,16.32890 
261 ,48.6431 ,1.03042 ,1.67102 ,16.39605 
262 ,48.8672 ,1.03256 ,1.62995 ,15.99311 
263 ,49.0433 ,1.03438 ,1.62653 ,15.95954 
264 ,49.2194 ,1.03613 ,1.61627 ,15.85880 
265 ,49.4113 ,1.03800 ,1.58889 ,15.59018 
266 ,49.6030 ,1.03983 ,1.58889 ,15.59018 
267 ,49.7955 ,1.04177 ,1.57520 ,15.45586 
268 ,49.9876 ,1.04376 ,1.56151 ,15.32155 
269 ,50.1638 ,1.04550 ,1.53756 ,15.08650 
270 ,50.3719 ,1.04759 ,1.55124 ,15.22081 
271 ,50.5799 ,1.04953 ,1.53071 ,15.01934 
272 ,50.7879 ,1.05166 ,1.49649 ,14.68356 
273 ,50.9800 ,1.05365 ,1.49307 ,14.64998 
274 ,51.1560 ,1.05546 ,1.48965 ,14.61640 
275 ,51.3324 ,1.05724 ,1.46911 ,14.41493 
276 ,51.5242 ,1.05910 ,1.44858 ,14.21346 
277 ,51.7002 ,1.06090 ,1.43489 ,14.07915 
278 ,51.8925 ,1.06278 ,1.42462 ,13.97842 
279 ,52.1006 ,1.06479 ,1.40409 ,13.77695 
280 ,52.2766 ,1.06673 ,1.39725 ,13.70979 
281 ,52.4527 ,1.06843 ,1.39725 ,13.70979 
282 ,52.6288 ,1.07021 ,1.36987 ,13.44116 
283 ,52.8204 ,1.07206 ,1.34591 ,13.20612 
284 ,52.9968 ,1.07384 ,1.34934 ,13.23969 
285 ,53.1889 ,1.07572 ,1.35276 ,13.27327 
286 ,53.3971 ,1.07786 ,1.33565 ,13.10538 
287 ,53.5890 ,1.07970 ,1.31169 ,12.87033 
288 ,53.7651 ,1.08154 ,1.28432 ,12.60171 
289 ,53.9730 ,1.08358 ,1.28774 ,12.63528 
290 ,54.1653 ,1.08560 ,1.24325 ,12.19877 
291 ,54.3412 ,1.08732 ,1.24325 ,12.19877 
292 ,54.5335 ,1.08930 ,1.23298 ,12.09803 
293 ,54.7095 ,1.09101 ,1.22956 ,12.06445 
294 ,54.9015 ,1.09286 ,1.20903 ,11.86298 
295 ,55.0938 ,1.09486 ,1.20903 ,11.86298 
296 ,55.3018 ,1.09683 ,1.18507 ,11.62794 
297 ,55.4779 ,1.09869 ,1.17481 ,11.52720 
298 ,55.6700 ,1.10060 ,1.17823 ,11.56078 
299 ,55.8460 ,1.10232 ,1.14401 ,11.22500 
300 ,56.0217 ,1.10413 ,1.13032 ,11.09068 
301 ,56.1982 ,1.10592 ,1.12690 ,11.05710 
302 ,56.3903 ,1.10780 ,1.11321 ,10.92279 
303 ,56.5664 ,1.10951 ,1.09610 ,10.75490 
304 ,56.7584 ,1.11142 ,1.08925 ,10.68774 
305 ,56.9506 ,1.11327 ,1.08241 ,10.62059 
306 ,57.1264 ,1.11513 ,1.05161 ,10.31838 
307 ,57.3187 ,1.11710 ,1.05161 ,10.31838 
308 ,57.5108 ,1.11888 ,1.03108 ,10.11691 
309 ,57.7189 ,1.12090 ,1.01396 ,9.94902 
310 ,57.9109 ,1.12294 ,1.00712 ,9.88186 
311 ,58.1186 ,1.12490 ,0.99343 ,9.74755 
312 ,58.2949 ,1.12684 ,0.99001 ,9.71397 
313 ,58.5031 ,1.12885 ,0.96263 ,9.44535 
314 ,58.6950 ,1.13073 ,0.95579 ,9.37819 
315 ,58.9193 ,1.13296 ,0.93183 ,9.14314 
316 ,59.0953 ,1.13487 ,0.92499 ,9.07598 
317 ,59.2714 ,1.13657 ,0.91814 ,9.00883 
318 ,59.4635 ,1.13850 ,0.88734 ,8.70662 
319 ,59.6394 ,1.14029 ,0.88734 ,8.70662 
320 ,59.8316 ,1.14216 ,0.88050 ,8.63947 
321 ,60.0078 ,1.14392 ,0.85312 ,8.37084 
322 ,60.1839 ,1.14570 ,0.84970 ,8.33726 
323 ,60.3758 ,1.14756 ,0.85312 ,8.37084 
324 ,60.5680 ,1.14946 ,0.82232 ,8.06864 
325 ,60.7598 ,1.15143 ,0.82575 ,8.10221 
326 ,60.9522 ,1.15332 ,0.81206 ,7.96790 
327 ,61.1441 ,1.15527 ,0.78810 ,7.73285 
328 ,61.3358 ,1.15720 ,0.78468 ,7.69927 
329 ,61.5124 ,1.15899 ,0.77441 ,7.59854 
330 ,61.7204 ,1.16097 ,0.76415 ,7.49780 
331 ,61.8965 ,1.16284 ,0.74019 ,7.26276 
332 ,62.1205 ,1.16488 ,0.72992 ,7.16202 
333 ,62.2967 ,1.16680 ,0.71624 ,7.02771 
334 ,62.4888 ,1.16870 ,0.69228 ,6.79266 
335 ,62.6968 ,1.17072 ,0.70597 ,6.92697 
336 ,62.8731 ,1.17257 ,0.68544 ,6.72550 
337 ,63.0970 ,1.17466 ,0.66833 ,6.55761 
338 ,63.2730 ,1.17667 ,0.64437 ,6.32256 
339 ,63.4488 ,1.17827 ,0.65121 ,6.38972 
340 ,63.6250 ,1.18014 ,0.63410 ,6.22183 
341 ,63.8012 ,1.18183 ,0.59988 ,5.88605 
342 ,64.0092 ,1.18377 ,0.59304 ,5.81889 
343 ,64.1854 ,1.18577 ,0.58277 ,5.71815 
344 ,64.3774 ,1.18765 ,0.58277 ,5.71815 
345 ,64.5372 ,1.18932 ,0.56566 ,5.55026 
346 ,64.7136 ,1.19101 ,0.56908 ,5.58384 
347 ,64.9056 ,1.19291 ,0.53486 ,5.24806 
348 ,65.1137 ,1.19489 ,0.54855 ,5.38237 
349 ,65.2899 ,1.19677 ,0.53486 ,5.24806 
350 ,65.4659 ,1.19849 ,0.51091 ,5.01301 
351 ,65.6420 ,1.20022 ,0.48695 ,4.77796 
352 ,65.8343 ,1.20208 ,0.49037 ,4.81154 
353 ,66.0101 ,1.20409 ,0.47668 ,4.67723 
354 ,66.1863 ,1.20570 ,0.46642 ,4.57649 
355 ,66.3623 ,1.20753 ,0.45615 ,4.47576 
356 ,66.5384 ,1.20922 ,0.44588 ,4.37502 
357 ,66.7141 ,1.21098 ,0.44246 ,4.34144 
358 ,66.9226 ,1.21292 ,0.42535 ,4.17355 
359 ,67.1145 ,1.21493 ,0.41166 ,4.03924 
360 ,67.2908 ,1.21674 ,0.39797 ,3.90493 
361 ,67.4666 ,1.21852 ,0.38429 ,3.77061 
362 ,67.6586 ,1.22037 ,0.36375 ,3.56914 
363 ,67.8352 ,1.22219 ,0.35691 ,3.50199 
364 ,68.0589 ,1.22433 ,0.33638 ,3.30052 
365 ,68.2670 ,1.22646 ,0.32953 ,3.23336 
366 ,68.4750 ,1.22844 ,0.32953 ,3.23336 
367 ,68.6671 ,1.23048 ,0.30900 ,3.03189 
368 ,68.8434 ,1.23225 ,0.29189 ,2.86400 
369 ,69.0353 ,1.23411 ,0.29873 ,2.93116 
370 ,69.2116 ,1.23598 ,0.29189 ,2.86400 
371 ,69.4034 ,1.23784 ,0.27478 ,2.69611 
372 ,69.5956 ,1.23984 ,0.25424 ,2.49464 
373 ,69.8034 ,1.24178 ,0.24398 ,2.39390 
374 ,69.9797 ,1.24365 ,0.22344 ,2.19243 
375 ,70.1558 ,1.24536 ,0.21660 ,2.12528 
376 ,70.3325 ,1.24716 ,0.21660 ,2.12528 
377 ,70.5081 ,1.24898 ,0.20633 ,2.02454 
378 ,70.6842 ,1.25064 ,0.17553 ,1.72234 
379 ,70.8759 ,1.25257 ,0.17896 ,1.75592 
380 ,71.0681 ,1.25443 ,0.18238 ,1.78949 
381 ,71.2762 ,1.25654 ,0.15842 ,1.55445 
382 ,71.4683 ,1.25850 ,0.14816 ,1.45371 
383 ,71.6606 ,1.26042 ,0.12762 ,1.25224 
384 ,71.8526 ,1.26226 ,0.14131 ,1.38655 
385 ,72.0443 ,1.26431 ,0.10709 ,1.05077 
386 ,72.2365 ,1.26611 ,0.12420 ,1.21866 
387 ,72.4125 ,1.26793 ,0.11051 ,1.08435 
388 ,72.5885 ,1.26971 ,0.08998 ,0.88288 
389 ,72.7648 ,1.27146 ,0.07971 ,0.78214 
390 ,72.9570 ,1.27336 ,0.06602 ,0.64783 
391 ,73.1649 ,1.27542 ,0.04891 ,0.47994 
392 ,73.3572 ,1.27734 ,0.04207 ,0.41278 
393 ,73.5333 ,1.27915 ,0.03865 ,0.37920 
394 ,73.7094 ,1.28091 ,0.03180 ,0.31205 
395 ,73.8854 ,1.28268 ,0.01127 ,0.11058 
396 ,74.0770 ,1.28460 ,0.00100 ,0.00984 
397 ,74.2856 ,1.28663 ,-0.00926 ,-0.09089 
398 ,74.4939 ,1.28871 ,-0.00242 ,-0.02373 
399 ,74.6698 ,1.29055 ,-0.02295 ,-0.22520 
400 ,74.8459 ,1.29231 ,-0.05033 ,-0.49383 
401 ,75.0380 ,1.29413 ,-0.05033 ,-0.49383 
402 ,75.2137 ,1.29600 ,-0.04006 ,-0.39310 
403 ,75.3902 ,1.29771 ,-0.05717 ,-0.56099 
404 ,75.5660 ,1.29947 ,-0.06060 ,-0.59457 
405 ,75.7422 ,1.30126 ,-0.09140 ,-0.89677 
406 ,75.9341 ,1.30317 ,-0.08797 ,-0.86319 
407 ,76.1103 ,1.30488 ,-0.08797 ,-0.86319 
408 ,76.3344 ,1.30698 ,-0.10508 ,-1.03108 
409 ,76.5267 ,1.30907 ,-0.11193 ,-1.09824 
410 ,76.7186 ,1.31093 ,-0.11535 ,-1.13182 
411 ,76.9108 ,1.31279 ,-0.12562 ,-1.23255 
412 ,77.1025 ,1.31488 ,-0.15299 ,-1.50118 
413 ,77.2787 ,1.31660 ,-0.16668 ,-1.63549 
414 ,77.4710 ,1.31851 ,-0.14957 ,-1.46760 
415 ,77.6631 ,1.32039 ,-0.17353 ,-1.70265 
416 ,77.8711 ,1.32246 ,-0.16668 ,-1.63549 
417 ,78.0633 ,1.32441 ,-0.19748 ,-1.93770 
418 ,78.2552 ,1.32627 ,-0.19064 ,-1.87054 
419 ,78.4471 ,1.32827 ,-0.21117 ,-2.07201 
420 ,78.6234 ,1.33005 ,-0.22486 ,-2.20632 
421 ,78.7992 ,1.33181 ,-0.24197 ,-2.37422 
422 ,78.9754 ,1.33356 ,-0.24881 ,-2.44137 
423 ,79.1676 ,1.33544 ,-0.24881 ,-2.44137 
424 ,79.3436 ,1.33722 ,-0.26935 ,-2.64284 
425 ,79.5355 ,1.33910 ,-0.26935 ,-2.64284 
426 ,79.6958 ,1.34088 ,-0.26935 ,-2.64284 
427 ,79.8720 ,1.34250 ,-0.27961 ,-2.74358 
428 ,80.0798 ,1.34457 ,-0.29330 ,-2.87789 
429 ,80.2722 ,1.34658 ,-0.30015 ,-2.94505 
430 ,80.4797 ,1.34852 ,-0.33437 ,-3.28083 
431 ,80.6559 ,1.35035 ,-0.31041 ,-3.04578 
432 ,80.8323 ,1.35206 ,-0.31726 ,-3.11294 
433 ,81.0246 ,1.35400 ,-0.35490 ,-3.48230 
434 ,81.2165 ,1.35586 ,-0.34806 ,-3.41514 
435 ,81.4084 ,1.35784 ,-0.35148 ,-3.44872 
436 ,81.6001 ,1.35974 ,-0.36859 ,-3.61661 
437 ,81.7766 ,1.36153 ,-0.37544 ,-3.68377 
438 ,81.9688 ,1.36353 ,-0.37544 ,-3.68377 
439 ,82.1446 ,1.36516 ,-0.38912 ,-3.81808 
440 ,82.3367 ,1.36720 ,-0.38228 ,-3.75093 
441 ,82.5128 ,1.36891 ,-0.39939 ,-3.91882 
442 ,82.7210 ,1.37085 ,-0.40966 ,-4.01955 
443 ,82.9129 ,1.37290 ,-0.40966 ,-4.01955 
444 ,83.1048 ,1.37478 ,-0.44730 ,-4.38891 
445 ,83.2970 ,1.37671 ,-0.44046 ,-4.32176 
446 ,83.4893 ,1.37860 ,-0.45414 ,-4.45607 
447 ,83.6811 ,1.38051 ,-0.46783 ,-4.59038 
448 ,83.8575 ,1.38239 ,-0.47468 ,-4.65754 
449 ,84.0335 ,1.38417 ,-0.46441 ,-4.55681 
450 ,84.2095 ,1.38589 ,-0.46783 ,-4.59038 
451 ,84.4016 ,1.38778 ,-0.49179 ,-4.82543 
452 ,84.5774 ,1.38959 ,-0.50890 ,-4.99332 
453 ,84.7374 ,1.39125 ,-0.50548 ,-4.95975 
454 ,84.9137 ,1.39294 ,-0.50548 ,-4.95975 
455 ,85.1060 ,1.39482 ,-0.50890 ,-4.99332 
456 ,85.2981 ,1.39672 ,-0.54312 ,-5.32911 
457 ,85.4902 ,1.39857 ,-0.53628 ,-5.26195 
458 ,85.6822 ,1.40051 ,-0.54997 ,-5.39626 
459 ,85.8901 ,1.40261 ,-0.56365 ,-5.53058 
460 ,86.0662 ,1.40440 ,-0.56708 ,-5.56415 
461 ,86.2584 ,1.40632 ,-0.58077 ,-5.69847 
462 ,86.4663 ,1.40841 ,-0.59788 ,-5.86636 
463 ,86.6426 ,1.41020 ,-0.59788 ,-5.86636 
