Data stamp = , 12-04-2022 11:50:03 695

Calibration Values: 
Slope = , 26.54 , g/V 
Offset Voltage at no contact = , -0.501760 , V 

No , Time , Stage Position ,   Mass , Force 
   ,  (s) ,      (mm)      ,   (g)  , (mN)  

1 ,0.0000 ,0.54935 ,5.43198 ,53.29861 
2 ,0.2159 ,0.54944 ,5.43540 ,53.33219 
3 ,0.4719 ,0.55011 ,5.41829 ,53.16429 
4 ,0.6638 ,0.55129 ,5.42856 ,53.26503 
5 ,0.8402 ,0.55263 ,5.43883 ,53.36576 
6 ,1.0162 ,0.55432 ,5.41145 ,53.09714 
7 ,1.1923 ,0.55600 ,5.43198 ,53.29861 
8 ,1.3683 ,0.55775 ,5.42172 ,53.19787 
9 ,1.5444 ,0.55951 ,5.40803 ,53.06356 
10 ,1.7205 ,0.56133 ,5.40803 ,53.06356 
11 ,1.8965 ,0.56314 ,5.40460 ,53.02998 
12 ,2.0725 ,0.56490 ,5.36696 ,52.66062 
13 ,2.2487 ,0.56662 ,5.36012 ,52.59346 
14 ,2.4090 ,0.56834 ,5.33274 ,52.32484 
15 ,2.5848 ,0.57004 ,5.32247 ,52.22410 
16 ,2.7609 ,0.57171 ,5.32932 ,52.29126 
17 ,2.9214 ,0.57349 ,5.30536 ,52.05621 
18 ,3.0974 ,0.57512 ,5.30536 ,52.05621 
19 ,3.2893 ,0.57705 ,5.26430 ,51.65327 
20 ,3.4655 ,0.57874 ,5.25745 ,51.58611 
21 ,3.6415 ,0.58054 ,5.24718 ,51.48538 
22 ,3.8178 ,0.58234 ,5.24034 ,51.41822 
23 ,4.0097 ,0.58414 ,5.20612 ,51.08244 
24 ,4.1857 ,0.58601 ,5.18901 ,50.91455 
25 ,4.3619 ,0.58776 ,5.18216 ,50.84739 
26 ,4.5379 ,0.58946 ,5.17190 ,50.74666 
27 ,4.7141 ,0.59124 ,5.14794 ,50.51161 
28 ,4.9062 ,0.59315 ,5.12056 ,50.24298 
29 ,5.0822 ,0.59497 ,5.11372 ,50.17583 
30 ,5.2744 ,0.59681 ,5.10345 ,50.07509 
31 ,5.4818 ,0.59888 ,5.07950 ,49.84004 
32 ,5.6583 ,0.60070 ,5.07950 ,49.84004 
33 ,5.8504 ,0.60251 ,5.04870 ,49.53784 
34 ,6.0265 ,0.60436 ,5.02132 ,49.26921 
35 ,6.2182 ,0.60627 ,5.02132 ,49.26921 
36 ,6.3946 ,0.60808 ,4.99737 ,49.03416 
37 ,6.6027 ,0.61012 ,4.98368 ,48.89985 
38 ,6.7789 ,0.61194 ,4.96999 ,48.76554 
39 ,6.9709 ,0.61379 ,4.93577 ,48.42975 
40 ,7.1469 ,0.61566 ,4.93235 ,48.39618 
41 ,7.3388 ,0.61748 ,4.91181 ,48.19471 
42 ,7.5150 ,0.61924 ,4.89812 ,48.06039 
43 ,7.7071 ,0.62111 ,4.86390 ,47.72461 
44 ,7.8832 ,0.62292 ,4.86732 ,47.75819 
45 ,8.0753 ,0.62484 ,4.85364 ,47.62387 
46 ,8.2673 ,0.62668 ,4.81257 ,47.22093 
47 ,8.4434 ,0.62864 ,4.82284 ,47.32167 
48 ,8.6516 ,0.63063 ,4.78519 ,46.95231 
49 ,8.8433 ,0.63259 ,4.78177 ,46.91873 
50 ,9.0197 ,0.63434 ,4.76808 ,46.78442 
51 ,9.2119 ,0.63624 ,4.74413 ,46.54937 
52 ,9.4036 ,0.63813 ,4.74755 ,46.58295 
53 ,9.5800 ,0.63993 ,4.71675 ,46.28074 
54 ,9.7879 ,0.64194 ,4.70306 ,46.14643 
55 ,9.9801 ,0.64393 ,4.68595 ,45.97854 
56 ,10.1558 ,0.64567 ,4.67226 ,45.84422 
57 ,10.3323 ,0.64743 ,4.64146 ,45.54202 
58 ,10.5241 ,0.64933 ,4.63462 ,45.47486 
59 ,10.7163 ,0.65132 ,4.61408 ,45.27339 
60 ,10.9085 ,0.65315 ,4.59013 ,45.03835 
61 ,11.0846 ,0.65497 ,4.57986 ,44.93761 
62 ,11.2606 ,0.65672 ,4.58671 ,45.00477 
63 ,11.4367 ,0.65842 ,4.56617 ,44.80330 
64 ,11.6608 ,0.66067 ,4.54222 ,44.56825 
65 ,11.8688 ,0.66266 ,4.49773 ,44.13173 
66 ,12.0451 ,0.66454 ,4.51142 ,44.26604 
67 ,12.2368 ,0.66645 ,4.49089 ,44.06457 
68 ,12.4135 ,0.66823 ,4.46693 ,43.82953 
69 ,12.6049 ,0.67016 ,4.45666 ,43.72879 
70 ,12.7812 ,0.67195 ,4.43955 ,43.56090 
71 ,12.9893 ,0.67392 ,4.41218 ,43.29227 
72 ,13.1814 ,0.67584 ,4.39849 ,43.15796 
73 ,13.3893 ,0.67788 ,4.37453 ,42.92291 
74 ,13.5654 ,0.67975 ,4.36084 ,42.78860 
75 ,13.7416 ,0.68157 ,4.33689 ,42.55355 
76 ,13.9175 ,0.68323 ,4.33347 ,42.51997 
77 ,14.1098 ,0.68518 ,4.31293 ,42.31850 
78 ,14.3018 ,0.68711 ,4.30609 ,42.25135 
79 ,14.4935 ,0.68899 ,4.28898 ,42.08345 
80 ,14.6700 ,0.69081 ,4.26502 ,41.84841 
81 ,14.8781 ,0.69278 ,4.25476 ,41.74767 
82 ,15.0862 ,0.69488 ,4.24791 ,41.68051 
83 ,15.2622 ,0.69673 ,4.22738 ,41.47905 
84 ,15.4703 ,0.69868 ,4.19658 ,41.17684 
85 ,15.6623 ,0.70065 ,4.19316 ,41.14326 
86 ,15.8379 ,0.70250 ,4.17262 ,40.94179 
87 ,16.0144 ,0.70425 ,4.13498 ,40.57243 
88 ,16.2065 ,0.70607 ,4.13156 ,40.53885 
89 ,16.3985 ,0.70808 ,4.13498 ,40.57243 
90 ,16.5747 ,0.70984 ,4.10760 ,40.30380 
91 ,16.7666 ,0.71167 ,4.09734 ,40.20307 
92 ,16.9427 ,0.71362 ,4.06996 ,39.93444 
93 ,17.1188 ,0.71530 ,4.07680 ,40.00160 
94 ,17.2949 ,0.71700 ,4.03916 ,39.63224 
95 ,17.4709 ,0.71876 ,4.02889 ,39.53150 
96 ,17.6631 ,0.72069 ,4.02205 ,39.46435 
97 ,17.8712 ,0.72274 ,3.99467 ,39.19572 
98 ,18.0470 ,0.72452 ,3.97072 ,38.96067 
99 ,18.2233 ,0.72627 ,3.98441 ,39.09499 
100 ,18.4159 ,0.72818 ,3.93307 ,38.59131 
101 ,18.6075 ,0.73016 ,3.95018 ,38.75920 
102 ,18.7835 ,0.73193 ,3.92623 ,38.52415 
103 ,18.9753 ,0.73379 ,3.90227 ,38.28911 
104 ,19.1518 ,0.73560 ,3.87490 ,38.02048 
105 ,19.3599 ,0.73771 ,3.89201 ,38.18837 
106 ,19.5838 ,0.73975 ,3.86121 ,37.88617 
107 ,19.7600 ,0.74166 ,3.87832 ,38.05406 
108 ,19.9521 ,0.74356 ,3.82699 ,37.55038 
109 ,20.1441 ,0.74550 ,3.82014 ,37.48323 
110 ,20.3361 ,0.74741 ,3.80645 ,37.34891 
111 ,20.5123 ,0.74918 ,3.78934 ,37.18102 
112 ,20.7204 ,0.75111 ,3.76881 ,36.97955 
113 ,20.8962 ,0.75303 ,3.75170 ,36.81166 
114 ,21.1043 ,0.75509 ,3.73801 ,36.67735 
115 ,21.3127 ,0.75704 ,3.72090 ,36.50946 
116 ,21.5047 ,0.75911 ,3.71748 ,36.47588 
117 ,21.6808 ,0.76090 ,3.70721 ,36.37514 
118 ,21.8888 ,0.76291 ,3.67983 ,36.10652 
119 ,22.0968 ,0.76494 ,3.66272 ,35.93863 
120 ,22.2729 ,0.76676 ,3.63192 ,35.63642 
121 ,22.4651 ,0.76864 ,3.64219 ,35.73716 
122 ,22.6412 ,0.77049 ,3.61139 ,35.43495 
123 ,22.8172 ,0.77234 ,3.59428 ,35.26706 
124 ,23.0094 ,0.77406 ,3.58059 ,35.13275 
125 ,23.2013 ,0.77605 ,3.57375 ,35.06559 
126 ,23.3775 ,0.77784 ,3.57375 ,35.06559 
127 ,23.5694 ,0.77973 ,3.52926 ,34.62907 
128 ,23.7457 ,0.78153 ,3.53610 ,34.69623 
129 ,23.9376 ,0.78336 ,3.50530 ,34.39402 
130 ,24.1138 ,0.78519 ,3.48477 ,34.19255 
131 ,24.2895 ,0.78693 ,3.48477 ,34.19255 
132 ,24.4658 ,0.78868 ,3.47792 ,34.12540 
133 ,24.6899 ,0.79078 ,3.45055 ,33.85677 
134 ,24.8659 ,0.79271 ,3.44370 ,33.78961 
135 ,25.0421 ,0.79447 ,3.43686 ,33.72246 
136 ,25.2181 ,0.79620 ,3.40948 ,33.45383 
137 ,25.3939 ,0.79800 ,3.39921 ,33.35310 
138 ,25.5704 ,0.79979 ,3.37526 ,33.11805 
139 ,25.7624 ,0.80168 ,3.37526 ,33.11805 
140 ,25.9385 ,0.80340 ,3.37526 ,33.11805 
141 ,26.1148 ,0.80518 ,3.33419 ,32.71511 
142 ,26.3066 ,0.80709 ,3.33077 ,32.68153 
143 ,26.4823 ,0.80893 ,3.31708 ,32.54722 
144 ,26.6748 ,0.81077 ,3.29313 ,32.31217 
145 ,26.8829 ,0.81282 ,3.29655 ,32.34575 
146 ,27.0750 ,0.81479 ,3.25891 ,31.97639 
147 ,27.2510 ,0.81660 ,3.25548 ,31.94281 
148 ,27.4270 ,0.81829 ,3.25206 ,31.90923 
149 ,27.6191 ,0.82011 ,3.22468 ,31.64060 
150 ,27.8114 ,0.82212 ,3.21442 ,31.53987 
151 ,28.0032 ,0.82400 ,3.21100 ,31.50629 
152 ,28.1792 ,0.82584 ,3.18704 ,31.27124 
153 ,28.3716 ,0.82767 ,3.18704 ,31.27124 
154 ,28.5793 ,0.82967 ,3.16651 ,31.06977 
155 ,28.7554 ,0.83162 ,3.14255 ,30.83472 
156 ,28.9478 ,0.83347 ,3.12886 ,30.70041 
157 ,29.1398 ,0.83546 ,3.11175 ,30.53252 
158 ,29.3318 ,0.83721 ,3.09464 ,30.36463 
159 ,29.5400 ,0.83928 ,3.09464 ,30.36463 
160 ,29.7157 ,0.84120 ,3.06042 ,30.02884 
161 ,29.8919 ,0.84296 ,3.04331 ,29.86095 
162 ,30.0681 ,0.84474 ,3.04673 ,29.89453 
163 ,30.2602 ,0.84652 ,3.03647 ,29.79380 
164 ,30.4844 ,0.84872 ,3.00224 ,29.45801 
165 ,30.6763 ,0.85072 ,2.98171 ,29.25654 
166 ,30.8846 ,0.85279 ,2.99198 ,29.35728 
167 ,31.0926 ,0.85490 ,2.96460 ,29.08865 
168 ,31.2686 ,0.85677 ,2.94749 ,28.92076 
169 ,31.4766 ,0.85865 ,2.94064 ,28.85360 
170 ,31.7008 ,0.86085 ,2.91669 ,28.61856 
171 ,31.9088 ,0.86298 ,2.89958 ,28.45066 
172 ,32.1008 ,0.86499 ,2.89616 ,28.41709 
173 ,32.3091 ,0.86704 ,2.87905 ,28.24919 
174 ,32.4851 ,0.86886 ,2.85167 ,27.98057 
175 ,32.6931 ,0.87090 ,2.82771 ,27.74552 
176 ,32.8849 ,0.87286 ,2.82771 ,27.74552 
177 ,33.0773 ,0.87483 ,2.82087 ,27.67836 
178 ,33.2693 ,0.87668 ,2.80718 ,27.54405 
179 ,33.4453 ,0.87844 ,2.78665 ,27.34258 
180 ,33.6215 ,0.88022 ,2.78665 ,27.34258 
181 ,33.7974 ,0.88195 ,2.76611 ,27.14111 
182 ,33.9733 ,0.88372 ,2.73189 ,26.80533 
183 ,34.1494 ,0.88552 ,2.72847 ,26.77175 
184 ,34.3258 ,0.88726 ,2.72847 ,26.77175 
185 ,34.5019 ,0.88901 ,2.71820 ,26.67101 
186 ,34.6616 ,0.89074 ,2.69425 ,26.43597 
187 ,34.8380 ,0.89240 ,2.69083 ,26.40239 
188 ,35.0457 ,0.89444 ,2.67029 ,26.20092 
189 ,35.2220 ,0.89624 ,2.66345 ,26.13376 
190 ,35.3982 ,0.89794 ,2.63949 ,25.89871 
191 ,35.5743 ,0.89978 ,2.61554 ,25.66367 
192 ,35.7504 ,0.90151 ,2.59158 ,25.42862 
193 ,35.9264 ,0.90326 ,2.59501 ,25.46220 
194 ,36.1183 ,0.90514 ,2.60185 ,25.52935 
195 ,36.2946 ,0.90694 ,2.57105 ,25.22715 
196 ,36.4866 ,0.90886 ,2.53683 ,24.89136 
197 ,36.6787 ,0.91077 ,2.54025 ,24.92494 
198 ,36.8547 ,0.91250 ,2.51972 ,24.72347 
199 ,37.0309 ,0.91430 ,2.49918 ,24.52200 
200 ,37.2067 ,0.91610 ,2.48550 ,24.38769 
201 ,37.3991 ,0.91790 ,2.49234 ,24.45485 
202 ,37.6070 ,0.92002 ,2.48207 ,24.35411 
203 ,37.7832 ,0.92183 ,2.46496 ,24.18622 
204 ,37.9593 ,0.92361 ,2.45127 ,24.05191 
205 ,38.1514 ,0.92546 ,2.41705 ,23.71612 
206 ,38.3273 ,0.92727 ,2.39994 ,23.54823 
207 ,38.5036 ,0.92906 ,2.41705 ,23.71612 
208 ,38.7275 ,0.93122 ,2.38625 ,23.41392 
209 ,38.9037 ,0.93304 ,2.37941 ,23.34676 
210 ,39.0957 ,0.93491 ,2.35203 ,23.07814 
211 ,39.2877 ,0.93679 ,2.34519 ,23.01098 
212 ,39.4638 ,0.93870 ,2.33150 ,22.87667 
213 ,39.6560 ,0.94053 ,2.32465 ,22.80951 
214 ,39.8480 ,0.94247 ,2.30070 ,22.57446 
215 ,40.0400 ,0.94437 ,2.29728 ,22.54088 
216 ,40.2162 ,0.94613 ,2.27332 ,22.30584 
217 ,40.4079 ,0.94813 ,2.27674 ,22.33941 
218 ,40.6004 ,0.94989 ,2.24937 ,22.07079 
219 ,40.7760 ,0.95174 ,2.23910 ,21.97005 
220 ,40.9526 ,0.95347 ,2.20488 ,21.63427 
221 ,41.1447 ,0.95537 ,2.21172 ,21.70143 
222 ,41.3206 ,0.95722 ,2.19461 ,21.53353 
223 ,41.4802 ,0.95891 ,2.18777 ,21.46638 
224 ,41.6728 ,0.96060 ,2.17066 ,21.29849 
225 ,41.8809 ,0.96272 ,2.14670 ,21.06344 
226 ,42.0728 ,0.96471 ,2.13301 ,20.92912 
227 ,42.2488 ,0.96643 ,2.11590 ,20.76123 
228 ,42.4411 ,0.96840 ,2.10906 ,20.69408 
229 ,42.6169 ,0.97021 ,2.08852 ,20.49261 
230 ,42.8088 ,0.97200 ,2.08168 ,20.42545 
231 ,42.9852 ,0.97382 ,2.06115 ,20.22398 
232 ,43.1772 ,0.97570 ,2.06115 ,20.22398 
233 ,43.3532 ,0.97751 ,2.03035 ,19.92178 
234 ,43.5294 ,0.97924 ,2.02008 ,19.82104 
235 ,43.7375 ,0.98128 ,2.02008 ,19.82104 
236 ,43.9457 ,0.98335 ,2.00297 ,19.65315 
237 ,44.1377 ,0.98537 ,1.99270 ,19.55241 
238 ,44.3140 ,0.98713 ,1.96533 ,19.28379 
239 ,44.5218 ,0.98900 ,1.95164 ,19.14948 
240 ,44.7141 ,0.99105 ,1.94479 ,19.08232 
241 ,44.8901 ,0.99290 ,1.93111 ,18.94801 
242 ,45.0821 ,0.99478 ,1.92426 ,18.88085 
243 ,45.2582 ,0.99650 ,1.91399 ,18.78011 
244 ,45.4503 ,0.99847 ,1.88319 ,18.47791 
245 ,45.6263 ,1.00019 ,1.88319 ,18.47791 
246 ,45.8182 ,1.00211 ,1.86951 ,18.34360 
247 ,46.0106 ,1.00410 ,1.84897 ,18.14213 
248 ,46.2025 ,1.00602 ,1.84555 ,18.10855 
249 ,46.4113 ,1.00794 ,1.82160 ,17.87350 
250 ,46.6187 ,1.01010 ,1.81133 ,17.77276 
251 ,46.8104 ,1.01200 ,1.79422 ,17.60487 
252 ,46.9868 ,1.01382 ,1.77711 ,17.43698 
253 ,47.1791 ,1.01574 ,1.76684 ,17.33625 
254 ,47.3550 ,1.01758 ,1.74289 ,17.10120 
255 ,47.5310 ,1.01928 ,1.74289 ,17.10120 
256 ,47.7232 ,1.02111 ,1.73604 ,17.03404 
257 ,47.8833 ,1.02287 ,1.72235 ,16.89973 
258 ,48.0754 ,1.02472 ,1.71893 ,16.86615 
259 ,48.2674 ,1.02661 ,1.68471 ,16.53037 
260 ,48.4754 ,1.02857 ,1.67786 ,16.46321 
261 ,48.6516 ,1.03051 ,1.65733 ,16.26174 
262 ,48.8593 ,1.03242 ,1.64364 ,16.12743 
263 ,49.0358 ,1.03430 ,1.64364 ,16.12743 
264 ,49.2278 ,1.03619 ,1.61627 ,15.85880 
265 ,49.4200 ,1.03803 ,1.60600 ,15.75807 
266 ,49.6117 ,1.04002 ,1.59573 ,15.65733 
267 ,49.7881 ,1.04183 ,1.58204 ,15.52302 
268 ,49.9638 ,1.04365 ,1.57520 ,15.45586 
269 ,50.1402 ,1.04537 ,1.57178 ,15.42228 
270 ,50.3320 ,1.04722 ,1.53413 ,15.05292 
271 ,50.5084 ,1.04906 ,1.52729 ,14.98577 
272 ,50.6844 ,1.05080 ,1.51702 ,14.88503 
273 ,50.8925 ,1.05281 ,1.49991 ,14.71714 
274 ,51.1004 ,1.05479 ,1.49307 ,14.64998 
275 ,51.2766 ,1.05671 ,1.48280 ,14.54925 
276 ,51.4527 ,1.05851 ,1.46911 ,14.41493 
277 ,51.6288 ,1.06017 ,1.44516 ,14.17989 
278 ,51.8209 ,1.06214 ,1.44858 ,14.21346 
279 ,52.0129 ,1.06403 ,1.42462 ,13.97842 
280 ,52.1890 ,1.06584 ,1.40751 ,13.81053 
281 ,52.3967 ,1.06782 ,1.39725 ,13.70979 
282 ,52.5732 ,1.06966 ,1.39040 ,13.64263 
283 ,52.7493 ,1.07148 ,1.37671 ,13.50832 
284 ,52.9413 ,1.07334 ,1.35960 ,13.34043 
285 ,53.1171 ,1.07509 ,1.37329 ,13.47474 
286 ,53.2935 ,1.07687 ,1.34934 ,13.23969 
287 ,53.4855 ,1.07874 ,1.33223 ,13.07180 
288 ,53.6616 ,1.08056 ,1.31169 ,12.87033 
289 ,53.8376 ,1.08235 ,1.31169 ,12.87033 
290 ,54.0137 ,1.08407 ,1.29116 ,12.66886 
291 ,54.1896 ,1.08585 ,1.26378 ,12.40024 
292 ,54.3819 ,1.08772 ,1.27747 ,12.53455 
293 ,54.5897 ,1.08974 ,1.25009 ,12.26592 
294 ,54.7820 ,1.09169 ,1.25009 ,12.26592 
295 ,54.9580 ,1.09349 ,1.23641 ,12.13161 
296 ,55.1660 ,1.09550 ,1.21587 ,11.93014 
297 ,55.3422 ,1.09732 ,1.20218 ,11.79583 
298 ,55.5183 ,1.09911 ,1.20903 ,11.86298 
299 ,55.6944 ,1.10085 ,1.18165 ,11.59436 
300 ,55.8865 ,1.10271 ,1.16454 ,11.42647 
301 ,56.0626 ,1.10455 ,1.15427 ,11.32573 
302 ,56.2223 ,1.10626 ,1.15427 ,11.32573 
303 ,56.3984 ,1.10792 ,1.12690 ,11.05710 
304 ,56.5742 ,1.10964 ,1.11321 ,10.92279 
305 ,56.7667 ,1.11150 ,1.11663 ,10.95637 
306 ,56.9749 ,1.11362 ,1.08925 ,10.68774 
307 ,57.1511 ,1.11542 ,1.08925 ,10.68774 
308 ,57.3591 ,1.11744 ,1.06872 ,10.48627 
309 ,57.5672 ,1.11949 ,1.05503 ,10.35196 
310 ,57.7592 ,1.12155 ,1.03792 ,10.18407 
311 ,57.9354 ,1.12325 ,1.03450 ,10.15049 
312 ,58.1116 ,1.12503 ,0.99685 ,9.78113 
313 ,58.3197 ,1.12703 ,1.00028 ,9.81471 
314 ,58.5116 ,1.12902 ,0.99001 ,9.71397 
315 ,58.6876 ,1.13074 ,0.96263 ,9.44535 
316 ,58.8797 ,1.13264 ,0.96605 ,9.47892 
317 ,59.0718 ,1.13466 ,0.95921 ,9.41177 
318 ,59.2476 ,1.13638 ,0.92157 ,9.04241 
319 ,59.4400 ,1.13835 ,0.93868 ,9.21030 
320 ,59.6480 ,1.14041 ,0.89077 ,8.74020 
321 ,59.8397 ,1.14230 ,0.89761 ,8.80736 
322 ,60.0157 ,1.14404 ,0.89761 ,8.80736 
323 ,60.1918 ,1.14583 ,0.87023 ,8.53873 
324 ,60.3840 ,1.14778 ,0.84970 ,8.33726 
325 ,60.5761 ,1.14963 ,0.85654 ,8.40442 
326 ,60.7683 ,1.15150 ,0.84970 ,8.33726 
327 ,60.9605 ,1.15350 ,0.82917 ,8.13579 
328 ,61.1365 ,1.15529 ,0.80863 ,7.93432 
329 ,61.3288 ,1.15715 ,0.78126 ,7.66570 
330 ,61.5206 ,1.15903 ,0.79152 ,7.76643 
331 ,61.7128 ,1.16102 ,0.77784 ,7.63212 
332 ,61.8888 ,1.16281 ,0.76757 ,7.53138 
333 ,62.0651 ,1.16454 ,0.74704 ,7.32991 
334 ,62.2571 ,1.16641 ,0.74704 ,7.32991 
335 ,62.4491 ,1.16835 ,0.70939 ,6.96055 
336 ,62.6251 ,1.17013 ,0.69913 ,6.85982 
337 ,62.7852 ,1.17185 ,0.69913 ,6.85982 
338 ,62.9773 ,1.17358 ,0.68201 ,6.69193 
339 ,63.1695 ,1.17550 ,0.68201 ,6.69193 
340 ,63.3773 ,1.17756 ,0.65121 ,6.38972 
341 ,63.5696 ,1.17950 ,0.66148 ,6.49046 
342 ,63.7613 ,1.18152 ,0.62726 ,6.15467 
343 ,63.9377 ,1.18329 ,0.63410 ,6.22183 
344 ,64.1137 ,1.18504 ,0.62726 ,6.15467 
345 ,64.2898 ,1.18676 ,0.61699 ,6.05394 
346 ,64.4820 ,1.18865 ,0.58962 ,5.78531 
347 ,64.6579 ,1.19050 ,0.58619 ,5.75173 
348 ,64.8337 ,1.19218 ,0.57593 ,5.65100 
349 ,65.0099 ,1.19403 ,0.55197 ,5.41595 
350 ,65.2021 ,1.19588 ,0.53144 ,5.21448 
351 ,65.3622 ,1.19762 ,0.54513 ,5.34879 
352 ,65.5543 ,1.19936 ,0.52459 ,5.14732 
353 ,65.7463 ,1.20135 ,0.50406 ,4.94585 
354 ,65.9382 ,1.20327 ,0.50406 ,4.94585 
355 ,66.1146 ,1.20509 ,0.49380 ,4.84512 
356 ,66.2906 ,1.20680 ,0.47668 ,4.67723 
357 ,66.4666 ,1.20852 ,0.45957 ,4.50934 
358 ,66.6588 ,1.21049 ,0.44588 ,4.37502 
359 ,66.8349 ,1.21219 ,0.44246 ,4.34144 
360 ,67.0266 ,1.21409 ,0.41851 ,4.10640 
361 ,67.2191 ,1.21598 ,0.40824 ,4.00566 
362 ,67.4271 ,1.21808 ,0.39113 ,3.83777 
363 ,67.6193 ,1.22005 ,0.38771 ,3.80419 
364 ,67.8111 ,1.22190 ,0.38771 ,3.80419 
365 ,67.9873 ,1.22379 ,0.36033 ,3.53557 
366 ,68.1794 ,1.22570 ,0.36033 ,3.53557 
367 ,68.3714 ,1.22760 ,0.35349 ,3.46841 
368 ,68.5315 ,1.22930 ,0.32953 ,3.23336 
369 ,68.7076 ,1.23095 ,0.32611 ,3.19978 
370 ,68.9155 ,1.23295 ,0.32953 ,3.23336 
371 ,69.0918 ,1.23480 ,0.31242 ,3.06547 
372 ,69.2838 ,1.23663 ,0.28162 ,2.76326 
373 ,69.4917 ,1.23872 ,0.28847 ,2.83042 
374 ,69.6840 ,1.24064 ,0.26451 ,2.59537 
375 ,69.8600 ,1.24245 ,0.25424 ,2.49464 
376 ,70.0360 ,1.24423 ,0.25767 ,2.52822 
377 ,70.2279 ,1.24604 ,0.25767 ,2.52822 
378 ,70.4042 ,1.24790 ,0.22002 ,2.15885 
379 ,70.5964 ,1.24981 ,0.21660 ,2.12528 
380 ,70.7884 ,1.25178 ,0.20633 ,2.02454 
381 ,70.9807 ,1.25367 ,0.19264 ,1.89023 
382 ,71.2045 ,1.25579 ,0.18238 ,1.78949 
383 ,71.3808 ,1.25764 ,0.18922 ,1.85665 
384 ,71.5567 ,1.25940 ,0.16869 ,1.65518 
385 ,71.7489 ,1.26133 ,0.16869 ,1.65518 
386 ,71.9567 ,1.26338 ,0.15158 ,1.48729 
387 ,72.1331 ,1.26519 ,0.12762 ,1.25224 
388 ,72.3249 ,1.26707 ,0.13105 ,1.28582 
389 ,72.5012 ,1.26889 ,0.11051 ,1.08435 
390 ,72.7092 ,1.27089 ,0.09682 ,0.95004 
391 ,72.9014 ,1.27283 ,0.09682 ,0.95004 
392 ,73.0934 ,1.27473 ,0.09682 ,0.95004 
393 ,73.2856 ,1.27667 ,0.05918 ,0.58067 
394 ,73.4612 ,1.27851 ,0.05576 ,0.54710 
395 ,73.6374 ,1.28022 ,0.05918 ,0.58067 
396 ,73.8296 ,1.28214 ,0.03865 ,0.37920 
397 ,74.0057 ,1.28390 ,0.03180 ,0.31205 
398 ,74.1979 ,1.28581 ,0.02154 ,0.21131 
399 ,74.3898 ,1.28772 ,0.02496 ,0.24489 
400 ,74.5814 ,1.28960 ,-0.00242 ,-0.02373 
401 ,74.7577 ,1.29141 ,0.00100 ,0.00984 
402 ,74.9336 ,1.29326 ,-0.00242 ,-0.02373 
403 ,75.1097 ,1.29494 ,-0.02637 ,-0.25878 
404 ,75.3020 ,1.29683 ,-0.02980 ,-0.29236 
405 ,75.4943 ,1.29881 ,-0.03322 ,-0.32594 
406 ,75.6860 ,1.30068 ,-0.05033 ,-0.49383 
407 ,75.8784 ,1.30257 ,-0.07086 ,-0.69530 
408 ,76.0544 ,1.30440 ,-0.07428 ,-0.72888 
409 ,76.2464 ,1.30620 ,-0.08455 ,-0.82961 
410 ,76.4227 ,1.30805 ,-0.09824 ,-0.96393 
411 ,76.5986 ,1.30979 ,-0.11535 ,-1.13182 
412 ,76.7907 ,1.31171 ,-0.10508 ,-1.03108 
413 ,76.9988 ,1.31377 ,-0.11193 ,-1.09824 
414 ,77.1750 ,1.31560 ,-0.12562 ,-1.23255 
415 ,77.3507 ,1.31741 ,-0.13931 ,-1.36687 
416 ,77.5269 ,1.31912 ,-0.13931 ,-1.36687 
417 ,77.9753 ,1.32225 ,-0.13931 ,-1.36687 
418 ,78.1673 ,1.32546 ,-0.17695 ,-1.73623 
419 ,78.3435 ,1.32724 ,-0.19748 ,-1.93770 
420 ,78.5356 ,1.32910 ,-0.18379 ,-1.80338 
421 ,78.7271 ,1.33108 ,-0.20433 ,-2.00485 
422 ,78.9033 ,1.33288 ,-0.21117 ,-2.07201 
423 ,79.0954 ,1.33476 ,-0.22486 ,-2.20632 
424 ,79.2876 ,1.33665 ,-0.23855 ,-2.34064 
425 ,79.4639 ,1.33849 ,-0.24539 ,-2.40779 
426 ,79.6717 ,1.34049 ,-0.24197 ,-2.37422 
427 ,79.8636 ,1.34247 ,-0.26250 ,-2.57569 
428 ,80.0399 ,1.34427 ,-0.27961 ,-2.74358 
429 ,80.2321 ,1.34613 ,-0.26250 ,-2.57569 
430 ,80.4240 ,1.34802 ,-0.29673 ,-2.91147 
431 ,80.6001 ,1.34984 ,-0.30699 ,-3.01220 
432 ,80.8083 ,1.35188 ,-0.29330 ,-2.87789 
433 ,81.0004 ,1.35381 ,-0.32752 ,-3.21367 
434 ,81.1765 ,1.35557 ,-0.31726 ,-3.11294 
435 ,81.3526 ,1.35736 ,-0.32752 ,-3.21367 
436 ,81.5287 ,1.35911 ,-0.33779 ,-3.31441 
437 ,81.7209 ,1.36101 ,-0.36175 ,-3.54946 
438 ,81.9133 ,1.36290 ,-0.34464 ,-3.38156 
439 ,82.0889 ,1.36475 ,-0.37201 ,-3.65019 
440 ,82.2810 ,1.36666 ,-0.39255 ,-3.85166 
441 ,82.4567 ,1.36837 ,-0.38570 ,-3.78450 
442 ,82.6492 ,1.37023 ,-0.38228 ,-3.75093 
443 ,82.8409 ,1.37216 ,-0.39255 ,-3.85166 
444 ,83.0172 ,1.37401 ,-0.41992 ,-4.12029 
445 ,83.2094 ,1.37586 ,-0.40966 ,-4.01955 
446 ,83.3854 ,1.37771 ,-0.43361 ,-4.25460 
447 ,83.5612 ,1.37946 ,-0.43703 ,-4.28818 
448 ,83.7535 ,1.38122 ,-0.44730 ,-4.38891 
449 ,83.9617 ,1.38337 ,-0.45757 ,-4.48965 
450 ,84.1537 ,1.38532 ,-0.46783 ,-4.59038 
451 ,84.3298 ,1.38707 ,-0.46783 ,-4.59038 
452 ,84.5379 ,1.38911 ,-0.47810 ,-4.69112 
453 ,84.7299 ,1.39105 ,-0.48152 ,-4.72470 
454 ,84.9061 ,1.39287 ,-0.49521 ,-4.85901 
455 ,85.0820 ,1.39463 ,-0.51574 ,-5.06048 
456 ,85.2741 ,1.39656 ,-0.49863 ,-4.89259 
457 ,85.4823 ,1.39850 ,-0.52601 ,-5.16121 
458 ,85.6903 ,1.40051 ,-0.52943 ,-5.19479 
459 ,85.8663 ,1.40242 ,-0.52601 ,-5.16121 
460 ,86.0586 ,1.40434 ,-0.54997 ,-5.39626 
461 ,86.2503 ,1.40622 ,-0.53970 ,-5.29553 
462 ,86.4426 ,1.40817 ,-0.57392 ,-5.63131 
463 ,86.6184 ,1.41007 ,-0.56708 ,-5.56415 
464 ,86.8110 ,1.41195 ,-0.57392 ,-5.63131 
