Data stamp = , 11-04-2022 23:37:32 309

Calibration Values: 
Slope = , 26.54 , g/V 
Offset Voltage at no contact = , -0.501760 , V 

No , Time , Stage Position ,   Mass , Force 
   ,  (s) ,      (mm)      ,   (g)  , (mN)  

1 ,0.0000 ,0.59943 ,5.03501 ,49.40352 
2 ,0.2149 ,0.59951 ,5.05212 ,49.57142 
3 ,0.5355 ,0.60032 ,5.03843 ,49.43710 
4 ,0.7435 ,0.60177 ,5.03843 ,49.43710 
5 ,0.9357 ,0.60352 ,5.03159 ,49.36995 
6 ,1.1278 ,0.60535 ,5.03159 ,49.36995 
7 ,1.3358 ,0.60745 ,5.05212 ,49.57142 
8 ,1.5277 ,0.60933 ,5.04528 ,49.50426 
9 ,1.7196 ,0.61134 ,5.03843 ,49.43710 
10 ,1.8960 ,0.61314 ,5.01448 ,49.20205 
11 ,2.1040 ,0.61519 ,4.99394 ,49.00058 
12 ,2.2802 ,0.61698 ,4.98710 ,48.93343 
13 ,2.4721 ,0.61901 ,4.95972 ,48.66480 
14 ,2.6479 ,0.62067 ,4.95288 ,48.59764 
15 ,2.8244 ,0.62242 ,4.94261 ,48.49691 
16 ,3.0164 ,0.62429 ,4.91523 ,48.22828 
17 ,3.2084 ,0.62618 ,4.89812 ,48.06039 
18 ,3.4167 ,0.62825 ,4.87759 ,47.85892 
19 ,3.6087 ,0.63019 ,4.87075 ,47.79177 
20 ,3.8168 ,0.63226 ,4.85021 ,47.59030 
21 ,4.0248 ,0.63440 ,4.85021 ,47.59030 
22 ,4.2005 ,0.63615 ,4.83310 ,47.42240 
23 ,4.4090 ,0.63807 ,4.81941 ,47.28809 
24 ,4.6491 ,0.64054 ,4.79204 ,47.01946 
25 ,4.8252 ,0.64243 ,4.77835 ,46.88515 
26 ,5.0173 ,0.64433 ,4.76466 ,46.75084 
27 ,5.2250 ,0.64631 ,4.74413 ,46.54937 
28 ,5.4015 ,0.64819 ,4.73044 ,46.41506 
29 ,5.6096 ,0.65019 ,4.70306 ,46.14643 
30 ,5.8172 ,0.65229 ,4.67911 ,45.91138 
31 ,6.0097 ,0.65415 ,4.67568 ,45.87780 
32 ,6.2013 ,0.65612 ,4.65857 ,45.70991 
33 ,6.3777 ,0.65791 ,4.65173 ,45.64275 
34 ,6.5540 ,0.65969 ,4.61066 ,45.23981 
35 ,6.7459 ,0.66153 ,4.61408 ,45.27339 
36 ,6.9379 ,0.66342 ,4.59697 ,45.10550 
37 ,7.1299 ,0.66536 ,4.57644 ,44.90403 
38 ,7.3060 ,0.66718 ,4.56960 ,44.83688 
39 ,7.4983 ,0.66913 ,4.54906 ,44.63541 
40 ,7.6902 ,0.67102 ,4.51484 ,44.29962 
41 ,7.8663 ,0.67278 ,4.49431 ,44.09815 
42 ,8.0425 ,0.67457 ,4.50800 ,44.23247 
43 ,8.2344 ,0.67636 ,4.50457 ,44.19889 
44 ,8.4424 ,0.67846 ,4.47720 ,43.93026 
45 ,8.6347 ,0.68039 ,4.44982 ,43.66163 
46 ,8.8109 ,0.68227 ,4.42929 ,43.46016 
47 ,9.0028 ,0.68410 ,4.42929 ,43.46016 
48 ,9.2110 ,0.68612 ,4.39507 ,43.12438 
49 ,9.4030 ,0.68813 ,4.40191 ,43.19154 
50 ,9.5791 ,0.68993 ,4.37453 ,42.92291 
51 ,9.8031 ,0.69212 ,4.35058 ,42.68786 
52 ,10.0113 ,0.69407 ,4.34031 ,42.58713 
53 ,10.2034 ,0.69613 ,4.32320 ,42.41924 
54 ,10.3954 ,0.69804 ,4.29582 ,42.15061 
55 ,10.5711 ,0.69987 ,4.28556 ,42.04988 
56 ,10.7476 ,0.70161 ,4.26845 ,41.88198 
57 ,10.9237 ,0.70337 ,4.26160 ,41.81483 
58 ,11.0997 ,0.70517 ,4.25818 ,41.78125 
59 ,11.2919 ,0.70696 ,4.21711 ,41.37831 
60 ,11.4999 ,0.70914 ,4.22053 ,41.41189 
61 ,11.6915 ,0.71095 ,4.17605 ,40.97537 
62 ,11.8841 ,0.71296 ,4.17605 ,40.97537 
63 ,12.0921 ,0.71503 ,4.15551 ,40.77390 
64 ,12.2681 ,0.71678 ,4.13156 ,40.53885 
65 ,12.4604 ,0.71860 ,4.13156 ,40.53885 
66 ,12.6520 ,0.72072 ,4.10760 ,40.30380 
67 ,12.8445 ,0.72251 ,4.10076 ,40.23665 
68 ,13.0366 ,0.72443 ,4.07680 ,40.00160 
69 ,13.2608 ,0.72661 ,4.06654 ,39.90087 
70 ,13.4847 ,0.72882 ,4.05285 ,39.76655 
71 ,13.6605 ,0.73075 ,4.03574 ,39.59866 
72 ,13.8529 ,0.73260 ,4.00152 ,39.26288 
73 ,14.0449 ,0.73451 ,4.00494 ,39.29646 
74 ,14.2211 ,0.73634 ,3.99467 ,39.19572 
75 ,14.4130 ,0.73824 ,3.96729 ,38.92709 
76 ,14.5892 ,0.74002 ,3.94676 ,38.72562 
77 ,14.8133 ,0.74210 ,3.94676 ,38.72562 
78 ,15.0054 ,0.74411 ,3.91596 ,38.42342 
79 ,15.1974 ,0.74602 ,3.90570 ,38.32268 
80 ,15.4055 ,0.74813 ,3.89885 ,38.25553 
81 ,15.5976 ,0.75003 ,3.87147 ,37.98690 
82 ,15.8054 ,0.75214 ,3.85436 ,37.81901 
83 ,15.9977 ,0.75410 ,3.85436 ,37.81901 
84 ,16.2058 ,0.75614 ,3.82699 ,37.55038 
85 ,16.3820 ,0.75790 ,3.81672 ,37.44965 
86 ,16.5739 ,0.75984 ,3.78592 ,37.14744 
87 ,16.7821 ,0.76192 ,3.78592 ,37.14744 
88 ,16.9421 ,0.76364 ,3.77565 ,37.04671 
89 ,17.1182 ,0.76526 ,3.75170 ,36.81166 
90 ,17.3263 ,0.76732 ,3.74143 ,36.71093 
91 ,17.5024 ,0.76909 ,3.71748 ,36.47588 
92 ,17.6783 ,0.77090 ,3.71405 ,36.44230 
93 ,17.8863 ,0.77288 ,3.69352 ,36.24083 
94 ,18.0947 ,0.77504 ,3.67983 ,36.10652 
95 ,18.2863 ,0.77691 ,3.65930 ,35.90505 
96 ,18.4788 ,0.77883 ,3.64903 ,35.80431 
97 ,18.6548 ,0.78071 ,3.62508 ,35.56926 
98 ,18.8309 ,0.78240 ,3.60112 ,35.33422 
99 ,19.0227 ,0.78419 ,3.59428 ,35.26706 
100 ,19.2152 ,0.78621 ,3.58401 ,35.16632 
101 ,19.4232 ,0.78825 ,3.57375 ,35.06559 
102 ,19.5992 ,0.79008 ,3.55663 ,34.89770 
103 ,19.7754 ,0.79185 ,3.56006 ,34.93128 
104 ,19.9834 ,0.79387 ,3.53952 ,34.72981 
105 ,20.1754 ,0.79578 ,3.50872 ,34.42760 
106 ,20.3514 ,0.79765 ,3.49161 ,34.25971 
107 ,20.5274 ,0.79935 ,3.47450 ,34.09182 
108 ,20.7034 ,0.80113 ,3.46081 ,33.95751 
109 ,20.8957 ,0.80301 ,3.44370 ,33.78961 
110 ,21.0720 ,0.80483 ,3.42659 ,33.62172 
111 ,21.2639 ,0.80680 ,3.43686 ,33.72246 
112 ,21.4721 ,0.80867 ,3.40948 ,33.45383 
113 ,21.6800 ,0.81079 ,3.39237 ,33.28594 
114 ,21.8722 ,0.81275 ,3.36499 ,33.01731 
115 ,22.0482 ,0.81460 ,3.34446 ,32.81584 
116 ,22.2240 ,0.81633 ,3.33762 ,32.74869 
117 ,22.4166 ,0.81820 ,3.33762 ,32.74869 
118 ,22.6405 ,0.82033 ,3.30339 ,32.41290 
119 ,22.8163 ,0.82222 ,3.31366 ,32.51364 
120 ,22.9927 ,0.82399 ,3.28628 ,32.24501 
121 ,23.2006 ,0.82601 ,3.27944 ,32.17786 
122 ,23.3607 ,0.82780 ,3.25206 ,31.90923 
123 ,23.5530 ,0.82957 ,3.23153 ,31.70776 
124 ,23.7449 ,0.83155 ,3.22811 ,31.67418 
125 ,23.9211 ,0.83330 ,3.21442 ,31.53987 
126 ,24.1291 ,0.83530 ,3.17335 ,31.13693 
127 ,24.3209 ,0.83721 ,3.18020 ,31.20409 
128 ,24.5134 ,0.83919 ,3.14597 ,30.86830 
129 ,24.7214 ,0.84130 ,3.14597 ,30.86830 
130 ,24.9295 ,0.84333 ,3.10833 ,30.49894 
131 ,25.1215 ,0.84528 ,3.12886 ,30.70041 
132 ,25.3295 ,0.84741 ,3.09122 ,30.33105 
133 ,25.5375 ,0.84941 ,3.09122 ,30.33105 
134 ,25.7619 ,0.85161 ,3.07753 ,30.19674 
135 ,25.9376 ,0.85352 ,3.03989 ,29.82737 
136 ,26.1140 ,0.85521 ,3.03989 ,29.82737 
137 ,26.2900 ,0.85700 ,3.01935 ,29.62590 
138 ,26.4978 ,0.85900 ,3.01935 ,29.62590 
139 ,26.6900 ,0.86089 ,2.98513 ,29.29012 
140 ,26.8984 ,0.86300 ,2.99198 ,29.35728 
141 ,27.1060 ,0.86510 ,2.95433 ,28.98792 
142 ,27.2819 ,0.86695 ,2.94407 ,28.88718 
143 ,27.4740 ,0.86875 ,2.94064 ,28.85360 
144 ,27.6822 ,0.87077 ,2.91327 ,28.58498 
145 ,27.8742 ,0.87273 ,2.88589 ,28.31635 
146 ,28.0668 ,0.87466 ,2.88247 ,28.28277 
147 ,28.2910 ,0.87689 ,2.86878 ,28.14846 
148 ,28.4830 ,0.87885 ,2.85851 ,28.04772 
149 ,28.6425 ,0.88061 ,2.85851 ,28.04772 
150 ,28.8511 ,0.88245 ,2.81402 ,27.61121 
151 ,29.0269 ,0.88433 ,2.80376 ,27.51047 
152 ,29.2193 ,0.88612 ,2.79007 ,27.37616 
153 ,29.3793 ,0.88797 ,2.79349 ,27.40974 
154 ,29.5716 ,0.88972 ,2.75927 ,27.07395 
155 ,29.7631 ,0.89175 ,2.77296 ,27.20827 
156 ,29.9392 ,0.89350 ,2.75243 ,27.00680 
157 ,30.1312 ,0.89530 ,2.72505 ,26.73817 
158 ,30.3233 ,0.89723 ,2.70794 ,26.57028 
159 ,30.5153 ,0.89914 ,2.70452 ,26.53670 
160 ,30.6913 ,0.90099 ,2.68398 ,26.33523 
161 ,30.8999 ,0.90303 ,2.66687 ,26.16734 
162 ,31.1236 ,0.90526 ,2.65318 ,26.03303 
163 ,31.3320 ,0.90723 ,2.64976 ,25.99945 
164 ,31.5400 ,0.90946 ,2.62923 ,25.79798 
165 ,31.7318 ,0.91142 ,2.59843 ,25.49577 
166 ,31.9239 ,0.91319 ,2.59158 ,25.42862 
167 ,32.1325 ,0.91520 ,2.58474 ,25.36146 
168 ,32.3406 ,0.91736 ,2.56763 ,25.19357 
169 ,32.5327 ,0.91940 ,2.56078 ,25.12641 
170 ,32.7243 ,0.92135 ,2.53341 ,24.85779 
171 ,32.9168 ,0.92316 ,2.52656 ,24.79063 
172 ,33.1249 ,0.92527 ,2.50945 ,24.62274 
173 ,33.3329 ,0.92736 ,2.48550 ,24.38769 
174 ,33.5251 ,0.92929 ,2.47181 ,24.25338 
175 ,33.7331 ,0.93133 ,2.46496 ,24.18622 
176 ,33.9412 ,0.93327 ,2.45470 ,24.08549 
177 ,34.1810 ,0.93578 ,2.42732 ,23.81686 
178 ,34.3572 ,0.93760 ,2.42732 ,23.81686 
179 ,34.5494 ,0.93950 ,2.37941 ,23.34676 
180 ,34.7256 ,0.94129 ,2.38968 ,23.44750 
181 ,34.9177 ,0.94317 ,2.37941 ,23.34676 
182 ,35.1253 ,0.94531 ,2.35203 ,23.07814 
183 ,35.3178 ,0.94713 ,2.34177 ,22.97740 
184 ,35.5099 ,0.94907 ,2.30754 ,22.64162 
185 ,35.7176 ,0.95120 ,2.31781 ,22.74235 
186 ,35.9101 ,0.95307 ,2.27674 ,22.33941 
187 ,36.1181 ,0.95518 ,2.28701 ,22.44015 
188 ,36.2942 ,0.95703 ,2.24937 ,22.07079 
189 ,36.4862 ,0.95885 ,2.25621 ,22.13794 
190 ,36.6784 ,0.96072 ,2.24594 ,22.03721 
191 ,36.8705 ,0.96267 ,2.21172 ,21.70143 
192 ,37.0784 ,0.96473 ,2.20488 ,21.63427 
193 ,37.2543 ,0.96659 ,2.19803 ,21.56711 
194 ,37.4467 ,0.96841 ,2.16723 ,21.26491 
195 ,37.6387 ,0.97034 ,2.16381 ,21.23133 
196 ,37.8464 ,0.97231 ,2.16381 ,21.23133 
197 ,38.0389 ,0.97432 ,2.13986 ,20.99628 
198 ,38.2311 ,0.97626 ,2.11590 ,20.76123 
199 ,38.4551 ,0.97850 ,2.11248 ,20.72766 
200 ,38.6630 ,0.98061 ,2.08168 ,20.42545 
201 ,38.8553 ,0.98251 ,2.06457 ,20.25756 
202 ,39.0630 ,0.98462 ,2.06457 ,20.25756 
203 ,39.2714 ,0.98655 ,2.03035 ,19.92178 
204 ,39.4636 ,0.98857 ,2.04404 ,20.05609 
205 ,39.6556 ,0.99057 ,2.03035 ,19.92178 
206 ,39.8313 ,0.99232 ,1.99613 ,19.58599 
207 ,40.0238 ,0.99424 ,1.98244 ,19.45168 
208 ,40.2316 ,0.99633 ,1.95506 ,19.18305 
209 ,40.4078 ,0.99808 ,1.95506 ,19.18305 
210 ,40.5998 ,1.00001 ,1.96875 ,19.31737 
211 ,40.8080 ,1.00206 ,1.93111 ,18.94801 
212 ,41.0162 ,1.00407 ,1.91399 ,18.78011 
213 ,41.2082 ,1.00602 ,1.89004 ,18.54507 
214 ,41.4324 ,1.00818 ,1.88319 ,18.47791 
215 ,41.6403 ,1.01029 ,1.88319 ,18.47791 
216 ,41.8325 ,1.01226 ,1.85240 ,18.17570 
217 ,42.0407 ,1.01446 ,1.85240 ,18.17570 
218 ,42.2327 ,1.01631 ,1.82844 ,17.94066 
219 ,42.4086 ,1.01810 ,1.81133 ,17.77276 
220 ,42.5845 ,1.01984 ,1.79422 ,17.60487 
221 ,42.7768 ,1.02178 ,1.78053 ,17.47056 
222 ,42.9687 ,1.02363 ,1.76342 ,17.30267 
223 ,43.1767 ,1.02575 ,1.77026 ,17.36983 
224 ,43.3689 ,1.02762 ,1.73604 ,17.03404 
225 ,43.5452 ,1.02944 ,1.73604 ,17.03404 
226 ,43.7372 ,1.03131 ,1.72235 ,16.89973 
227 ,43.9455 ,1.03344 ,1.71209 ,16.79899 
228 ,44.1373 ,1.03529 ,1.68129 ,16.49679 
229 ,44.3456 ,1.03744 ,1.66418 ,16.32890 
230 ,44.5377 ,1.03934 ,1.65049 ,16.19458 
231 ,44.7291 ,1.04122 ,1.64022 ,16.09385 
232 ,44.9219 ,1.04322 ,1.64022 ,16.09385 
233 ,45.1299 ,1.04527 ,1.61284 ,15.82522 
234 ,45.3059 ,1.04711 ,1.60600 ,15.75807 
235 ,45.4980 ,1.04897 ,1.60600 ,15.75807 
236 ,45.6739 ,1.05071 ,1.59231 ,15.62375 
237 ,45.8822 ,1.05281 ,1.57520 ,15.45586 
238 ,46.0902 ,1.05480 ,1.54440 ,15.15366 
239 ,46.2822 ,1.05677 ,1.54098 ,15.12008 
240 ,46.4745 ,1.05870 ,1.52387 ,14.95219 
241 ,46.6826 ,1.06081 ,1.51702 ,14.88503 
242 ,46.8747 ,1.06267 ,1.48622 ,14.58283 
243 ,47.0826 ,1.06476 ,1.48280 ,14.54925 
244 ,47.2588 ,1.06657 ,1.48280 ,14.54925 
245 ,47.4664 ,1.06859 ,1.44174 ,14.14631 
246 ,47.6429 ,1.07043 ,1.44174 ,14.14631 
247 ,47.8669 ,1.07251 ,1.43147 ,14.04557 
248 ,48.0591 ,1.07455 ,1.41778 ,13.91126 
249 ,48.2673 ,1.07668 ,1.40409 ,13.77695 
250 ,48.4911 ,1.07872 ,1.38698 ,13.60906 
251 ,48.6831 ,1.08072 ,1.37671 ,13.50832 
252 ,48.8753 ,1.08269 ,1.34591 ,13.20612 
253 ,49.0514 ,1.08451 ,1.33907 ,13.13896 
254 ,49.2594 ,1.08656 ,1.33907 ,13.13896 
255 ,49.4515 ,1.08847 ,1.31512 ,12.90391 
256 ,49.6275 ,1.09025 ,1.29800 ,12.73602 
257 ,49.8036 ,1.09200 ,1.29116 ,12.66886 
258 ,49.9798 ,1.09376 ,1.28774 ,12.63528 
259 ,50.1878 ,1.09579 ,1.27063 ,12.46739 
260 ,50.3960 ,1.09786 ,1.26036 ,12.36666 
261 ,50.5879 ,1.09980 ,1.23298 ,12.09803 
262 ,50.7640 ,1.10168 ,1.23983 ,12.16519 
263 ,50.9401 ,1.10338 ,1.22614 ,12.03088 
264 ,51.1318 ,1.10518 ,1.20218 ,11.79583 
265 ,51.3084 ,1.10709 ,1.17823 ,11.56078 
266 ,51.5005 ,1.10891 ,1.17823 ,11.56078 
267 ,51.7244 ,1.11114 ,1.15427 ,11.32573 
268 ,51.9164 ,1.11306 ,1.14401 ,11.22500 
269 ,52.1247 ,1.11522 ,1.13032 ,11.09068 
270 ,52.3328 ,1.11726 ,1.10294 ,10.82206 
271 ,52.5408 ,1.11939 ,1.12005 ,10.98995 
272 ,52.7330 ,1.12127 ,1.07214 ,10.51985 
273 ,52.9249 ,1.12316 ,1.07899 ,10.58701 
274 ,53.1011 ,1.12500 ,1.07214 ,10.51985 
275 ,53.2931 ,1.12695 ,1.05161 ,10.31838 
276 ,53.4691 ,1.12864 ,1.03450 ,10.15049 
277 ,53.6770 ,1.13070 ,1.02423 ,10.04976 
278 ,53.8854 ,1.13264 ,1.00712 ,9.88186 
279 ,54.0933 ,1.13485 ,0.97974 ,9.61324 
280 ,54.2852 ,1.13678 ,0.98317 ,9.64682 
281 ,54.4774 ,1.13864 ,0.97290 ,9.54608 
282 ,54.6698 ,1.14057 ,0.95237 ,9.34461 
283 ,54.8774 ,1.14271 ,0.95921 ,9.41177 
284 ,55.0540 ,1.14450 ,0.92499 ,9.07598 
285 ,55.2778 ,1.14666 ,0.91472 ,8.97525 
286 ,55.4541 ,1.14854 ,0.89419 ,8.77378 
287 ,55.6459 ,1.15033 ,0.90103 ,8.84094 
288 ,55.8382 ,1.15226 ,0.88392 ,8.67305 
289 ,56.0302 ,1.15424 ,0.87023 ,8.53873 
290 ,56.2063 ,1.15603 ,0.84970 ,8.33726 
291 ,56.4143 ,1.15809 ,0.85312 ,8.37084 
292 ,56.6227 ,1.16011 ,0.82917 ,8.13579 
293 ,56.8145 ,1.16204 ,0.81206 ,7.96790 
294 ,57.0388 ,1.16430 ,0.80521 ,7.90074 
295 ,57.2628 ,1.16654 ,0.81206 ,7.96790 
296 ,57.4388 ,1.16829 ,0.78126 ,7.66570 
297 ,57.6470 ,1.17033 ,0.76415 ,7.49780 
298 ,57.8551 ,1.17247 ,0.74019 ,7.26276 
299 ,58.0471 ,1.17435 ,0.73677 ,7.22918 
300 ,58.2553 ,1.17634 ,0.72308 ,7.09486 
301 ,58.4474 ,1.17835 ,0.70255 ,6.89340 
302 ,58.6393 ,1.18029 ,0.70597 ,6.92697 
303 ,58.8315 ,1.18212 ,0.68201 ,6.69193 
304 ,59.0237 ,1.18410 ,0.67175 ,6.59119 
305 ,59.2316 ,1.18613 ,0.65121 ,6.38972 
306 ,59.4237 ,1.18808 ,0.64437 ,6.32256 
307 ,59.5998 ,1.18995 ,0.64779 ,6.35614 
308 ,59.7758 ,1.19173 ,0.60673 ,5.95320 
309 ,59.9679 ,1.19355 ,0.61699 ,6.05394 
310 ,60.1758 ,1.19565 ,0.60330 ,5.91962 
311 ,60.3682 ,1.19757 ,0.58619 ,5.75173 
312 ,60.5602 ,1.19950 ,0.57593 ,5.65100 
313 ,60.7683 ,1.20161 ,0.55539 ,5.44953 
314 ,60.9603 ,1.20346 ,0.54855 ,5.38237 
315 ,61.1366 ,1.20528 ,0.53486 ,5.24806 
316 ,61.3286 ,1.20716 ,0.53486 ,5.24806 
317 ,61.5527 ,1.20930 ,0.50064 ,4.91228 
318 ,61.7764 ,1.21161 ,0.49380 ,4.84512 
319 ,61.9528 ,1.21349 ,0.47326 ,4.64365 
320 ,62.1449 ,1.21534 ,0.48695 ,4.77796 
321 ,62.3529 ,1.21745 ,0.44588 ,4.37502 
322 ,62.5449 ,1.21927 ,0.45615 ,4.47576 
323 ,62.7368 ,1.22126 ,0.43904 ,4.30787 
324 ,62.9131 ,1.22314 ,0.41851 ,4.10640 
325 ,63.1213 ,1.22505 ,0.41509 ,4.07282 
326 ,63.3130 ,1.22700 ,0.39455 ,3.87135 
327 ,63.5055 ,1.22894 ,0.39797 ,3.90493 
328 ,63.7135 ,1.23104 ,0.36033 ,3.53557 
329 ,63.9052 ,1.23290 ,0.37402 ,3.66988 
330 ,64.0816 ,1.23475 ,0.35691 ,3.50199 
331 ,64.2738 ,1.23661 ,0.34664 ,3.40125 
332 ,64.4661 ,1.23851 ,0.33980 ,3.33410 
333 ,64.6577 ,1.24044 ,0.30215 ,2.96473 
334 ,64.8500 ,1.24232 ,0.30558 ,2.99831 
335 ,65.0580 ,1.24442 ,0.29873 ,2.93116 
336 ,65.2661 ,1.24660 ,0.27820 ,2.72969 
337 ,65.4582 ,1.24845 ,0.26793 ,2.62895 
338 ,65.6822 ,1.25060 ,0.25767 ,2.52822 
339 ,65.8743 ,1.25261 ,0.23713 ,2.32675 
340 ,66.0503 ,1.25442 ,0.23029 ,2.25959 
341 ,66.2263 ,1.25618 ,0.22002 ,2.15885 
342 ,66.4345 ,1.25822 ,0.19949 ,1.95738 
343 ,66.6107 ,1.26006 ,0.20976 ,2.05812 
344 ,66.8186 ,1.26202 ,0.19607 ,1.92381 
345 ,67.0108 ,1.26393 ,0.17896 ,1.75592 
346 ,67.2027 ,1.26592 ,0.18922 ,1.85665 
347 ,67.3789 ,1.26780 ,0.15500 ,1.52087 
348 ,67.5870 ,1.26975 ,0.14131 ,1.38655 
349 ,67.7792 ,1.27166 ,0.16527 ,1.62160 
350 ,67.9870 ,1.27374 ,0.12420 ,1.21866 
351 ,68.1954 ,1.27580 ,0.10367 ,1.01719 
352 ,68.4035 ,1.27788 ,0.13105 ,1.28582 
353 ,68.5794 ,1.27966 ,0.10367 ,1.01719 
354 ,68.7711 ,1.28161 ,0.08656 ,0.84930 
355 ,68.9476 ,1.28336 ,0.08314 ,0.81572 
356 ,69.1393 ,1.28540 ,0.06260 ,0.61425 
357 ,69.3316 ,1.28715 ,0.04207 ,0.41278 
358 ,69.5398 ,1.28919 ,0.05918 ,0.58067 
359 ,69.7319 ,1.29113 ,0.03180 ,0.31205 
360 ,69.9079 ,1.29294 ,0.01469 ,0.14416 
361 ,70.0841 ,1.29476 ,0.01811 ,0.17773 
362 ,70.2598 ,1.29651 ,0.01127 ,0.11058 
363 ,70.4361 ,1.29825 ,0.00100 ,0.00984 
364 ,70.6283 ,1.30010 ,-0.01269 ,-0.12447 
365 ,70.8202 ,1.30203 ,-0.01953 ,-0.19163 
366 ,70.9964 ,1.30392 ,-0.03322 ,-0.32594 
367 ,71.1885 ,1.30568 ,-0.02980 ,-0.29236 
368 ,71.3967 ,1.30784 ,-0.04348 ,-0.42667 
369 ,71.6048 ,1.30991 ,-0.04691 ,-0.46025 
370 ,71.7965 ,1.31184 ,-0.07428 ,-0.72888 
371 ,71.9888 ,1.31368 ,-0.08797 ,-0.86319 
372 ,72.2129 ,1.31595 ,-0.10166 ,-0.99751 
373 ,72.4050 ,1.31785 ,-0.10166 ,-0.99751 
374 ,72.6131 ,1.31989 ,-0.12562 ,-1.23255 
375 ,72.8052 ,1.32187 ,-0.10851 ,-1.06466 
376 ,72.9812 ,1.32368 ,-0.12219 ,-1.19898 
377 ,73.1733 ,1.32559 ,-0.14273 ,-1.40045 
378 ,73.3813 ,1.32772 ,-0.14273 ,-1.40045 
379 ,73.5734 ,1.32960 ,-0.17011 ,-1.66907 
380 ,73.7973 ,1.33183 ,-0.17011 ,-1.66907 
381 ,73.9735 ,1.33363 ,-0.18722 ,-1.83696 
382 ,74.1975 ,1.33585 ,-0.19748 ,-1.93770 
383 ,74.3737 ,1.33763 ,-0.19748 ,-1.93770 
384 ,74.5978 ,1.33987 ,-0.20433 ,-2.00485 
385 ,74.8059 ,1.34197 ,-0.22144 ,-2.17275 
386 ,74.9820 ,1.34372 ,-0.22144 ,-2.17275 
387 ,75.2060 ,1.34578 ,-0.23513 ,-2.30706 
388 ,75.3823 ,1.34770 ,-0.22144 ,-2.17275 
389 ,75.5742 ,1.34955 ,-0.27961 ,-2.74358 
390 ,75.7502 ,1.35136 ,-0.27277 ,-2.67642 
391 ,75.9424 ,1.35325 ,-0.27277 ,-2.67642 
392 ,76.1345 ,1.35515 ,-0.28988 ,-2.84431 
393 ,76.3267 ,1.35709 ,-0.28304 ,-2.77716 
394 ,76.5347 ,1.35913 ,-0.31041 ,-3.04578 
395 ,76.7588 ,1.36140 ,-0.31041 ,-3.04578 
396 ,76.9670 ,1.36356 ,-0.32752 ,-3.21367 
397 ,77.1586 ,1.36542 ,-0.33437 ,-3.28083 
398 ,77.3508 ,1.36730 ,-0.34464 ,-3.38156 
399 ,77.5430 ,1.36924 ,-0.34806 ,-3.41514 
400 ,77.7351 ,1.37117 ,-0.36175 ,-3.54946 
401 ,77.9594 ,1.37344 ,-0.36859 ,-3.61661 
402 ,78.1671 ,1.37548 ,-0.37201 ,-3.65019 
403 ,78.3594 ,1.37748 ,-0.37886 ,-3.71735 
404 ,78.5515 ,1.37936 ,-0.40281 ,-3.95240 
405 ,78.7595 ,1.38146 ,-0.39255 ,-3.85166 
406 ,78.9837 ,1.38353 ,-0.43019 ,-4.22102 
407 ,79.1914 ,1.38577 ,-0.44388 ,-4.35534 
408 ,79.3675 ,1.38751 ,-0.45072 ,-4.42249 
409 ,79.5597 ,1.38937 ,-0.44046 ,-4.32176 
410 ,79.7674 ,1.39163 ,-0.44730 ,-4.38891 
411 ,79.9439 ,1.39332 ,-0.47126 ,-4.62396 
412 ,80.1678 ,1.39548 ,-0.46099 ,-4.52323 
413 ,80.3599 ,1.39739 ,-0.48152 ,-4.72470 
414 ,80.5360 ,1.39920 ,-0.48152 ,-4.72470 
415 ,80.7441 ,1.40110 ,-0.49179 ,-4.82543 
416 ,80.9525 ,1.40338 ,-0.52259 ,-5.12764 
417 ,81.1603 ,1.40545 ,-0.51917 ,-5.09406 
418 ,81.3365 ,1.40723 ,-0.52943 ,-5.19479 
419 ,81.5447 ,1.40928 ,-0.52943 ,-5.19479 
420 ,81.7363 ,1.41119 ,-0.53970 ,-5.29553 
421 ,81.9447 ,1.41314 ,-0.53628 ,-5.26195 
422 ,82.1367 ,1.41514 ,-0.57392 ,-5.63131 
423 ,82.3450 ,1.41725 ,-0.56365 ,-5.53058 
424 ,82.5371 ,1.41913 ,-0.59445 ,-5.83278 
425 ,82.7612 ,1.42141 ,-0.58077 ,-5.69847 
426 ,82.9528 ,1.42336 ,-0.61499 ,-6.03425 
427 ,83.1612 ,1.42531 ,-0.61499 ,-6.03425 
428 ,83.3534 ,1.42734 ,-0.62525 ,-6.13499 
429 ,83.5772 ,1.42945 ,-0.61156 ,-6.00067 
430 ,83.7693 ,1.43148 ,-0.64579 ,-6.33646 
431 ,83.9616 ,1.43339 ,-0.63552 ,-6.23572 
432 ,84.1697 ,1.43546 ,-0.65263 ,-6.40361 
433 ,84.3776 ,1.43757 ,-0.66290 ,-6.50435 
434 ,84.5539 ,1.43939 ,-0.69027 ,-6.77297 
435 ,84.7620 ,1.44141 ,-0.68001 ,-6.67224 
436 ,84.9539 ,1.44337 ,-0.69712 ,-6.84013 
437 ,85.1301 ,1.44514 ,-0.70054 ,-6.87371 
438 ,85.3222 ,1.44693 ,-0.70054 ,-6.87371 
439 ,85.4982 ,1.44893 ,-0.70739 ,-6.94086 
440 ,85.6744 ,1.45057 ,-0.72450 ,-7.10876 
441 ,85.8666 ,1.45244 ,-0.72450 ,-7.10876 
442 ,86.0745 ,1.45457 ,-0.74845 ,-7.34380 
443 ,86.2827 ,1.45648 ,-0.75187 ,-7.37738 
444 ,86.4747 ,1.45858 ,-0.76214 ,-7.47812 
445 ,86.6666 ,1.46043 ,-0.75530 ,-7.41096 
446 ,86.8747 ,1.46254 ,-0.75530 ,-7.41096 
447 ,87.0667 ,1.46442 ,-0.76556 ,-7.51170 
448 ,87.2429 ,1.46626 ,-0.77925 ,-7.64601 
449 ,87.4350 ,1.46818 ,-0.79978 ,-7.84748 
450 ,87.6107 ,1.46993 ,-0.82032 ,-8.04895 
451 ,87.8028 ,1.47177 ,-0.79978 ,-7.84748 
452 ,87.9789 ,1.47365 ,-0.83058 ,-8.14968 
453 ,88.1713 ,1.47557 ,-0.83743 ,-8.21684 
454 ,88.3474 ,1.47726 ,-0.84427 ,-8.28400 
455 ,88.5395 ,1.47923 ,-0.84085 ,-8.25042 
456 ,88.7475 ,1.48127 ,-0.83743 ,-8.21684 
457 ,88.9397 ,1.48315 ,-0.86138 ,-8.45189 
458 ,89.1318 ,1.48512 ,-0.87165 ,-8.55262 
459 ,89.3395 ,1.48719 ,-0.86823 ,-8.51904 
460 ,89.5315 ,1.48907 ,-0.88534 ,-8.68694 
461 ,89.7079 ,1.49088 ,-0.88876 ,-8.72051 
462 ,89.9160 ,1.49295 ,-0.89218 ,-8.75409 
463 ,90.0919 ,1.49475 ,-0.91272 ,-8.95556 
