Data stamp = , 12-04-2022 07:20:54 072

Calibration Values: 
Slope = , 26.54 , g/V 
Offset Voltage at no contact = , -0.501760 , V 

No , Time , Stage Position ,   Mass , Force 
   ,  (s) ,      (mm)      ,   (g)  , (mN)  

1 ,0.0000 ,0.59935 ,5.02132 ,49.26921 
2 ,0.2033 ,0.59942 ,5.02132 ,49.26921 
3 ,0.5240 ,0.60022 ,5.02132 ,49.26921 
4 ,0.7319 ,0.60172 ,5.03501 ,49.40352 
5 ,0.9237 ,0.60338 ,5.01790 ,49.23563 
6 ,1.1157 ,0.60526 ,5.01790 ,49.23563 
7 ,1.2923 ,0.60698 ,5.01448 ,49.20205 
8 ,1.7245 ,0.61016 ,5.01790 ,49.23563 
9 ,1.9326 ,0.61328 ,5.00763 ,49.13490 
10 ,2.1246 ,0.61537 ,4.99052 ,48.96701 
11 ,2.3165 ,0.61733 ,4.98026 ,48.86627 
12 ,2.4928 ,0.61902 ,4.95972 ,48.66480 
13 ,2.6690 ,0.62085 ,4.95630 ,48.63122 
14 ,2.8450 ,0.62258 ,4.92208 ,48.29544 
15 ,3.0369 ,0.62450 ,4.90155 ,48.09397 
16 ,3.2290 ,0.62636 ,4.89470 ,48.02681 
17 ,3.4050 ,0.62815 ,4.85364 ,47.62387 
18 ,3.5812 ,0.62991 ,4.84679 ,47.55672 
19 ,3.7571 ,0.63168 ,4.82968 ,47.38883 
20 ,3.9334 ,0.63342 ,4.82968 ,47.38883 
21 ,4.1094 ,0.63522 ,4.81599 ,47.25451 
22 ,4.2855 ,0.63695 ,4.77835 ,46.88515 
23 ,4.4616 ,0.63872 ,4.77150 ,46.81800 
24 ,4.6377 ,0.64046 ,4.76124 ,46.71726 
25 ,4.8454 ,0.64246 ,4.75439 ,46.65010 
26 ,5.0219 ,0.64434 ,4.70990 ,46.21359 
27 ,5.1979 ,0.64611 ,4.69279 ,46.04569 
28 ,5.3740 ,0.64781 ,4.70648 ,46.18001 
29 ,5.5661 ,0.64973 ,4.66542 ,45.77707 
30 ,5.7579 ,0.65161 ,4.66542 ,45.77707 
31 ,5.9338 ,0.65344 ,4.64146 ,45.54202 
32 ,6.1099 ,0.65520 ,4.64146 ,45.54202 
33 ,6.2864 ,0.65692 ,4.61751 ,45.30697 
34 ,6.4941 ,0.65905 ,4.60724 ,45.20624 
35 ,6.6707 ,0.66081 ,4.58671 ,45.00477 
36 ,6.8627 ,0.66275 ,4.53195 ,44.46751 
37 ,7.0548 ,0.66459 ,4.56275 ,44.76972 
38 ,7.2305 ,0.66644 ,4.54564 ,44.60183 
39 ,7.4388 ,0.66839 ,4.52169 ,44.36678 
40 ,7.6147 ,0.67030 ,4.49089 ,44.06457 
41 ,7.7911 ,0.67205 ,4.49431 ,44.09815 
42 ,7.9989 ,0.67399 ,4.46351 ,43.79595 
43 ,8.1912 ,0.67601 ,4.44298 ,43.59448 
44 ,8.3671 ,0.67776 ,4.42929 ,43.46016 
45 ,8.5594 ,0.67957 ,4.40533 ,43.22512 
46 ,8.7673 ,0.68170 ,4.39849 ,43.15796 
47 ,8.9757 ,0.68374 ,4.38480 ,43.02365 
48 ,9.1674 ,0.68566 ,4.37111 ,42.88933 
49 ,9.3759 ,0.68779 ,4.36084 ,42.78860 
50 ,9.5515 ,0.68964 ,4.34716 ,42.65429 
51 ,9.7117 ,0.69133 ,4.31978 ,42.38566 
52 ,9.8878 ,0.69294 ,4.30267 ,42.21777 
53 ,10.0640 ,0.69476 ,4.27187 ,41.91556 
54 ,10.2557 ,0.69658 ,4.28213 ,42.01630 
55 ,10.4316 ,0.69843 ,4.26502 ,41.84841 
56 ,10.6243 ,0.70033 ,4.23765 ,41.57978 
57 ,10.8483 ,0.70247 ,4.21027 ,41.31115 
58 ,11.0404 ,0.70450 ,4.21711 ,41.37831 
59 ,11.2164 ,0.70622 ,4.20000 ,41.21042 
60 ,11.4405 ,0.70833 ,4.17262 ,40.94179 
61 ,11.6163 ,0.71024 ,4.16236 ,40.84106 
62 ,11.7924 ,0.71200 ,4.14525 ,40.67317 
63 ,11.9690 ,0.71379 ,4.12471 ,40.47170 
64 ,12.1606 ,0.71565 ,4.10418 ,40.27023 
65 ,12.3366 ,0.71744 ,4.10418 ,40.27023 
66 ,12.5288 ,0.71929 ,4.06654 ,39.90087 
67 ,12.7211 ,0.72132 ,4.06996 ,39.93444 
68 ,12.9291 ,0.72325 ,4.03232 ,39.56508 
69 ,13.1052 ,0.72513 ,4.01520 ,39.39719 
70 ,13.2973 ,0.72696 ,4.02205 ,39.46435 
71 ,13.5052 ,0.72894 ,4.01863 ,39.43077 
72 ,13.6814 ,0.73085 ,3.98441 ,39.09499 
73 ,13.8735 ,0.73276 ,3.97756 ,39.02783 
74 ,14.0497 ,0.73458 ,3.95361 ,38.79278 
75 ,14.2415 ,0.73642 ,3.95361 ,38.79278 
76 ,14.4177 ,0.73827 ,3.93992 ,38.65847 
77 ,14.5938 ,0.73999 ,3.91938 ,38.45700 
78 ,14.7700 ,0.74174 ,3.88516 ,38.12122 
79 ,14.9457 ,0.74354 ,3.87490 ,38.02048 
80 ,15.1220 ,0.74528 ,3.87147 ,37.98690 
81 ,15.3138 ,0.74716 ,3.86463 ,37.91975 
82 ,15.4898 ,0.74892 ,3.84410 ,37.71828 
83 ,15.6498 ,0.75069 ,3.82699 ,37.55038 
84 ,15.8099 ,0.75230 ,3.81672 ,37.44965 
85 ,15.9860 ,0.75391 ,3.79961 ,37.28176 
86 ,16.1620 ,0.75566 ,3.78250 ,37.11387 
87 ,16.3382 ,0.75746 ,3.78592 ,37.14744 
88 ,16.5144 ,0.75923 ,3.76196 ,36.91240 
89 ,16.6902 ,0.76096 ,3.74143 ,36.71093 
90 ,16.8504 ,0.76267 ,3.72774 ,36.57661 
91 ,17.0104 ,0.76428 ,3.70379 ,36.34157 
92 ,17.1705 ,0.76587 ,3.70721 ,36.37514 
93 ,17.3305 ,0.76749 ,3.69010 ,36.20725 
94 ,17.5067 ,0.76914 ,3.66272 ,35.93863 
95 ,17.6828 ,0.77086 ,3.65588 ,35.87147 
96 ,17.8589 ,0.77265 ,3.66614 ,35.97220 
97 ,18.0349 ,0.77436 ,3.64219 ,35.73716 
98 ,18.2109 ,0.77615 ,3.61481 ,35.46853 
99 ,18.3711 ,0.77788 ,3.60454 ,35.36779 
100 ,18.5471 ,0.77949 ,3.58401 ,35.16632 
101 ,18.7232 ,0.78128 ,3.57375 ,35.06559 
102 ,18.8993 ,0.78303 ,3.58059 ,35.13275 
103 ,19.0754 ,0.78478 ,3.57717 ,35.09917 
104 ,19.2514 ,0.78656 ,3.54295 ,34.76338 
105 ,19.4274 ,0.78830 ,3.51899 ,34.52834 
106 ,19.6196 ,0.79020 ,3.51899 ,34.52834 
107 ,19.7958 ,0.79199 ,3.50872 ,34.42760 
108 ,19.9879 ,0.79395 ,3.48135 ,34.15898 
109 ,20.1642 ,0.79568 ,3.46424 ,33.99108 
110 ,20.3560 ,0.79755 ,3.45055 ,33.85677 
111 ,20.5322 ,0.79937 ,3.43344 ,33.68888 
112 ,20.7084 ,0.80115 ,3.41290 ,33.48741 
113 ,20.9003 ,0.80300 ,3.43001 ,33.65530 
114 ,21.0764 ,0.80480 ,3.39921 ,33.35310 
115 ,21.2526 ,0.80654 ,3.38553 ,33.21878 
116 ,21.4285 ,0.80835 ,3.34788 ,32.84942 
117 ,21.6046 ,0.81004 ,3.35473 ,32.91658 
118 ,21.7808 ,0.81184 ,3.34104 ,32.78227 
119 ,21.9568 ,0.81356 ,3.34104 ,32.78227 
120 ,22.1325 ,0.81536 ,3.31024 ,32.48006 
121 ,22.3091 ,0.81714 ,3.29655 ,32.34575 
122 ,22.5009 ,0.81903 ,3.29997 ,32.37933 
123 ,22.6932 ,0.82095 ,3.26233 ,32.00996 
124 ,22.8851 ,0.82288 ,3.25548 ,31.94281 
125 ,23.0612 ,0.82464 ,3.25548 ,31.94281 
126 ,23.2375 ,0.82642 ,3.24864 ,31.87565 
127 ,23.4133 ,0.82820 ,3.21100 ,31.50629 
128 ,23.5895 ,0.82992 ,3.19731 ,31.37198 
129 ,23.7815 ,0.83178 ,3.19046 ,31.30482 
130 ,23.9576 ,0.83356 ,3.19046 ,31.30482 
131 ,24.1337 ,0.83537 ,3.15282 ,30.93546 
132 ,24.3098 ,0.83713 ,3.15282 ,30.93546 
133 ,24.4859 ,0.83891 ,3.13229 ,30.73399 
134 ,24.6778 ,0.84083 ,3.13571 ,30.76757 
135 ,24.8700 ,0.84269 ,3.08780 ,30.29747 
136 ,25.0778 ,0.84480 ,3.08780 ,30.29747 
137 ,25.2543 ,0.84656 ,3.07411 ,30.16316 
138 ,25.4461 ,0.84849 ,3.05358 ,29.96169 
139 ,25.6381 ,0.85044 ,3.05015 ,29.92811 
140 ,25.8144 ,0.85223 ,3.02620 ,29.69306 
141 ,26.0223 ,0.85420 ,3.03304 ,29.76022 
142 ,26.1986 ,0.85595 ,2.99882 ,29.42444 
143 ,26.3747 ,0.85773 ,2.98513 ,29.29012 
144 ,26.5666 ,0.85972 ,2.97487 ,29.18939 
145 ,26.7585 ,0.86165 ,2.94064 ,28.85360 
146 ,26.9349 ,0.86338 ,2.93722 ,28.82003 
147 ,27.1269 ,0.86519 ,2.92011 ,28.65213 
148 ,27.3191 ,0.86709 ,2.93038 ,28.75287 
149 ,27.5111 ,0.86913 ,2.88589 ,28.31635 
150 ,27.6870 ,0.87086 ,2.89273 ,28.38351 
151 ,27.8949 ,0.87287 ,2.86536 ,28.11488 
152 ,28.0872 ,0.87478 ,2.85509 ,28.01415 
153 ,28.2634 ,0.87665 ,2.85167 ,27.98057 
154 ,28.4394 ,0.87840 ,2.84140 ,27.87983 
155 ,28.6315 ,0.88028 ,2.82429 ,27.71194 
156 ,28.8233 ,0.88226 ,2.81402 ,27.61121 
157 ,28.9996 ,0.88401 ,2.79691 ,27.44332 
158 ,29.1755 ,0.88580 ,2.77296 ,27.20827 
159 ,29.3517 ,0.88752 ,2.75585 ,27.04038 
160 ,29.5277 ,0.88927 ,2.73531 ,26.83891 
161 ,29.7040 ,0.89106 ,2.74900 ,26.97322 
162 ,29.9117 ,0.89312 ,2.72505 ,26.73817 
163 ,30.1041 ,0.89498 ,2.69083 ,26.40239 
164 ,30.2960 ,0.89695 ,2.68398 ,26.33523 
165 ,30.4725 ,0.89876 ,2.66687 ,26.16734 
166 ,30.6963 ,0.90083 ,2.66687 ,26.16734 
167 ,30.9042 ,0.90300 ,2.66687 ,26.16734 
168 ,31.0805 ,0.90479 ,2.64292 ,25.93229 
169 ,31.2886 ,0.90673 ,2.61554 ,25.66367 
170 ,31.4643 ,0.90865 ,2.62923 ,25.79798 
171 ,31.6407 ,0.91040 ,2.59843 ,25.49577 
172 ,31.8327 ,0.91234 ,2.56078 ,25.12641 
173 ,32.0406 ,0.91422 ,2.56763 ,25.19357 
174 ,32.2330 ,0.91626 ,2.53683 ,24.89136 
175 ,32.4250 ,0.91819 ,2.54710 ,24.99210 
176 ,32.6170 ,0.92016 ,2.49918 ,24.52200 
177 ,32.7932 ,0.92193 ,2.49918 ,24.52200 
178 ,32.9853 ,0.92386 ,2.50261 ,24.55558 
179 ,33.1613 ,0.92572 ,2.47865 ,24.32053 
180 ,33.3374 ,0.92734 ,2.45812 ,24.11906 
181 ,33.5295 ,0.92922 ,2.45470 ,24.08549 
182 ,33.7215 ,0.93113 ,2.43416 ,23.88402 
183 ,33.9136 ,0.93311 ,2.41705 ,23.71612 
184 ,34.0897 ,0.93491 ,2.41021 ,23.64897 
185 ,34.2656 ,0.93667 ,2.37599 ,23.31318 
186 ,34.4579 ,0.93853 ,2.39310 ,23.48108 
187 ,34.6497 ,0.94042 ,2.38283 ,23.38034 
188 ,34.8259 ,0.94224 ,2.36572 ,23.21245 
189 ,35.0178 ,0.94412 ,2.32123 ,22.77593 
190 ,35.2101 ,0.94609 ,2.32808 ,22.84309 
191 ,35.3859 ,0.94782 ,2.31439 ,22.70877 
192 ,35.5784 ,0.94976 ,2.28017 ,22.37299 
193 ,35.7704 ,0.95168 ,2.29043 ,22.47373 
194 ,35.9786 ,0.95378 ,2.26306 ,22.20510 
195 ,36.1703 ,0.95565 ,2.25963 ,22.17152 
196 ,36.3302 ,0.95740 ,2.24594 ,22.03721 
197 ,36.5067 ,0.95906 ,2.23910 ,21.97005 
198 ,36.6988 ,0.96094 ,2.20488 ,21.63427 
199 ,36.8908 ,0.96286 ,2.20830 ,21.66785 
200 ,37.0829 ,0.96480 ,2.18777 ,21.46638 
201 ,37.2590 ,0.96661 ,2.16723 ,21.26491 
202 ,37.4511 ,0.96856 ,2.17066 ,21.29849 
203 ,37.6271 ,0.97024 ,2.16039 ,21.19775 
204 ,37.8031 ,0.97210 ,2.12275 ,20.82839 
205 ,37.9793 ,0.97378 ,2.10906 ,20.69408 
206 ,38.1553 ,0.97554 ,2.09537 ,20.55976 
207 ,38.3472 ,0.97736 ,2.08510 ,20.45903 
208 ,38.5236 ,0.97926 ,2.06115 ,20.22398 
209 ,38.6996 ,0.98096 ,2.07141 ,20.32472 
210 ,38.8755 ,0.98273 ,2.04061 ,20.02251 
211 ,39.0678 ,0.98461 ,2.03719 ,19.98893 
212 ,39.2919 ,0.98687 ,2.02350 ,19.85462 
213 ,39.4679 ,0.98867 ,2.02693 ,19.88820 
214 ,39.6438 ,0.99037 ,2.01324 ,19.75388 
215 ,39.8360 ,0.99232 ,1.98928 ,19.51884 
216 ,40.0280 ,0.99416 ,1.97559 ,19.38452 
217 ,40.2203 ,0.99605 ,1.95506 ,19.18305 
218 ,40.4120 ,0.99811 ,1.93795 ,19.01516 
219 ,40.5882 ,0.99985 ,1.94137 ,19.04874 
220 ,40.7805 ,1.00175 ,1.90715 ,18.71296 
221 ,40.9725 ,1.00366 ,1.90031 ,18.64580 
222 ,41.1486 ,1.00547 ,1.89346 ,18.57864 
223 ,41.3246 ,1.00724 ,1.89346 ,18.57864 
224 ,41.5008 ,1.00898 ,1.84555 ,18.10855 
225 ,41.6924 ,1.01083 ,1.85582 ,18.20928 
226 ,41.8688 ,1.01265 ,1.83871 ,18.04139 
227 ,42.0450 ,1.01440 ,1.81817 ,17.83992 
228 ,42.2371 ,1.01630 ,1.79764 ,17.63845 
229 ,42.4611 ,1.01851 ,1.78395 ,17.50414 
230 ,42.6372 ,1.02033 ,1.76684 ,17.33625 
231 ,42.8453 ,1.02233 ,1.76000 ,17.26909 
232 ,43.0375 ,1.02424 ,1.74289 ,17.10120 
233 ,43.2295 ,1.02622 ,1.74631 ,17.13478 
234 ,43.4375 ,1.02823 ,1.72235 ,16.89973 
235 ,43.6137 ,1.03010 ,1.72578 ,16.93331 
236 ,43.8055 ,1.03202 ,1.68471 ,16.53037 
237 ,43.9978 ,1.03386 ,1.67444 ,16.42963 
238 ,44.2055 ,1.03594 ,1.66760 ,16.36248 
239 ,44.3820 ,1.03777 ,1.64022 ,16.09385 
240 ,44.5900 ,1.03978 ,1.64707 ,16.16101 
241 ,44.7981 ,1.04183 ,1.62653 ,15.95954 
242 ,45.0061 ,1.04392 ,1.60600 ,15.75807 
243 ,45.1983 ,1.04594 ,1.58889 ,15.59018 
244 ,45.3743 ,1.04769 ,1.57178 ,15.42228 
245 ,45.5504 ,1.04945 ,1.58547 ,15.55660 
246 ,45.7423 ,1.05131 ,1.55124 ,15.22081 
247 ,45.9344 ,1.05329 ,1.54440 ,15.15366 
248 ,46.1266 ,1.05514 ,1.52729 ,14.98577 
249 ,46.3348 ,1.05725 ,1.52045 ,14.91861 
250 ,46.5106 ,1.05909 ,1.49649 ,14.68356 
251 ,46.6865 ,1.06077 ,1.48965 ,14.61640 
252 ,46.8628 ,1.06254 ,1.48965 ,14.61640 
253 ,47.0386 ,1.06431 ,1.45885 ,14.31420 
254 ,47.2151 ,1.06610 ,1.44858 ,14.21346 
255 ,47.4071 ,1.06801 ,1.44858 ,14.21346 
256 ,47.5991 ,1.06989 ,1.41778 ,13.91126 
257 ,47.7913 ,1.07173 ,1.41094 ,13.84410 
258 ,47.9833 ,1.07381 ,1.39383 ,13.67621 
259 ,48.1433 ,1.07544 ,1.38356 ,13.57548 
260 ,48.3195 ,1.07713 ,1.36303 ,13.37401 
261 ,48.5113 ,1.07903 ,1.36987 ,13.44116 
262 ,48.7036 ,1.08097 ,1.35276 ,13.27327 
263 ,48.8954 ,1.08280 ,1.34591 ,13.20612 
264 ,49.0718 ,1.08464 ,1.33907 ,13.13896 
265 ,49.2799 ,1.08672 ,1.30485 ,12.80318 
266 ,49.4877 ,1.08872 ,1.30485 ,12.80318 
267 ,49.6639 ,1.09062 ,1.28432 ,12.60171 
268 ,49.8401 ,1.09237 ,1.26720 ,12.43381 
269 ,50.0481 ,1.09432 ,1.27405 ,12.50097 
270 ,50.2398 ,1.09633 ,1.23983 ,12.16519 
271 ,50.4163 ,1.09811 ,1.23983 ,12.16519 
272 ,50.5924 ,1.09986 ,1.23983 ,12.16519 
273 ,50.7845 ,1.10177 ,1.21245 ,11.89656 
274 ,50.9606 ,1.10350 ,1.18165 ,11.59436 
275 ,51.1364 ,1.10531 ,1.18850 ,11.66151 
276 ,51.3123 ,1.10713 ,1.17823 ,11.56078 
277 ,51.5206 ,1.10894 ,1.15427 ,11.32573 
278 ,51.7128 ,1.11102 ,1.15427 ,11.32573 
279 ,51.9046 ,1.11298 ,1.13716 ,11.15784 
280 ,52.0809 ,1.11471 ,1.10979 ,10.88921 
281 ,52.2569 ,1.11646 ,1.12005 ,10.98995 
282 ,52.4330 ,1.11822 ,1.10979 ,10.88921 
283 ,52.6251 ,1.12010 ,1.08583 ,10.65416 
284 ,52.8011 ,1.12191 ,1.06872 ,10.48627 
285 ,52.9772 ,1.12366 ,1.06872 ,10.48627 
286 ,53.1532 ,1.12545 ,1.06530 ,10.45270 
287 ,53.3614 ,1.12752 ,1.02765 ,10.08333 
288 ,53.5372 ,1.12926 ,1.02423 ,10.04976 
289 ,53.7296 ,1.13121 ,1.02423 ,10.04976 
290 ,53.9214 ,1.13309 ,1.01054 ,9.91544 
291 ,54.1138 ,1.13506 ,1.00370 ,9.84829 
292 ,54.3056 ,1.13694 ,0.96948 ,9.51250 
293 ,54.5138 ,1.13902 ,0.95921 ,9.41177 
294 ,54.6897 ,1.14083 ,0.95921 ,9.41177 
295 ,54.8821 ,1.14271 ,0.92157 ,9.04241 
296 ,55.0741 ,1.14459 ,0.92499 ,9.07598 
297 ,55.2824 ,1.14659 ,0.90788 ,8.90809 
298 ,55.4744 ,1.14870 ,0.91130 ,8.94167 
299 ,55.6825 ,1.15068 ,0.88050 ,8.63947 
300 ,55.8905 ,1.15277 ,0.87366 ,8.57231 
301 ,56.0662 ,1.15462 ,0.84970 ,8.33726 
302 ,56.2423 ,1.15628 ,0.84628 ,8.30368 
303 ,56.4182 ,1.15810 ,0.82917 ,8.13579 
304 ,56.5944 ,1.15985 ,0.81890 ,8.03506 
305 ,56.7706 ,1.16161 ,0.81890 ,8.03506 
306 ,56.9948 ,1.16386 ,0.79495 ,7.80001 
307 ,57.1870 ,1.16577 ,0.77784 ,7.63212 
308 ,57.3793 ,1.16759 ,0.77784 ,7.63212 
309 ,57.5713 ,1.16963 ,0.77441 ,7.59854 
310 ,57.7633 ,1.17148 ,0.75730 ,7.43065 
311 ,57.9394 ,1.17333 ,0.74019 ,7.26276 
312 ,58.1154 ,1.17505 ,0.73677 ,7.22918 
313 ,58.3075 ,1.17692 ,0.71624 ,7.02771 
314 ,58.4837 ,1.17875 ,0.69913 ,6.85982 
315 ,58.6918 ,1.18078 ,0.68886 ,6.75908 
316 ,58.8838 ,1.18279 ,0.67175 ,6.59119 
317 ,59.0758 ,1.18461 ,0.65806 ,6.45688 
318 ,59.2680 ,1.18655 ,0.64095 ,6.28899 
319 ,59.4600 ,1.18840 ,0.63753 ,6.25541 
320 ,59.6360 ,1.19024 ,0.62726 ,6.15467 
321 ,59.8279 ,1.19216 ,0.61357 ,6.02036 
322 ,60.0203 ,1.19404 ,0.59304 ,5.81889 
323 ,60.1961 ,1.19582 ,0.58962 ,5.78531 
324 ,60.3885 ,1.19769 ,0.57251 ,5.61742 
325 ,60.5645 ,1.19952 ,0.55539 ,5.44953 
326 ,60.7565 ,1.20146 ,0.55882 ,5.48311 
327 ,60.9322 ,1.20323 ,0.55197 ,5.41595 
328 ,61.1246 ,1.20506 ,0.53486 ,5.24806 
329 ,61.3328 ,1.20716 ,0.52117 ,5.11375 
330 ,61.5406 ,1.20919 ,0.49037 ,4.81154 
331 ,61.7169 ,1.21107 ,0.50406 ,4.94585 
332 ,61.9410 ,1.21314 ,0.47326 ,4.64365 
333 ,62.1331 ,1.21528 ,0.45615 ,4.47576 
334 ,62.3251 ,1.21718 ,0.44931 ,4.40860 
335 ,62.5012 ,1.21890 ,0.43904 ,4.30787 
336 ,62.6774 ,1.22069 ,0.43904 ,4.30787 
337 ,62.8694 ,1.22254 ,0.40140 ,3.93850 
338 ,63.0455 ,1.22435 ,0.41166 ,4.03924 
339 ,63.2536 ,1.22636 ,0.40140 ,3.93850 
340 ,63.4456 ,1.22831 ,0.38429 ,3.77061 
341 ,63.6217 ,1.23016 ,0.36033 ,3.53557 
342 ,63.7979 ,1.23185 ,0.36033 ,3.53557 
343 ,63.9898 ,1.23376 ,0.35691 ,3.50199 
344 ,64.1656 ,1.23551 ,0.34322 ,3.36767 
345 ,64.3418 ,1.23728 ,0.33638 ,3.30052 
346 ,64.5501 ,1.23930 ,0.32269 ,3.16620 
347 ,64.7260 ,1.24109 ,0.30215 ,2.96473 
348 ,64.9343 ,1.24313 ,0.29873 ,2.93116 
349 ,65.1261 ,1.24512 ,0.27820 ,2.72969 
350 ,65.3022 ,1.24688 ,0.26451 ,2.59537 
351 ,65.4783 ,1.24863 ,0.25767 ,2.52822 
352 ,65.6546 ,1.25039 ,0.26109 ,2.56179 
353 ,65.8461 ,1.25227 ,0.22687 ,2.22601 
354 ,66.0222 ,1.25405 ,0.21318 ,2.09170 
355 ,66.1825 ,1.25577 ,0.22002 ,2.15885 
356 ,66.3587 ,1.25756 ,0.20976 ,2.05812 
357 ,66.5348 ,1.25918 ,0.20976 ,2.05812 
358 ,66.7109 ,1.26096 ,0.18238 ,1.78949 
359 ,66.9191 ,1.26293 ,0.18238 ,1.78949 
360 ,67.1112 ,1.26494 ,0.16527 ,1.62160 
361 ,67.3033 ,1.26682 ,0.14473 ,1.42013 
362 ,67.4954 ,1.26877 ,0.15158 ,1.48729 
363 ,67.7030 ,1.27087 ,0.12762 ,1.25224 
364 ,67.8795 ,1.27262 ,0.12420 ,1.21866 
365 ,68.0715 ,1.27452 ,0.11051 ,1.08435 
366 ,68.2635 ,1.27656 ,0.11051 ,1.08435 
367 ,68.4392 ,1.27822 ,0.09340 ,0.91646 
368 ,68.6157 ,1.28001 ,0.09340 ,0.91646 
369 ,68.8078 ,1.28183 ,0.07287 ,0.71499 
370 ,69.0000 ,1.28380 ,0.06260 ,0.61425 
371 ,69.1920 ,1.28580 ,0.05918 ,0.58067 
372 ,69.3841 ,1.28760 ,0.03180 ,0.31205 
373 ,69.5600 ,1.28959 ,0.03180 ,0.31205 
374 ,69.7361 ,1.29126 ,0.04207 ,0.41278 
375 ,69.9283 ,1.29304 ,0.00443 ,0.04342 
376 ,70.1043 ,1.29495 ,0.01127 ,0.11058 
377 ,70.2963 ,1.29676 ,0.01127 ,0.11058 
378 ,70.4884 ,1.29864 ,-0.00242 ,-0.02373 
379 ,70.6645 ,1.30046 ,-0.04006 ,-0.39310 
380 ,70.8404 ,1.30236 ,-0.01953 ,-0.19163 
381 ,71.0327 ,1.30406 ,-0.02980 ,-0.29236 
382 ,71.2088 ,1.30597 ,-0.04348 ,-0.42667 
383 ,71.4008 ,1.30786 ,-0.06060 ,-0.59457 
384 ,71.5768 ,1.30964 ,-0.05375 ,-0.52741 
385 ,71.7530 ,1.31135 ,-0.07086 ,-0.69530 
386 ,71.9611 ,1.31337 ,-0.08113 ,-0.79604 
387 ,72.1531 ,1.31530 ,-0.09482 ,-0.93035 
388 ,72.3293 ,1.31718 ,-0.11877 ,-1.16540 
389 ,72.5214 ,1.31897 ,-0.10508 ,-1.03108 
390 ,72.7132 ,1.32095 ,-0.12562 ,-1.23255 
391 ,72.8895 ,1.32272 ,-0.14273 ,-1.40045 
392 ,73.0654 ,1.32444 ,-0.14615 ,-1.43402 
393 ,73.2417 ,1.32626 ,-0.15642 ,-1.53476 
394 ,73.4337 ,1.32817 ,-0.16326 ,-1.60191 
395 ,73.6256 ,1.32996 ,-0.18379 ,-1.80338 
396 ,73.8018 ,1.33193 ,-0.17011 ,-1.66907 
397 ,73.9778 ,1.33358 ,-0.18037 ,-1.76981 
398 ,74.1539 ,1.33535 ,-0.20433 ,-2.00485 
399 ,74.3459 ,1.33728 ,-0.22144 ,-2.17275 
400 ,74.5220 ,1.33907 ,-0.22828 ,-2.23990 
401 ,74.7302 ,1.34100 ,-0.22486 ,-2.20632 
402 ,74.9062 ,1.34289 ,-0.23855 ,-2.34064 
403 ,75.0983 ,1.34483 ,-0.23513 ,-2.30706 
404 ,75.2744 ,1.34656 ,-0.25908 ,-2.54211 
405 ,75.4505 ,1.34833 ,-0.25908 ,-2.54211 
406 ,75.6266 ,1.35009 ,-0.26935 ,-2.64284 
407 ,75.8186 ,1.35203 ,-0.28646 ,-2.81073 
408 ,75.9947 ,1.35375 ,-0.28304 ,-2.77716 
409 ,76.1866 ,1.35560 ,-0.28988 ,-2.84431 
410 ,76.3788 ,1.35766 ,-0.30699 ,-3.01220 
411 ,76.5544 ,1.35939 ,-0.31384 ,-3.07936 
412 ,76.7468 ,1.36126 ,-0.33779 ,-3.31441 
413 ,76.9387 ,1.36321 ,-0.32410 ,-3.18010 
414 ,77.1148 ,1.36497 ,-0.34121 ,-3.34799 
415 ,77.2911 ,1.36674 ,-0.35148 ,-3.44872 
416 ,77.4669 ,1.36850 ,-0.38228 ,-3.75093 
417 ,77.6433 ,1.37022 ,-0.36517 ,-3.58303 
418 ,77.8193 ,1.37197 ,-0.36859 ,-3.61661 
419 ,77.9951 ,1.37373 ,-0.37201 ,-3.65019 
420 ,78.1716 ,1.37554 ,-0.38912 ,-3.81808 
421 ,78.3636 ,1.37743 ,-0.40966 ,-4.01955 
422 ,78.5556 ,1.37937 ,-0.40623 ,-3.98597 
423 ,78.7475 ,1.38124 ,-0.43019 ,-4.22102 
424 ,78.9399 ,1.38310 ,-0.43703 ,-4.28818 
425 ,79.1318 ,1.38512 ,-0.45072 ,-4.42249 
426 ,79.3080 ,1.38691 ,-0.46441 ,-4.55681 
427 ,79.4840 ,1.38861 ,-0.45414 ,-4.45607 
428 ,79.6601 ,1.39041 ,-0.45757 ,-4.48965 
429 ,79.8521 ,1.39227 ,-0.48837 ,-4.79185 
430 ,80.0282 ,1.39406 ,-0.49179 ,-4.82543 
431 ,80.2043 ,1.39580 ,-0.49179 ,-4.82543 
432 ,80.3805 ,1.39764 ,-0.48837 ,-4.79185 
433 ,80.5727 ,1.39953 ,-0.51574 ,-5.06048 
434 ,80.7484 ,1.40135 ,-0.51574 ,-5.06048 
435 ,80.9246 ,1.40306 ,-0.51917 ,-5.09406 
436 ,81.1007 ,1.40479 ,-0.51917 ,-5.09406 
437 ,81.2926 ,1.40666 ,-0.56023 ,-5.49700 
438 ,81.4848 ,1.40864 ,-0.54997 ,-5.39626 
439 ,81.6609 ,1.41040 ,-0.54997 ,-5.39626 
440 ,81.8530 ,1.41228 ,-0.57392 ,-5.63131 
441 ,82.0450 ,1.41419 ,-0.55339 ,-5.42984 
442 ,82.2208 ,1.41602 ,-0.58077 ,-5.69847 
443 ,82.3970 ,1.41781 ,-0.57050 ,-5.59773 
444 ,82.5893 ,1.41966 ,-0.61156 ,-6.00067 
445 ,82.7490 ,1.42139 ,-0.61841 ,-6.06783 
446 ,82.9255 ,1.42308 ,-0.62183 ,-6.10141 
447 ,83.1015 ,1.42491 ,-0.60814 ,-5.96709 
448 ,83.2777 ,1.42655 ,-0.62183 ,-6.10141 
449 ,83.4697 ,1.42854 ,-0.64236 ,-6.30288 
450 ,83.6618 ,1.43045 ,-0.65263 ,-6.40361 
451 ,83.8538 ,1.43228 ,-0.65947 ,-6.47077 
452 ,84.0297 ,1.43405 ,-0.66632 ,-6.53793 
453 ,84.2061 ,1.43587 ,-0.67659 ,-6.63866 
454 ,84.3819 ,1.43765 ,-0.68343 ,-6.70582 
455 ,84.5581 ,1.43937 ,-0.66974 ,-6.57150 
456 ,84.7499 ,1.44129 ,-0.70396 ,-6.90729 
457 ,84.9423 ,1.44318 ,-0.68685 ,-6.73940 
458 ,85.1344 ,1.44508 ,-0.70739 ,-6.94086 
459 ,85.3264 ,1.44706 ,-0.72792 ,-7.14233 
460 ,85.5023 ,1.44877 ,-0.71081 ,-6.97444 
461 ,85.6946 ,1.45071 ,-0.75187 ,-7.37738 
462 ,85.8867 ,1.45267 ,-0.74503 ,-7.31023 
463 ,86.0789 ,1.45448 ,-0.75530 ,-7.41096 
