Data stamp = , 11-04-2022 22:50:34 341

Calibration Values: 
Slope = , 26.54 , g/V 
Offset Voltage at no contact = , -0.501760 , V 

No , Time , Stage Position ,   Mass , Force 
   ,  (s) ,      (mm)      ,   (g)  , (mN)  

1 ,0.0000 ,0.59929 ,5.06581 ,49.70573 
2 ,0.2132 ,0.59938 ,5.09661 ,50.00793 
3 ,0.5336 ,0.60016 ,5.06581 ,49.70573 
4 ,0.7418 ,0.60164 ,5.06923 ,49.73931 
5 ,0.9174 ,0.60328 ,5.07950 ,49.84004 
6 ,1.0940 ,0.60490 ,5.08292 ,49.87362 
7 ,1.2858 ,0.60668 ,5.07608 ,49.80646 
8 ,1.4621 ,0.60853 ,5.07950 ,49.84004 
9 ,1.6701 ,0.61063 ,5.07608 ,49.80646 
10 ,1.8462 ,0.61245 ,5.04870 ,49.53784 
11 ,2.0221 ,0.61429 ,5.04528 ,49.50426 
12 ,2.2144 ,0.61611 ,5.03159 ,49.36995 
13 ,2.4385 ,0.61824 ,5.01448 ,49.20205 
14 ,2.6306 ,0.62042 ,4.98368 ,48.89985 
15 ,2.8067 ,0.62208 ,4.98026 ,48.86627 
16 ,3.0144 ,0.62404 ,4.98026 ,48.86627 
17 ,3.2068 ,0.62598 ,4.92550 ,48.32902 
18 ,3.4148 ,0.62799 ,4.92892 ,48.36260 
19 ,3.6069 ,0.62997 ,4.90155 ,48.09397 
20 ,3.8148 ,0.63211 ,4.90155 ,48.09397 
21 ,4.0070 ,0.63401 ,4.87417 ,47.82534 
22 ,4.2152 ,0.63619 ,4.86048 ,47.69103 
23 ,4.3911 ,0.63790 ,4.84679 ,47.55672 
24 ,4.5668 ,0.63966 ,4.83995 ,47.48956 
25 ,4.7430 ,0.64147 ,4.81599 ,47.25451 
26 ,4.9190 ,0.64323 ,4.80915 ,47.18736 
27 ,5.0954 ,0.64497 ,4.79888 ,47.08662 
28 ,5.3198 ,0.64705 ,4.77150 ,46.81800 
29 ,5.5275 ,0.64927 ,4.74755 ,46.58295 
30 ,5.7039 ,0.65100 ,4.73728 ,46.48221 
31 ,5.8959 ,0.65297 ,4.71675 ,46.28074 
32 ,6.1041 ,0.65500 ,4.69622 ,46.07927 
33 ,6.2960 ,0.65696 ,4.68253 ,45.94496 
34 ,6.4723 ,0.65871 ,4.69622 ,46.07927 
35 ,6.6641 ,0.66059 ,4.63804 ,45.50844 
36 ,6.8404 ,0.66239 ,4.64831 ,45.60918 
37 ,7.0485 ,0.66441 ,4.61751 ,45.30697 
38 ,7.2406 ,0.66635 ,4.61751 ,45.30697 
39 ,7.4486 ,0.66845 ,4.59355 ,45.07192 
40 ,7.6567 ,0.67049 ,4.58328 ,44.97119 
41 ,7.8646 ,0.67252 ,4.54906 ,44.63541 
42 ,8.0889 ,0.67476 ,4.54564 ,44.60183 
43 ,8.2969 ,0.67695 ,4.50457 ,44.19889 
44 ,8.4729 ,0.67873 ,4.50800 ,44.23247 
45 ,8.6647 ,0.68056 ,4.45666 ,43.72879 
46 ,8.8571 ,0.68246 ,4.46009 ,43.76237 
47 ,9.0652 ,0.68456 ,4.43613 ,43.52732 
48 ,9.2573 ,0.68652 ,4.44298 ,43.59448 
49 ,9.4654 ,0.68859 ,4.42586 ,43.42659 
50 ,9.6413 ,0.69037 ,4.40191 ,43.19154 
51 ,9.8174 ,0.69215 ,4.38822 ,43.05723 
52 ,10.0096 ,0.69403 ,4.36084 ,42.78860 
53 ,10.2178 ,0.69613 ,4.36084 ,42.78860 
54 ,10.4256 ,0.69820 ,4.33004 ,42.48639 
55 ,10.6018 ,0.69993 ,4.31978 ,42.38566 
56 ,10.8100 ,0.70200 ,4.30267 ,42.21777 
57 ,11.0020 ,0.70396 ,4.28556 ,42.04988 
58 ,11.1781 ,0.70576 ,4.28213 ,42.01630 
59 ,11.3701 ,0.70763 ,4.25818 ,41.78125 
60 ,11.5780 ,0.70974 ,4.25476 ,41.74767 
61 ,11.7542 ,0.71151 ,4.24107 ,41.61336 
62 ,11.9783 ,0.71368 ,4.20342 ,41.24400 
63 ,12.1546 ,0.71550 ,4.20685 ,41.27758 
64 ,12.3465 ,0.71731 ,4.16920 ,40.90821 
65 ,12.5224 ,0.71922 ,4.14525 ,40.67317 
66 ,12.6827 ,0.72088 ,4.15894 ,40.80748 
67 ,12.8747 ,0.72266 ,4.13840 ,40.60601 
68 ,13.0669 ,0.72462 ,4.11103 ,40.33738 
69 ,13.2748 ,0.72656 ,4.11103 ,40.33738 
70 ,13.4669 ,0.72857 ,4.06996 ,39.93444 
71 ,13.6427 ,0.73037 ,4.05969 ,39.83371 
72 ,13.8351 ,0.73222 ,4.08023 ,40.03518 
73 ,14.0109 ,0.73407 ,4.05285 ,39.76655 
74 ,14.1874 ,0.73586 ,4.02205 ,39.46435 
75 ,14.3952 ,0.73786 ,4.00836 ,39.33003 
76 ,14.5876 ,0.73975 ,3.98098 ,39.06141 
77 ,14.7955 ,0.74181 ,3.97756 ,39.02783 
78 ,14.9716 ,0.74367 ,3.97414 ,38.99425 
79 ,15.1636 ,0.74560 ,3.93992 ,38.65847 
80 ,15.3396 ,0.74735 ,3.93307 ,38.59131 
81 ,15.5317 ,0.74923 ,3.92965 ,38.55773 
82 ,15.7237 ,0.75117 ,3.88516 ,38.12122 
83 ,15.9157 ,0.75321 ,3.87832 ,38.05406 
84 ,16.1080 ,0.75501 ,3.87147 ,37.98690 
85 ,16.3161 ,0.75708 ,3.85436 ,37.81901 
86 ,16.5242 ,0.75917 ,3.82356 ,37.51681 
87 ,16.7162 ,0.76109 ,3.83383 ,37.61754 
88 ,16.8923 ,0.76290 ,3.78250 ,37.11387 
89 ,17.0682 ,0.76463 ,3.78934 ,37.18102 
90 ,17.2604 ,0.76647 ,3.76881 ,36.97955 
91 ,17.4366 ,0.76834 ,3.76539 ,36.94597 
92 ,17.6285 ,0.77014 ,3.73459 ,36.64377 
93 ,17.8206 ,0.77208 ,3.74143 ,36.71093 
94 ,18.0128 ,0.77398 ,3.71063 ,36.40872 
95 ,18.2048 ,0.77590 ,3.68668 ,36.17367 
96 ,18.4129 ,0.77800 ,3.69694 ,36.27441 
97 ,18.6370 ,0.78020 ,3.65246 ,35.83789 
98 ,18.8291 ,0.78215 ,3.62850 ,35.60284 
99 ,19.0371 ,0.78428 ,3.62850 ,35.60284 
100 ,19.2293 ,0.78612 ,3.60112 ,35.33422 
101 ,19.4213 ,0.78809 ,3.59428 ,35.26706 
102 ,19.6295 ,0.79020 ,3.57717 ,35.09917 
103 ,19.8054 ,0.79198 ,3.56348 ,34.96485 
104 ,20.0293 ,0.79422 ,3.55321 ,34.86412 
105 ,20.2215 ,0.79613 ,3.53268 ,34.66265 
106 ,20.4298 ,0.79819 ,3.51215 ,34.46118 
107 ,20.6217 ,0.80011 ,3.48819 ,34.22613 
108 ,20.8140 ,0.80199 ,3.50188 ,34.36045 
109 ,21.0381 ,0.80416 ,3.46766 ,34.02466 
110 ,21.2302 ,0.80620 ,3.45397 ,33.89035 
111 ,21.4381 ,0.80829 ,3.45055 ,33.85677 
112 ,21.6304 ,0.81010 ,3.43686 ,33.72246 
113 ,21.8385 ,0.81235 ,3.39579 ,33.31952 
114 ,22.0305 ,0.81416 ,3.37868 ,33.15163 
115 ,22.2386 ,0.81628 ,3.38210 ,33.18520 
116 ,22.4145 ,0.81808 ,3.36842 ,33.05089 
117 ,22.6227 ,0.82011 ,3.35130 ,32.88300 
118 ,22.8309 ,0.82221 ,3.33077 ,32.68153 
119 ,23.0229 ,0.82412 ,3.29997 ,32.37933 
120 ,23.2466 ,0.82623 ,3.30682 ,32.44648 
121 ,23.4392 ,0.82824 ,3.28628 ,32.24501 
122 ,23.6307 ,0.83017 ,3.26575 ,32.04354 
123 ,23.8233 ,0.83209 ,3.24864 ,31.87565 
124 ,24.0314 ,0.83425 ,3.23153 ,31.70776 
125 ,24.2551 ,0.83633 ,3.22468 ,31.64060 
126 ,24.4315 ,0.83824 ,3.20415 ,31.43913 
127 ,24.6556 ,0.84044 ,3.19388 ,31.33840 
128 ,24.8635 ,0.84251 ,3.16651 ,31.06977 
129 ,25.0397 ,0.84429 ,3.14597 ,30.86830 
130 ,25.2475 ,0.84624 ,3.13571 ,30.76757 
131 ,25.4239 ,0.84815 ,3.12202 ,30.63325 
132 ,25.6316 ,0.85021 ,3.12544 ,30.66683 
133 ,25.8077 ,0.85199 ,3.10149 ,30.43178 
134 ,25.9999 ,0.85385 ,3.08780 ,30.29747 
135 ,26.2081 ,0.85594 ,3.07069 ,30.12958 
136 ,26.3999 ,0.85786 ,3.05015 ,29.92811 
137 ,26.5923 ,0.85978 ,3.03989 ,29.82737 
138 ,26.8167 ,0.86204 ,3.02962 ,29.72664 
139 ,27.0243 ,0.86411 ,3.00224 ,29.45801 
140 ,27.2167 ,0.86604 ,2.99882 ,29.42444 
141 ,27.4248 ,0.86809 ,2.95433 ,28.98792 
142 ,27.6167 ,0.87003 ,2.96118 ,29.05507 
143 ,27.8409 ,0.87225 ,2.92353 ,28.68571 
144 ,28.0330 ,0.87415 ,2.92353 ,28.68571 
145 ,28.2410 ,0.87631 ,2.89273 ,28.38351 
146 ,28.4331 ,0.87819 ,2.88931 ,28.34993 
147 ,28.6412 ,0.88029 ,2.87562 ,28.21562 
148 ,28.8492 ,0.88229 ,2.84482 ,27.91341 
149 ,29.0253 ,0.88412 ,2.84825 ,27.94699 
150 ,29.2014 ,0.88603 ,2.83114 ,27.77910 
151 ,29.4096 ,0.88790 ,2.79349 ,27.40974 
152 ,29.6012 ,0.88987 ,2.82429 ,27.71194 
153 ,29.7937 ,0.89178 ,2.78665 ,27.34258 
154 ,30.0018 ,0.89389 ,2.79007 ,27.37616 
155 ,30.1939 ,0.89578 ,2.75243 ,27.00680 
156 ,30.3860 ,0.89768 ,2.72505 ,26.73817 
157 ,30.5940 ,0.89973 ,2.72505 ,26.73817 
158 ,30.7701 ,0.90160 ,2.71136 ,26.60386 
159 ,30.9621 ,0.90357 ,2.70794 ,26.57028 
160 ,31.1542 ,0.90536 ,2.68398 ,26.33523 
161 ,31.3463 ,0.90726 ,2.66345 ,26.13376 
162 ,31.5544 ,0.90940 ,2.65660 ,26.06661 
163 ,31.7461 ,0.91126 ,2.62238 ,25.73082 
164 ,31.9386 ,0.91322 ,2.63607 ,25.86514 
165 ,32.1465 ,0.91532 ,2.59158 ,25.42862 
166 ,32.3388 ,0.91717 ,2.59843 ,25.49577 
167 ,32.5468 ,0.91928 ,2.56763 ,25.19357 
168 ,32.7228 ,0.92118 ,2.58816 ,25.39504 
169 ,32.9309 ,0.92319 ,2.54710 ,24.99210 
170 ,33.1389 ,0.92520 ,2.55052 ,25.02568 
171 ,33.3311 ,0.92721 ,2.51287 ,24.65632 
172 ,33.5393 ,0.92910 ,2.49576 ,24.48842 
173 ,33.7312 ,0.93116 ,2.47523 ,24.28696 
174 ,33.9234 ,0.93320 ,2.47181 ,24.25338 
175 ,34.0994 ,0.93489 ,2.45812 ,24.11906 
176 ,34.2913 ,0.93676 ,2.43074 ,23.85044 
177 ,34.4836 ,0.93871 ,2.42732 ,23.81686 
178 ,34.6598 ,0.94049 ,2.41705 ,23.71612 
179 ,34.8518 ,0.94235 ,2.38625 ,23.41392 
180 ,35.0118 ,0.94410 ,2.38283 ,23.38034 
181 ,35.2039 ,0.94585 ,2.36230 ,23.17887 
182 ,35.3960 ,0.94776 ,2.37256 ,23.27961 
183 ,35.5881 ,0.94967 ,2.33492 ,22.91024 
184 ,35.7643 ,0.95148 ,2.31781 ,22.74235 
185 ,35.9880 ,0.95369 ,2.29043 ,22.47373 
186 ,36.1805 ,0.95562 ,2.31097 ,22.67520 
187 ,36.3726 ,0.95756 ,2.28359 ,22.40657 
188 ,36.5646 ,0.95945 ,2.26306 ,22.20510 
189 ,36.7567 ,0.96136 ,2.26306 ,22.20510 
190 ,36.9645 ,0.96342 ,2.24252 ,22.00363 
191 ,37.1407 ,0.96531 ,2.22883 ,21.86932 
192 ,37.3325 ,0.96720 ,2.23226 ,21.90290 
193 ,37.5248 ,0.96903 ,2.19803 ,21.56711 
194 ,37.7170 ,0.97101 ,2.19461 ,21.53353 
195 ,37.9092 ,0.97285 ,2.15697 ,21.16417 
196 ,38.1008 ,0.97493 ,2.16039 ,21.19775 
197 ,38.2933 ,0.97675 ,2.14670 ,21.06344 
198 ,38.5014 ,0.97889 ,2.11590 ,20.76123 
199 ,38.6932 ,0.98076 ,2.11248 ,20.72766 
200 ,38.8859 ,0.98264 ,2.09879 ,20.59334 
201 ,39.0774 ,0.98456 ,2.09537 ,20.55976 
202 ,39.2536 ,0.98643 ,2.04061 ,20.02251 
203 ,39.4455 ,0.98825 ,2.04746 ,20.08967 
204 ,39.6379 ,0.99021 ,2.04746 ,20.08967 
205 ,39.8457 ,0.99225 ,2.02693 ,19.88820 
206 ,40.0220 ,0.99407 ,1.99613 ,19.58599 
207 ,40.2297 ,0.99608 ,1.99270 ,19.55241 
208 ,40.4221 ,0.99800 ,1.97217 ,19.35094 
209 ,40.6302 ,1.00015 ,1.96875 ,19.31737 
210 ,40.8222 ,1.00204 ,1.95506 ,19.18305 
211 ,40.9984 ,1.00382 ,1.93795 ,19.01516 
212 ,41.2065 ,1.00584 ,1.91742 ,18.81369 
213 ,41.3824 ,1.00773 ,1.92768 ,18.91443 
214 ,41.5745 ,1.00955 ,1.90031 ,18.64580 
215 ,41.7666 ,1.01140 ,1.88662 ,18.51149 
216 ,41.9906 ,1.01370 ,1.85924 ,18.24286 
217 ,42.1668 ,1.01548 ,1.83871 ,18.04139 
218 ,42.3904 ,1.01765 ,1.83186 ,17.97423 
219 ,42.5669 ,1.01955 ,1.81817 ,17.83992 
220 ,42.7589 ,1.02137 ,1.81817 ,17.83992 
221 ,42.9349 ,1.02319 ,1.80791 ,17.73919 
222 ,43.1432 ,1.02519 ,1.78053 ,17.47056 
223 ,43.3349 ,1.02724 ,1.77369 ,17.40340 
224 ,43.5268 ,1.02908 ,1.74973 ,17.16836 
225 ,43.7030 ,1.03093 ,1.75315 ,17.20193 
226 ,43.8790 ,1.03271 ,1.73946 ,17.06762 
227 ,44.0712 ,1.03446 ,1.70524 ,16.73184 
228 ,44.2636 ,1.03644 ,1.69155 ,16.59752 
229 ,44.5034 ,1.03890 ,1.67444 ,16.42963 
230 ,44.6958 ,1.04071 ,1.67786 ,16.46321 
231 ,44.8719 ,1.04253 ,1.66760 ,16.36248 
232 ,45.0640 ,1.04438 ,1.65049 ,16.19458 
233 ,45.2402 ,1.04626 ,1.64364 ,16.12743 
234 ,45.4321 ,1.04813 ,1.62995 ,15.99311 
235 ,45.6079 ,1.04991 ,1.60600 ,15.75807 
236 ,45.8004 ,1.05176 ,1.58547 ,15.55660 
237 ,46.0084 ,1.05392 ,1.57178 ,15.42228 
238 ,46.2006 ,1.05584 ,1.55809 ,15.28797 
239 ,46.4086 ,1.05792 ,1.54782 ,15.18724 
240 ,46.6166 ,1.05993 ,1.54098 ,15.12008 
241 ,46.8087 ,1.06187 ,1.51702 ,14.88503 
242 ,47.0168 ,1.06396 ,1.52729 ,14.98577 
243 ,47.2089 ,1.06582 ,1.47938 ,14.51567 
244 ,47.4330 ,1.06807 ,1.47938 ,14.51567 
245 ,47.6408 ,1.07020 ,1.46569 ,14.38136 
246 ,47.8170 ,1.07197 ,1.45542 ,14.28062 
247 ,48.0091 ,1.07383 ,1.42462 ,13.97842 
248 ,48.2172 ,1.07594 ,1.43489 ,14.07915 
249 ,48.3930 ,1.07775 ,1.41778 ,13.91126 
250 ,48.6013 ,1.07977 ,1.40067 ,13.74337 
251 ,48.7772 ,1.08161 ,1.40067 ,13.74337 
252 ,48.9694 ,1.08347 ,1.35960 ,13.34043 
253 ,49.1775 ,1.08557 ,1.35618 ,13.30685 
254 ,49.3698 ,1.08740 ,1.36303 ,13.37401 
255 ,49.5776 ,1.08955 ,1.32538 ,13.00465 
256 ,49.7540 ,1.09136 ,1.32538 ,13.00465 
257 ,49.9298 ,1.09318 ,1.29458 ,12.70244 
258 ,50.1059 ,1.09486 ,1.28774 ,12.63528 
259 ,50.3139 ,1.09680 ,1.28774 ,12.63528 
260 ,50.5062 ,1.09882 ,1.24667 ,12.23235 
261 ,50.7140 ,1.10078 ,1.25352 ,12.29950 
262 ,50.8903 ,1.10271 ,1.23983 ,12.16519 
263 ,51.0823 ,1.10458 ,1.22272 ,11.99730 
264 ,51.2585 ,1.10640 ,1.22956 ,12.06445 
265 ,51.4505 ,1.10825 ,1.19534 ,11.72867 
266 ,51.6585 ,1.11040 ,1.18165 ,11.59436 
267 ,51.8345 ,1.11214 ,1.17481 ,11.52720 
268 ,52.0427 ,1.11420 ,1.15770 ,11.35931 
269 ,52.2508 ,1.11630 ,1.13716 ,11.15784 
270 ,52.4430 ,1.11821 ,1.14058 ,11.19142 
271 ,52.6506 ,1.12025 ,1.10979 ,10.88921 
272 ,52.8271 ,1.12208 ,1.09952 ,10.78848 
273 ,53.0190 ,1.12401 ,1.08583 ,10.65416 
274 ,53.2273 ,1.12598 ,1.07214 ,10.51985 
275 ,53.4353 ,1.12815 ,1.07899 ,10.58701 
276 ,53.6274 ,1.13000 ,1.03108 ,10.11691 
277 ,53.8354 ,1.13211 ,1.05503 ,10.35196 
278 ,54.0435 ,1.13412 ,1.02423 ,10.04976 
279 ,54.2197 ,1.13602 ,1.00370 ,9.84829 
280 ,54.3956 ,1.13775 ,1.00028 ,9.81471 
281 ,54.5879 ,1.13962 ,0.98659 ,9.68039 
282 ,54.8118 ,1.14186 ,0.97632 ,9.57966 
283 ,54.9878 ,1.14366 ,0.95921 ,9.41177 
284 ,55.1797 ,1.14557 ,0.94894 ,9.31103 
285 ,55.3722 ,1.14748 ,0.92499 ,9.07598 
286 ,55.5801 ,1.14955 ,0.91472 ,8.97525 
287 ,55.7883 ,1.15154 ,0.89761 ,8.80736 
288 ,55.9961 ,1.15367 ,0.90446 ,8.87451 
289 ,56.1885 ,1.15561 ,0.86681 ,8.50515 
290 ,56.3644 ,1.15749 ,0.87366 ,8.57231 
291 ,56.5726 ,1.15947 ,0.86339 ,8.47158 
292 ,56.7642 ,1.16141 ,0.82575 ,8.10221 
293 ,56.9566 ,1.16330 ,0.83943 ,8.23653 
294 ,57.1646 ,1.16546 ,0.82917 ,8.13579 
295 ,57.3404 ,1.16715 ,0.79837 ,7.83359 
296 ,57.5328 ,1.16902 ,0.80179 ,7.86717 
297 ,57.7409 ,1.17115 ,0.77099 ,7.56496 
298 ,57.9490 ,1.17319 ,0.76072 ,7.46423 
299 ,58.1250 ,1.17502 ,0.75046 ,7.36349 
300 ,58.3329 ,1.17705 ,0.73677 ,7.22918 
301 ,58.5253 ,1.17897 ,0.72308 ,7.09486 
302 ,58.7493 ,1.18120 ,0.71624 ,7.02771 
303 ,58.9253 ,1.18304 ,0.68201 ,6.69193 
304 ,59.1335 ,1.18508 ,0.68886 ,6.75908 
305 ,59.3096 ,1.18695 ,0.65806 ,6.45688 
306 ,59.5016 ,1.18872 ,0.66490 ,6.52403 
307 ,59.6779 ,1.19056 ,0.64437 ,6.32256 
308 ,59.9018 ,1.19276 ,0.62726 ,6.15467 
309 ,60.1100 ,1.19488 ,0.61699 ,6.05394 
310 ,60.3020 ,1.19673 ,0.60330 ,5.91962 
311 ,60.4938 ,1.19866 ,0.60330 ,5.91962 
312 ,60.6863 ,1.20062 ,0.57935 ,5.68458 
313 ,60.8942 ,1.20266 ,0.56908 ,5.58384 
314 ,61.0704 ,1.20450 ,0.55882 ,5.48311 
315 ,61.2786 ,1.20658 ,0.54513 ,5.34879 
316 ,61.4866 ,1.20858 ,0.52459 ,5.14732 
317 ,61.6945 ,1.21065 ,0.52117 ,5.11375 
318 ,61.9024 ,1.21280 ,0.49380 ,4.84512 
319 ,62.0789 ,1.21458 ,0.49037 ,4.81154 
320 ,62.2708 ,1.21648 ,0.49380 ,4.84512 
321 ,62.4630 ,1.21836 ,0.46642 ,4.57649 
322 ,62.6706 ,1.22044 ,0.48353 ,4.74438 
323 ,63.0550 ,1.22328 ,0.44931 ,4.40860 
324 ,63.2632 ,1.22631 ,0.40140 ,3.93850 
325 ,63.4392 ,1.22818 ,0.41509 ,4.07282 
326 ,63.6154 ,1.22990 ,0.40824 ,4.00566 
327 ,63.8233 ,1.23196 ,0.37744 ,3.70346 
328 ,64.0316 ,1.23395 ,0.38429 ,3.77061 
329 ,64.2394 ,1.23609 ,0.37744 ,3.70346 
330 ,64.4317 ,1.23795 ,0.34664 ,3.40125 
331 ,64.6237 ,1.23997 ,0.31926 ,3.13263 
332 ,64.7994 ,1.24179 ,0.33295 ,3.26694 
333 ,64.9593 ,1.24347 ,0.32611 ,3.19978 
334 ,65.1355 ,1.24518 ,0.32269 ,3.16620 
335 ,65.3116 ,1.24691 ,0.30215 ,2.96473 
336 ,65.5039 ,1.24872 ,0.27820 ,2.72969 
337 ,65.7279 ,1.25096 ,0.29531 ,2.89758 
338 ,65.9203 ,1.25294 ,0.25767 ,2.52822 
339 ,66.1283 ,1.25506 ,0.26109 ,2.56179 
340 ,66.3203 ,1.25698 ,0.22687 ,2.22601 
341 ,66.5122 ,1.25880 ,0.23029 ,2.25959 
342 ,66.7043 ,1.26071 ,0.20633 ,2.02454 
343 ,66.8803 ,1.26259 ,0.21660 ,2.12528 
344 ,67.0724 ,1.26440 ,0.20291 ,1.99096 
345 ,67.2646 ,1.26631 ,0.16869 ,1.65518 
346 ,67.4409 ,1.26813 ,0.16185 ,1.58802 
347 ,67.6330 ,1.27006 ,0.17553 ,1.72234 
348 ,67.8091 ,1.27182 ,0.15842 ,1.55445 
349 ,68.0011 ,1.27370 ,0.12762 ,1.25224 
350 ,68.1932 ,1.27559 ,0.14473 ,1.42013 
351 ,68.3852 ,1.27758 ,0.12078 ,1.18508 
352 ,68.5935 ,1.27972 ,0.11393 ,1.11793 
353 ,68.7694 ,1.28142 ,0.11393 ,1.11793 
354 ,68.9776 ,1.28347 ,0.09340 ,0.91646 
355 ,69.1697 ,1.28539 ,0.07629 ,0.74857 
356 ,69.3776 ,1.28747 ,0.05576 ,0.54710 
357 ,69.5697 ,1.28937 ,0.05576 ,0.54710 
358 ,69.7618 ,1.29129 ,0.04891 ,0.47994 
359 ,69.9380 ,1.29310 ,0.03522 ,0.34563 
360 ,70.1136 ,1.29492 ,0.02838 ,0.27847 
361 ,70.3061 ,1.29676 ,0.02838 ,0.27847 
362 ,70.4820 ,1.29862 ,0.01127 ,0.11058 
363 ,70.6742 ,1.30042 ,0.01127 ,0.11058 
364 ,70.8823 ,1.30253 ,-0.01953 ,-0.19163 
365 ,71.0904 ,1.30459 ,-0.01953 ,-0.19163 
366 ,71.2824 ,1.30648 ,-0.03664 ,-0.35952 
367 ,71.5066 ,1.30872 ,-0.04691 ,-0.46025 
368 ,71.7144 ,1.31085 ,-0.05033 ,-0.49383 
369 ,71.8907 ,1.31265 ,-0.06060 ,-0.59457 
370 ,72.0989 ,1.31470 ,-0.07086 ,-0.69530 
371 ,72.3068 ,1.31670 ,-0.08113 ,-0.79604 
372 ,72.4991 ,1.31861 ,-0.09140 ,-0.89677 
373 ,72.6910 ,1.32057 ,-0.09824 ,-0.96393 
374 ,72.8832 ,1.32254 ,-0.12562 ,-1.23255 
375 ,73.0910 ,1.32455 ,-0.11535 ,-1.13182 
376 ,73.2833 ,1.32645 ,-0.12562 ,-1.23255 
377 ,73.4755 ,1.32847 ,-0.14273 ,-1.40045 
378 ,73.6837 ,1.33050 ,-0.15984 ,-1.56834 
379 ,73.8916 ,1.33250 ,-0.14957 ,-1.46760 
380 ,74.0997 ,1.33474 ,-0.18037 ,-1.76981 
381 ,74.2918 ,1.33661 ,-0.18379 ,-1.80338 
382 ,74.4998 ,1.33866 ,-0.19406 ,-1.90412 
383 ,74.7399 ,1.34097 ,-0.21459 ,-2.10559 
384 ,74.9157 ,1.34285 ,-0.22144 ,-2.17275 
385 ,75.1081 ,1.34471 ,-0.23170 ,-2.27348 
386 ,75.3002 ,1.34667 ,-0.24539 ,-2.40779 
387 ,75.5082 ,1.34871 ,-0.24539 ,-2.40779 
388 ,75.7163 ,1.35091 ,-0.24881 ,-2.44137 
389 ,75.9085 ,1.35274 ,-0.24539 ,-2.40779 
390 ,76.1165 ,1.35487 ,-0.27619 ,-2.71000 
391 ,76.3246 ,1.35694 ,-0.28646 ,-2.81073 
392 ,76.5163 ,1.35882 ,-0.27619 ,-2.71000 
393 ,76.7088 ,1.36073 ,-0.31041 ,-3.04578 
394 ,76.9008 ,1.36268 ,-0.31726 ,-3.11294 
395 ,77.1089 ,1.36468 ,-0.30357 ,-2.97863 
396 ,77.3168 ,1.36675 ,-0.33779 ,-3.31441 
397 ,77.5091 ,1.36870 ,-0.33095 ,-3.24725 
398 ,77.7328 ,1.37102 ,-0.35148 ,-3.44872 
399 ,77.9093 ,1.37283 ,-0.35490 ,-3.48230 
400 ,78.1011 ,1.37469 ,-0.37544 ,-3.68377 
401 ,78.2934 ,1.37665 ,-0.36517 ,-3.58303 
402 ,78.4853 ,1.37854 ,-0.37886 ,-3.71735 
403 ,78.6610 ,1.38036 ,-0.41308 ,-4.05313 
404 ,78.8535 ,1.38216 ,-0.39255 ,-3.85166 
405 ,79.0456 ,1.38408 ,-0.41650 ,-4.08671 
406 ,79.2538 ,1.38619 ,-0.40623 ,-3.98597 
407 ,79.4618 ,1.38835 ,-0.42677 ,-4.18744 
408 ,79.6378 ,1.39004 ,-0.44388 ,-4.35534 
409 ,79.8140 ,1.39188 ,-0.43019 ,-4.22102 
410 ,80.0220 ,1.39389 ,-0.46441 ,-4.55681 
411 ,80.2137 ,1.39583 ,-0.47126 ,-4.62396 
412 ,80.3902 ,1.39761 ,-0.45414 ,-4.45607 
413 ,80.5662 ,1.39930 ,-0.47810 ,-4.69112 
414 ,80.7580 ,1.40121 ,-0.48494 ,-4.75828 
415 ,80.9505 ,1.40313 ,-0.49179 ,-4.82543 
416 ,81.1743 ,1.40535 ,-0.51574 ,-5.06048 
417 ,81.3665 ,1.40727 ,-0.51232 ,-5.02690 
418 ,81.5427 ,1.40909 ,-0.52943 ,-5.19479 
419 ,81.7347 ,1.41096 ,-0.52259 ,-5.12764 
420 ,81.9428 ,1.41307 ,-0.56023 ,-5.49700 
421 ,82.1510 ,1.41517 ,-0.54312 ,-5.32911 
422 ,82.3429 ,1.41702 ,-0.56708 ,-5.56415 
423 ,82.5511 ,1.41919 ,-0.57050 ,-5.59773 
424 ,82.7430 ,1.42102 ,-0.59103 ,-5.79920 
425 ,82.9348 ,1.42313 ,-0.57734 ,-5.66489 
426 ,83.1111 ,1.42479 ,-0.59445 ,-5.83278 
427 ,83.3193 ,1.42687 ,-0.61499 ,-6.03425 
428 ,83.5114 ,1.42878 ,-0.60814 ,-5.96709 
429 ,83.7035 ,1.43063 ,-0.62868 ,-6.16856 
430 ,83.8954 ,1.43265 ,-0.63210 ,-6.20214 
431 ,84.1198 ,1.43477 ,-0.63210 ,-6.20214 
432 ,84.3278 ,1.43698 ,-0.64579 ,-6.33646 
433 ,84.5359 ,1.43900 ,-0.66974 ,-6.57150 
434 ,84.7280 ,1.44091 ,-0.65263 ,-6.40361 
435 ,84.9360 ,1.44298 ,-0.67659 ,-6.63866 
436 ,85.1121 ,1.44482 ,-0.68343 ,-6.70582 
437 ,85.3042 ,1.44665 ,-0.69712 ,-6.84013 
438 ,85.4960 ,1.44858 ,-0.71423 ,-7.00802 
439 ,85.6720 ,1.45044 ,-0.70396 ,-6.90729 
440 ,85.8643 ,1.45222 ,-0.72450 ,-7.10876 
441 ,86.0401 ,1.45413 ,-0.73476 ,-7.20949 
442 ,86.2164 ,1.45581 ,-0.73476 ,-7.20949 
443 ,86.4247 ,1.45789 ,-0.73476 ,-7.20949 
444 ,86.6164 ,1.45977 ,-0.75187 ,-7.37738 
445 ,86.7928 ,1.46164 ,-0.75187 ,-7.37738 
446 ,86.9689 ,1.46334 ,-0.75530 ,-7.41096 
447 ,87.1607 ,1.46521 ,-0.79294 ,-7.78032 
448 ,87.3530 ,1.46712 ,-0.77583 ,-7.61243 
449 ,87.5613 ,1.46925 ,-0.80663 ,-7.91464 
450 ,87.7688 ,1.47118 ,-0.79978 ,-7.84748 
451 ,87.9614 ,1.47322 ,-0.82716 ,-8.11611 
452 ,88.1695 ,1.47534 ,-0.80663 ,-7.91464 
453 ,88.3776 ,1.47734 ,-0.84085 ,-8.25042 
454 ,88.5855 ,1.47948 ,-0.83401 ,-8.18326 
455 ,88.7937 ,1.48145 ,-0.84085 ,-8.25042 
456 ,88.9856 ,1.48344 ,-0.85112 ,-8.35115 
457 ,89.1937 ,1.48544 ,-0.87165 ,-8.55262 
458 ,89.3698 ,1.48741 ,-0.86481 ,-8.48547 
459 ,89.5619 ,1.48921 ,-0.88876 ,-8.72051 
460 ,89.7379 ,1.49105 ,-0.89560 ,-8.78767 
461 ,89.9620 ,1.49315 ,-0.89903 ,-8.82125 
462 ,90.1701 ,1.49538 ,-0.89218 ,-8.75409 
463 ,90.3617 ,1.49719 ,-0.90929 ,-8.92198 
