Data stamp = , 12-04-2022 13:10:52 359

Calibration Values: 
Slope = , 26.54 , g/V 
Offset Voltage at no contact = , -0.501760 , V 

No , Time , Stage Position ,   Mass , Force 
   ,  (s) ,      (mm)      ,   (g)  , (mN)  

1 ,0.0000 ,0.59946 ,5.00079 ,49.06774 
2 ,0.2468 ,0.59958 ,5.01106 ,49.16848 
3 ,0.6309 ,0.60079 ,5.00079 ,49.06774 
4 ,0.8230 ,0.60252 ,4.99394 ,49.00058 
5 ,1.0155 ,0.60433 ,5.00421 ,49.10132 
6 ,1.2236 ,0.60630 ,4.99052 ,48.96701 
7 ,1.4155 ,0.60827 ,5.00421 ,49.10132 
8 ,1.6076 ,0.61019 ,4.98710 ,48.93343 
9 ,1.7838 ,0.61204 ,4.96999 ,48.76554 
10 ,1.9597 ,0.61386 ,4.96999 ,48.76554 
11 ,2.1519 ,0.61569 ,4.95972 ,48.66480 
12 ,2.3280 ,0.61752 ,4.93577 ,48.42975 
13 ,2.5201 ,0.61934 ,4.91866 ,48.26186 
14 ,2.7282 ,0.62144 ,4.89812 ,48.06039 
15 ,2.9199 ,0.62335 ,4.88101 ,47.89250 
16 ,3.1124 ,0.62525 ,4.87417 ,47.82534 
17 ,3.3202 ,0.62739 ,4.84679 ,47.55672 
18 ,3.4966 ,0.62918 ,4.82968 ,47.38883 
19 ,3.6886 ,0.63105 ,4.81599 ,47.25451 
20 ,3.8805 ,0.63306 ,4.80230 ,47.12020 
21 ,4.0567 ,0.63475 ,4.79546 ,47.05304 
22 ,4.2328 ,0.63649 ,4.79204 ,47.01946 
23 ,4.4087 ,0.63835 ,4.75097 ,46.61653 
24 ,4.6010 ,0.64017 ,4.74070 ,46.51579 
25 ,4.7769 ,0.64195 ,4.72702 ,46.38148 
26 ,4.9851 ,0.64395 ,4.70990 ,46.21359 
27 ,5.1609 ,0.64577 ,4.68937 ,46.01212 
28 ,5.3371 ,0.64756 ,4.67911 ,45.91138 
29 ,5.4973 ,0.64925 ,4.68253 ,45.94496 
30 ,5.6732 ,0.65087 ,4.66884 ,45.81065 
31 ,5.8654 ,0.65271 ,4.63462 ,45.47486 
32 ,6.0574 ,0.65481 ,4.62777 ,45.40771 
33 ,6.2335 ,0.65653 ,4.61066 ,45.23981 
34 ,6.4256 ,0.65844 ,4.58671 ,45.00477 
35 ,6.6019 ,0.66026 ,4.56617 ,44.80330 
36 ,6.7777 ,0.66205 ,4.57644 ,44.90403 
37 ,6.9537 ,0.66374 ,4.55249 ,44.66898 
38 ,7.1298 ,0.66546 ,4.52511 ,44.40036 
39 ,7.3220 ,0.66743 ,4.52169 ,44.36678 
40 ,7.5138 ,0.66930 ,4.51484 ,44.29962 
41 ,7.6737 ,0.67103 ,4.48062 ,43.96384 
42 ,7.8499 ,0.67265 ,4.48404 ,43.99742 
43 ,8.0260 ,0.67441 ,4.45324 ,43.69521 
44 ,8.2024 ,0.67619 ,4.44640 ,43.62806 
45 ,8.4100 ,0.67816 ,4.42929 ,43.46016 
46 ,8.5865 ,0.67999 ,4.39849 ,43.15796 
47 ,8.7786 ,0.68196 ,4.38822 ,43.05723 
48 ,8.9545 ,0.68372 ,4.38822 ,43.05723 
49 ,9.1307 ,0.68546 ,4.36084 ,42.78860 
50 ,9.3225 ,0.68743 ,4.34373 ,42.62071 
51 ,9.5149 ,0.68923 ,4.31293 ,42.31850 
52 ,9.7229 ,0.69132 ,4.30609 ,42.25135 
53 ,9.8993 ,0.69314 ,4.29240 ,42.11703 
54 ,10.0751 ,0.69493 ,4.28556 ,42.04988 
55 ,10.2672 ,0.69678 ,4.26160 ,41.81483 
56 ,10.4592 ,0.69874 ,4.25818 ,41.78125 
57 ,10.6353 ,0.70050 ,4.25476 ,41.74767 
58 ,10.8114 ,0.70231 ,4.23422 ,41.54620 
59 ,11.0035 ,0.70412 ,4.21027 ,41.31115 
60 ,11.1793 ,0.70592 ,4.19658 ,41.17684 
61 ,11.3726 ,0.70780 ,4.17605 ,40.97537 
62 ,11.5633 ,0.70982 ,4.15209 ,40.74032 
63 ,11.7556 ,0.71167 ,4.15209 ,40.74032 
64 ,11.9319 ,0.71349 ,4.13156 ,40.53885 
65 ,12.1559 ,0.71560 ,4.11445 ,40.37096 
66 ,12.3320 ,0.71750 ,4.10418 ,40.27023 
67 ,12.5238 ,0.71935 ,4.06654 ,39.90087 
68 ,12.7162 ,0.72127 ,4.08023 ,40.03518 
69 ,12.9243 ,0.72336 ,4.03916 ,39.63224 
70 ,13.1004 ,0.72515 ,4.02547 ,39.49793 
71 ,13.3085 ,0.72719 ,4.00152 ,39.26288 
72 ,13.4844 ,0.72900 ,3.98441 ,39.09499 
73 ,13.6440 ,0.73073 ,3.97414 ,38.99425 
74 ,13.8205 ,0.73233 ,3.96387 ,38.89352 
75 ,14.0125 ,0.73421 ,3.96045 ,38.85994 
76 ,14.2049 ,0.73614 ,3.93992 ,38.65847 
77 ,14.4125 ,0.73815 ,3.92965 ,38.55773 
78 ,14.5889 ,0.74002 ,3.90912 ,38.35626 
79 ,14.7648 ,0.74184 ,3.89201 ,38.18837 
80 ,14.9569 ,0.74367 ,3.88516 ,38.12122 
81 ,15.1330 ,0.74550 ,3.87147 ,37.98690 
82 ,15.3091 ,0.74723 ,3.84410 ,37.71828 
83 ,15.4853 ,0.74898 ,3.82356 ,37.51681 
84 ,15.6612 ,0.75071 ,3.82014 ,37.48323 
85 ,15.8373 ,0.75252 ,3.81672 ,37.44965 
86 ,16.0293 ,0.75442 ,3.79276 ,37.21460 
87 ,16.2215 ,0.75625 ,3.77565 ,37.04671 
88 ,16.4136 ,0.75816 ,3.76539 ,36.94597 
89 ,16.5895 ,0.76003 ,3.73801 ,36.67735 
90 ,16.7815 ,0.76191 ,3.73459 ,36.64377 
91 ,16.9737 ,0.76382 ,3.72432 ,36.54303 
92 ,17.1819 ,0.76584 ,3.70721 ,36.37514 
93 ,17.3740 ,0.76787 ,3.69352 ,36.24083 
94 ,17.5660 ,0.76982 ,3.65588 ,35.87147 
95 ,17.7581 ,0.77173 ,3.65246 ,35.83789 
96 ,17.9342 ,0.77350 ,3.64561 ,35.77073 
97 ,18.1100 ,0.77523 ,3.60454 ,35.36779 
98 ,18.3024 ,0.77705 ,3.58743 ,35.19990 
99 ,18.4783 ,0.77890 ,3.60797 ,35.40137 
100 ,18.6545 ,0.78070 ,3.58743 ,35.19990 
101 ,18.8305 ,0.78245 ,3.56348 ,34.96485 
102 ,19.0066 ,0.78418 ,3.54979 ,34.83054 
103 ,19.1827 ,0.78597 ,3.52926 ,34.62907 
104 ,19.3584 ,0.78774 ,3.52584 ,34.59549 
105 ,19.5348 ,0.78953 ,3.49846 ,34.32687 
106 ,19.7109 ,0.79126 ,3.49846 ,34.32687 
107 ,19.9029 ,0.79319 ,3.48477 ,34.19255 
108 ,20.0790 ,0.79488 ,3.47108 ,34.05824 
109 ,20.2548 ,0.79679 ,3.45397 ,33.89035 
110 ,20.4311 ,0.79843 ,3.43344 ,33.68888 
111 ,20.6072 ,0.80020 ,3.41290 ,33.48741 
112 ,20.7669 ,0.80192 ,3.39579 ,33.31952 
113 ,20.9270 ,0.80354 ,3.38553 ,33.21878 
114 ,21.1031 ,0.80512 ,3.37868 ,33.15163 
115 ,21.2792 ,0.80692 ,3.37868 ,33.15163 
116 ,21.4553 ,0.80864 ,3.36157 ,32.98374 
117 ,21.6313 ,0.81044 ,3.34104 ,32.78227 
118 ,21.8074 ,0.81216 ,3.30682 ,32.44648 
119 ,21.9673 ,0.81391 ,3.30339 ,32.41290 
120 ,22.1433 ,0.81555 ,3.28628 ,32.24501 
121 ,22.3035 ,0.81730 ,3.29997 ,32.37933 
122 ,22.4797 ,0.81891 ,3.27602 ,32.14428 
123 ,22.6557 ,0.82066 ,3.26233 ,32.00996 
124 ,22.8158 ,0.82240 ,3.24180 ,31.80849 
125 ,22.9920 ,0.82406 ,3.22811 ,31.67418 
126 ,23.1680 ,0.82579 ,3.20757 ,31.47271 
127 ,23.3600 ,0.82763 ,3.20757 ,31.47271 
128 ,23.5361 ,0.82955 ,3.18020 ,31.20409 
129 ,23.7121 ,0.83123 ,3.16651 ,31.06977 
130 ,23.8883 ,0.83295 ,3.16309 ,31.03619 
131 ,24.0643 ,0.83476 ,3.14255 ,30.83472 
132 ,24.2243 ,0.83648 ,3.13913 ,30.80115 
133 ,24.4165 ,0.83820 ,3.13229 ,30.73399 
134 ,24.5925 ,0.84005 ,3.11518 ,30.56610 
135 ,24.7686 ,0.84178 ,3.09122 ,30.33105 
136 ,24.9446 ,0.84358 ,3.07753 ,30.19674 
137 ,25.1207 ,0.84531 ,3.07069 ,30.12958 
138 ,25.2969 ,0.84706 ,3.06384 ,30.06242 
139 ,25.4733 ,0.84885 ,3.03647 ,29.79380 
140 ,25.6493 ,0.85067 ,3.02278 ,29.65948 
141 ,25.8252 ,0.85238 ,3.00567 ,29.49159 
142 ,26.0013 ,0.85414 ,2.99882 ,29.42444 
143 ,26.1776 ,0.85585 ,2.98855 ,29.32370 
144 ,26.3694 ,0.85773 ,2.96118 ,29.05507 
145 ,26.5776 ,0.85987 ,2.95091 ,28.95434 
146 ,26.7697 ,0.86178 ,2.93722 ,28.82003 
147 ,26.9617 ,0.86366 ,2.94407 ,28.88718 
148 ,27.1379 ,0.86550 ,2.92011 ,28.65213 
149 ,27.3299 ,0.86733 ,2.89273 ,28.38351 
150 ,27.5057 ,0.86913 ,2.87905 ,28.24919 
151 ,27.6821 ,0.87089 ,2.88931 ,28.34993 
152 ,27.8743 ,0.87283 ,2.84482 ,27.91341 
153 ,28.0500 ,0.87458 ,2.82429 ,27.71194 
154 ,28.2424 ,0.87641 ,2.83798 ,27.84625 
155 ,28.4345 ,0.87841 ,2.80718 ,27.54405 
156 ,28.6102 ,0.88019 ,2.78665 ,27.34258 
157 ,28.8026 ,0.88207 ,2.79349 ,27.40974 
158 ,28.9787 ,0.88385 ,2.77638 ,27.24185 
159 ,29.1706 ,0.88573 ,2.75927 ,27.07395 
160 ,29.3626 ,0.88767 ,2.75927 ,27.07395 
161 ,29.5386 ,0.88947 ,2.73189 ,26.80533 
162 ,29.7468 ,0.89147 ,2.71478 ,26.63744 
163 ,29.9391 ,0.89348 ,2.70109 ,26.50312 
164 ,30.1151 ,0.89526 ,2.68056 ,26.30165 
165 ,30.2911 ,0.89702 ,2.66003 ,26.10018 
166 ,30.4673 ,0.89876 ,2.65660 ,26.06661 
167 ,30.6588 ,0.90065 ,2.62923 ,25.79798 
168 ,30.8354 ,0.90245 ,2.62238 ,25.73082 
169 ,31.0273 ,0.90437 ,2.60869 ,25.59651 
170 ,31.2035 ,0.90616 ,2.62238 ,25.73082 
171 ,31.3797 ,0.90787 ,2.59158 ,25.42862 
172 ,31.5556 ,0.90965 ,2.56421 ,25.15999 
173 ,31.7316 ,0.91141 ,2.54710 ,24.99210 
174 ,31.9239 ,0.91325 ,2.56763 ,25.19357 
175 ,32.1319 ,0.91535 ,2.53341 ,24.85779 
176 ,32.3400 ,0.91737 ,2.49918 ,24.52200 
177 ,32.5317 ,0.91940 ,2.50261 ,24.55558 
178 ,32.7082 ,0.92116 ,2.47523 ,24.28696 
179 ,32.9004 ,0.92301 ,2.46839 ,24.21980 
180 ,33.0924 ,0.92499 ,2.44443 ,23.98475 
181 ,33.2843 ,0.92692 ,2.45127 ,24.05191 
182 ,33.4601 ,0.92867 ,2.43759 ,23.91759 
183 ,33.6366 ,0.93047 ,2.40679 ,23.61539 
184 ,33.8283 ,0.93237 ,2.39994 ,23.54823 
185 ,34.0048 ,0.93413 ,2.39652 ,23.51465 
186 ,34.2129 ,0.93610 ,2.37256 ,23.27961 
187 ,34.4050 ,0.93807 ,2.35888 ,23.14529 
188 ,34.5648 ,0.93983 ,2.34519 ,23.01098 
189 ,34.7410 ,0.94145 ,2.33834 ,22.94382 
190 ,34.9171 ,0.94324 ,2.31439 ,22.70877 
191 ,35.0933 ,0.94499 ,2.29385 ,22.50731 
192 ,35.2851 ,0.94696 ,2.30070 ,22.57446 
193 ,35.4773 ,0.94884 ,2.26306 ,22.20510 
194 ,35.6532 ,0.95060 ,2.25621 ,22.13794 
195 ,35.8455 ,0.95247 ,2.24937 ,22.07079 
196 ,36.0213 ,0.95429 ,2.22883 ,21.86932 
197 ,36.2137 ,0.95611 ,2.21515 ,21.73500 
198 ,36.4059 ,0.95817 ,2.21857 ,21.76858 
199 ,36.5818 ,0.95984 ,2.19461 ,21.53353 
200 ,36.7577 ,0.96170 ,2.16039 ,21.19775 
201 ,36.9498 ,0.96355 ,2.16723 ,21.26491 
202 ,37.1255 ,0.96528 ,2.17066 ,21.29849 
203 ,37.3021 ,0.96709 ,2.15012 ,21.09702 
204 ,37.4781 ,0.96885 ,2.12275 ,20.82839 
205 ,37.6701 ,0.97075 ,2.12275 ,20.82839 
206 ,37.8623 ,0.97264 ,2.09879 ,20.59334 
207 ,38.0384 ,0.97445 ,2.07826 ,20.39187 
208 ,38.2304 ,0.97633 ,2.07826 ,20.39187 
209 ,38.4063 ,0.97811 ,2.07141 ,20.32472 
210 ,38.5985 ,0.98000 ,2.03035 ,19.92178 
211 ,38.7748 ,0.98181 ,2.02008 ,19.82104 
212 ,38.9507 ,0.98354 ,2.02693 ,19.88820 
213 ,39.1428 ,0.98538 ,2.01666 ,19.78746 
214 ,39.3511 ,0.98749 ,1.99270 ,19.55241 
215 ,39.5429 ,0.98942 ,1.98586 ,19.48526 
216 ,39.7189 ,0.99125 ,1.95506 ,19.18305 
217 ,39.9111 ,0.99309 ,1.95506 ,19.18305 
218 ,40.0873 ,0.99490 ,1.94822 ,19.11590 
219 ,40.2952 ,0.99697 ,1.92426 ,18.88085 
220 ,40.4874 ,0.99889 ,1.91399 ,18.78011 
221 ,40.6793 ,1.00079 ,1.88319 ,18.47791 
222 ,40.8551 ,1.00264 ,1.86608 ,18.31002 
223 ,41.0315 ,1.00433 ,1.87635 ,18.41075 
224 ,41.2078 ,1.00612 ,1.86266 ,18.27644 
225 ,41.3994 ,1.00797 ,1.82844 ,17.94066 
226 ,41.5917 ,1.00994 ,1.82844 ,17.94066 
227 ,41.7840 ,1.01185 ,1.80449 ,17.70561 
228 ,41.9599 ,1.01364 ,1.78737 ,17.53772 
229 ,42.1361 ,1.01542 ,1.78737 ,17.53772 
230 ,42.3442 ,1.01742 ,1.76684 ,17.33625 
231 ,42.5198 ,1.01925 ,1.74973 ,17.16836 
232 ,42.6964 ,1.02099 ,1.74631 ,17.13478 
233 ,42.8723 ,1.02278 ,1.73604 ,17.03404 
234 ,43.0485 ,1.02452 ,1.72920 ,16.96689 
235 ,43.2566 ,1.02645 ,1.70182 ,16.69826 
236 ,43.4486 ,1.02848 ,1.69840 ,16.66468 
237 ,43.6408 ,1.03042 ,1.67444 ,16.42963 
238 ,43.8325 ,1.03237 ,1.67786 ,16.46321 
239 ,44.0089 ,1.03412 ,1.66418 ,16.32890 
240 ,44.1850 ,1.03589 ,1.65049 ,16.19458 
241 ,44.3771 ,1.03772 ,1.64364 ,16.12743 
242 ,44.5688 ,1.03966 ,1.61627 ,15.85880 
243 ,44.7610 ,1.04166 ,1.58204 ,15.52302 
244 ,44.9531 ,1.04357 ,1.59231 ,15.62375 
245 ,45.1294 ,1.04532 ,1.58547 ,15.55660 
246 ,45.3376 ,1.04740 ,1.55809 ,15.28797 
247 ,45.5295 ,1.04929 ,1.56151 ,15.32155 
248 ,45.7054 ,1.05115 ,1.52387 ,14.95219 
249 ,45.8816 ,1.05288 ,1.52387 ,14.95219 
250 ,46.0736 ,1.05476 ,1.51702 ,14.88503 
251 ,46.2497 ,1.05651 ,1.51360 ,14.85145 
252 ,46.4417 ,1.05836 ,1.48622 ,14.58283 
253 ,46.6179 ,1.06020 ,1.47938 ,14.51567 
254 ,46.7939 ,1.06198 ,1.47253 ,14.44851 
255 ,46.9699 ,1.06371 ,1.44174 ,14.14631 
256 ,47.1462 ,1.06549 ,1.42462 ,13.97842 
257 ,47.3223 ,1.06727 ,1.41094 ,13.84410 
258 ,47.4982 ,1.06899 ,1.41094 ,13.84410 
259 ,47.6743 ,1.07076 ,1.40409 ,13.77695 
260 ,47.8343 ,1.07247 ,1.39725 ,13.70979 
261 ,48.0103 ,1.07409 ,1.39383 ,13.67621 
262 ,48.2027 ,1.07594 ,1.35960 ,13.34043 
263 ,48.3785 ,1.07785 ,1.35960 ,13.34043 
264 ,48.5546 ,1.07955 ,1.34591 ,13.20612 
265 ,48.7307 ,1.08132 ,1.32880 ,13.03822 
266 ,48.9068 ,1.08308 ,1.31169 ,12.87033 
267 ,49.0829 ,1.08486 ,1.29116 ,12.66886 
268 ,49.2750 ,1.08671 ,1.29458 ,12.70244 
269 ,49.4670 ,1.08869 ,1.27063 ,12.46739 
270 ,49.6431 ,1.09040 ,1.24667 ,12.23235 
271 ,49.8192 ,1.09219 ,1.24667 ,12.23235 
272 ,50.0271 ,1.09414 ,1.22272 ,11.99730 
273 ,50.2193 ,1.09618 ,1.22956 ,12.06445 
274 ,50.4113 ,1.09806 ,1.20218 ,11.79583 
275 ,50.6195 ,1.10019 ,1.20561 ,11.82941 
276 ,50.8115 ,1.10210 ,1.18165 ,11.59436 
277 ,51.0191 ,1.10413 ,1.18165 ,11.59436 
278 ,51.1953 ,1.10598 ,1.17481 ,11.52720 
279 ,51.3713 ,1.10774 ,1.13374 ,11.12426 
280 ,51.5636 ,1.10959 ,1.13032 ,11.09068 
281 ,51.7719 ,1.11169 ,1.11663 ,10.95637 
282 ,51.9798 ,1.11372 ,1.09952 ,10.78848 
283 ,52.1720 ,1.11564 ,1.08583 ,10.65416 
284 ,52.3801 ,1.11774 ,1.08241 ,10.62059 
285 ,52.5721 ,1.11969 ,1.05503 ,10.35196 
286 ,52.7641 ,1.12159 ,1.05503 ,10.35196 
287 ,52.9402 ,1.12338 ,1.04476 ,10.25123 
288 ,53.1160 ,1.12515 ,1.03792 ,10.18407 
289 ,53.2925 ,1.12692 ,1.00712 ,9.88186 
290 ,53.4845 ,1.12882 ,1.01054 ,9.91544 
291 ,53.6605 ,1.13057 ,1.00028 ,9.81471 
292 ,53.8367 ,1.13240 ,0.97974 ,9.61324 
293 ,54.0126 ,1.13415 ,0.97632 ,9.57966 
294 ,54.1885 ,1.13595 ,0.96605 ,9.47892 
295 ,54.3809 ,1.13774 ,0.94894 ,9.31103 
296 ,54.6051 ,1.13987 ,0.92499 ,9.07598 
297 ,54.7808 ,1.14183 ,0.91472 ,8.97525 
298 ,54.9570 ,1.14355 ,0.91130 ,8.94167 
299 ,55.1333 ,1.14535 ,0.88392 ,8.67305 
300 ,55.3252 ,1.14723 ,0.87366 ,8.57231 
301 ,55.5014 ,1.14901 ,0.87366 ,8.57231 
302 ,55.6774 ,1.15078 ,0.85997 ,8.43800 
303 ,55.8695 ,1.15268 ,0.82917 ,8.13579 
304 ,56.0454 ,1.15446 ,0.82917 ,8.13579 
305 ,56.2216 ,1.15619 ,0.81890 ,8.03506 
306 ,56.4138 ,1.15813 ,0.80179 ,7.86717 
307 ,56.6219 ,1.16023 ,0.79837 ,7.83359 
308 ,56.8299 ,1.16223 ,0.76415 ,7.49780 
309 ,57.0221 ,1.16412 ,0.77099 ,7.56496 
310 ,57.2301 ,1.16618 ,0.74704 ,7.32991 
311 ,57.4063 ,1.16804 ,0.73335 ,7.19560 
312 ,57.5822 ,1.16976 ,0.72992 ,7.16202 
313 ,57.7584 ,1.17155 ,0.71966 ,7.06129 
314 ,57.9664 ,1.17352 ,0.68886 ,6.75908 
315 ,58.1425 ,1.17542 ,0.70255 ,6.89340 
316 ,58.3186 ,1.17721 ,0.68544 ,6.72550 
317 ,58.4946 ,1.17899 ,0.67517 ,6.62477 
318 ,58.6707 ,1.18065 ,0.64779 ,6.35614 
319 ,58.8468 ,1.18246 ,0.65121 ,6.38972 
320 ,59.0228 ,1.18421 ,0.64437 ,6.32256 
321 ,59.1988 ,1.18594 ,0.62726 ,6.15467 
322 ,59.3751 ,1.18770 ,0.61015 ,5.98678 
323 ,59.5666 ,1.18963 ,0.61015 ,5.98678 
324 ,59.7592 ,1.19149 ,0.58277 ,5.71815 
325 ,59.9512 ,1.19346 ,0.57935 ,5.68458 
326 ,60.1433 ,1.19541 ,0.55882 ,5.48311 
327 ,60.3192 ,1.19715 ,0.55197 ,5.41595 
328 ,60.5111 ,1.19909 ,0.52117 ,5.11375 
329 ,60.7037 ,1.20091 ,0.51775 ,5.08017 
330 ,60.9117 ,1.20299 ,0.51091 ,5.01301 
331 ,61.1038 ,1.20492 ,0.49722 ,4.87870 
332 ,61.2798 ,1.20678 ,0.48695 ,4.77796 
333 ,61.4719 ,1.20862 ,0.47326 ,4.64365 
334 ,61.6480 ,1.21051 ,0.46984 ,4.61007 
335 ,61.8241 ,1.21221 ,0.45957 ,4.50934 
336 ,62.0321 ,1.21419 ,0.43904 ,4.30787 
337 ,62.2082 ,1.21601 ,0.43562 ,4.27429 
338 ,62.4003 ,1.21788 ,0.42877 ,4.20713 
339 ,62.5764 ,1.21970 ,0.39797 ,3.90493 
340 ,62.7684 ,1.22167 ,0.39797 ,3.90493 
341 ,62.9766 ,1.22369 ,0.36718 ,3.60272 
342 ,63.1686 ,1.22559 ,0.37060 ,3.63630 
343 ,63.3605 ,1.22750 ,0.35349 ,3.46841 
344 ,63.5367 ,1.22938 ,0.33980 ,3.33410 
345 ,63.7285 ,1.23121 ,0.34322 ,3.36767 
346 ,63.9048 ,1.23303 ,0.33638 ,3.30052 
347 ,64.0970 ,1.23486 ,0.30900 ,3.03189 
348 ,64.2730 ,1.23672 ,0.30558 ,2.99831 
349 ,64.4491 ,1.23844 ,0.30215 ,2.96473 
350 ,64.6412 ,1.24034 ,0.27135 ,2.66253 
351 ,64.8169 ,1.24225 ,0.25424 ,2.49464 
352 ,65.0095 ,1.24395 ,0.26793 ,2.62895 
353 ,65.2334 ,1.24618 ,0.23713 ,2.32675 
354 ,65.4094 ,1.24802 ,0.26451 ,2.59537 
355 ,65.5857 ,1.24975 ,0.22687 ,2.22601 
356 ,65.7776 ,1.25171 ,0.20633 ,2.02454 
357 ,65.9697 ,1.25360 ,0.18922 ,1.85665 
358 ,66.1617 ,1.25554 ,0.18238 ,1.78949 
359 ,66.3539 ,1.25751 ,0.18238 ,1.78949 
360 ,66.5299 ,1.25926 ,0.17211 ,1.68876 
361 ,66.7221 ,1.26109 ,0.14473 ,1.42013 
362 ,66.9138 ,1.26300 ,0.16185 ,1.58802 
363 ,67.1065 ,1.26494 ,0.14131 ,1.38655 
364 ,67.2982 ,1.26701 ,0.12420 ,1.21866 
365 ,67.4740 ,1.26872 ,0.12420 ,1.21866 
366 ,67.6661 ,1.27058 ,0.11051 ,1.08435 
367 ,67.8422 ,1.27234 ,0.09682 ,0.95004 
368 ,68.0182 ,1.27409 ,0.08314 ,0.81572 
369 ,68.2105 ,1.27597 ,0.09340 ,0.91646 
370 ,68.4187 ,1.27806 ,0.06602 ,0.64783 
371 ,68.5949 ,1.27991 ,0.05234 ,0.51352 
372 ,68.7869 ,1.28179 ,0.04891 ,0.47994 
373 ,68.9790 ,1.28365 ,0.04549 ,0.44636 
374 ,69.1544 ,1.28555 ,0.03180 ,0.31205 
375 ,69.3311 ,1.28721 ,0.01127 ,0.11058 
376 ,69.5392 ,1.28930 ,0.00443 ,0.04342 
377 ,69.7312 ,1.29123 ,-0.00584 ,-0.05731 
378 ,69.9075 ,1.29300 ,-0.02637 ,-0.25878 
379 ,70.0992 ,1.29489 ,-0.01953 ,-0.19163 
380 ,70.2753 ,1.29667 ,-0.02980 ,-0.29236 
381 ,70.4675 ,1.29861 ,-0.04691 ,-0.46025 
382 ,70.6435 ,1.30033 ,-0.06060 ,-0.59457 
383 ,70.8197 ,1.30214 ,-0.07428 ,-0.72888 
384 ,71.0117 ,1.30403 ,-0.06402 ,-0.62814 
385 ,71.1879 ,1.30578 ,-0.08455 ,-0.82961 
386 ,71.3639 ,1.30763 ,-0.08455 ,-0.82961 
387 ,71.5398 ,1.30931 ,-0.10508 ,-1.03108 
388 ,71.7160 ,1.31110 ,-0.10166 ,-0.99751 
389 ,71.8920 ,1.31291 ,-0.10508 ,-1.03108 
390 ,72.0679 ,1.31460 ,-0.13246 ,-1.29971 
391 ,72.2443 ,1.31638 ,-0.13246 ,-1.29971 
392 ,72.4201 ,1.31810 ,-0.14615 ,-1.43402 
393 ,72.6122 ,1.31999 ,-0.15299 ,-1.50118 
394 ,72.7885 ,1.32177 ,-0.16326 ,-1.60191 
395 ,72.9644 ,1.32362 ,-0.17353 ,-1.70265 
396 ,73.1406 ,1.32533 ,-0.17011 ,-1.66907 
397 ,73.3167 ,1.32709 ,-0.18037 ,-1.76981 
398 ,73.4925 ,1.32885 ,-0.19064 ,-1.87054 
399 ,73.6849 ,1.33076 ,-0.22144 ,-2.17275 
400 ,73.8766 ,1.33261 ,-0.21117 ,-2.07201 
401 ,74.0530 ,1.33448 ,-0.22486 ,-2.20632 
402 ,74.2449 ,1.33633 ,-0.24539 ,-2.40779 
403 ,74.4371 ,1.33831 ,-0.23170 ,-2.27348 
404 ,74.6291 ,1.34019 ,-0.26593 ,-2.60926 
405 ,74.8053 ,1.34207 ,-0.26593 ,-2.60926 
406 ,74.9816 ,1.34374 ,-0.26935 ,-2.64284 
407 ,75.1734 ,1.34562 ,-0.27619 ,-2.71000 
408 ,75.3494 ,1.34741 ,-0.29673 ,-2.91147 
409 ,75.5413 ,1.34932 ,-0.30015 ,-2.94505 
410 ,75.7177 ,1.35110 ,-0.29673 ,-2.91147 
411 ,75.9258 ,1.35303 ,-0.31384 ,-3.07936 
412 ,76.1178 ,1.35505 ,-0.32068 ,-3.14652 
413 ,76.3098 ,1.35700 ,-0.34806 ,-3.41514 
414 ,76.5021 ,1.35886 ,-0.32752 ,-3.21367 
415 ,76.6940 ,1.36086 ,-0.34121 ,-3.34799 
416 ,76.8701 ,1.36264 ,-0.37201 ,-3.65019 
417 ,77.0462 ,1.36437 ,-0.36859 ,-3.61661 
418 ,77.2223 ,1.36614 ,-0.36517 ,-3.58303 
419 ,77.4143 ,1.36805 ,-0.39597 ,-3.88524 
420 ,77.5900 ,1.36977 ,-0.40623 ,-3.98597 
421 ,77.7663 ,1.37153 ,-0.39939 ,-3.91882 
422 ,77.9426 ,1.37340 ,-0.40281 ,-3.95240 
423 ,78.1507 ,1.37525 ,-0.43703 ,-4.28818 
424 ,78.3427 ,1.37732 ,-0.41650 ,-4.08671 
425 ,78.5188 ,1.37918 ,-0.44046 ,-4.32176 
426 ,78.6950 ,1.38084 ,-0.45757 ,-4.48965 
427 ,78.8865 ,1.38284 ,-0.45757 ,-4.48965 
428 ,79.0630 ,1.38456 ,-0.45072 ,-4.42249 
429 ,79.2550 ,1.38644 ,-0.47126 ,-4.62396 
430 ,79.4473 ,1.38837 ,-0.47810 ,-4.69112 
431 ,79.6391 ,1.39030 ,-0.48494 ,-4.75828 
432 ,79.8309 ,1.39216 ,-0.49521 ,-4.85901 
433 ,80.0075 ,1.39399 ,-0.50890 ,-4.99332 
434 ,80.1993 ,1.39587 ,-0.52259 ,-5.12764 
435 ,80.3915 ,1.39775 ,-0.52601 ,-5.16121 
436 ,80.5998 ,1.39973 ,-0.53970 ,-5.29553 
437 ,80.7917 ,1.40183 ,-0.54312 ,-5.32911 
438 ,80.9517 ,1.40348 ,-0.54654 ,-5.36268 
439 ,81.1279 ,1.40516 ,-0.56023 ,-5.49700 
440 ,81.3198 ,1.40705 ,-0.55339 ,-5.42984 
441 ,81.5121 ,1.40898 ,-0.58419 ,-5.73205 
442 ,81.6882 ,1.41074 ,-0.59103 ,-5.79920 
443 ,81.8801 ,1.41265 ,-0.60814 ,-5.96709 
444 ,82.0402 ,1.41440 ,-0.60814 ,-5.96709 
445 ,82.2164 ,1.41604 ,-0.62183 ,-6.10141 
446 ,82.4084 ,1.41790 ,-0.60814 ,-5.96709 
447 ,82.5846 ,1.41969 ,-0.61841 ,-6.06783 
448 ,82.7764 ,1.42167 ,-0.63552 ,-6.23572 
449 ,82.9687 ,1.42352 ,-0.62868 ,-6.16856 
450 ,83.1605 ,1.42542 ,-0.63210 ,-6.20214 
451 ,83.3849 ,1.42757 ,-0.64921 ,-6.37003 
452 ,83.5606 ,1.42953 ,-0.66632 ,-6.53793 
453 ,83.7690 ,1.43142 ,-0.65947 ,-6.47077 
454 ,83.9450 ,1.43335 ,-0.67316 ,-6.60508 
455 ,84.1046 ,1.43504 ,-0.68685 ,-6.73940 
456 ,84.2811 ,1.43665 ,-0.69027 ,-6.77297 
457 ,84.4892 ,1.43872 ,-0.69712 ,-6.84013 
458 ,84.6812 ,1.44060 ,-0.71423 ,-7.00802 
459 ,84.8735 ,1.44263 ,-0.72107 ,-7.07518 
460 ,85.0654 ,1.44450 ,-0.72450 ,-7.10876 
461 ,85.2415 ,1.44633 ,-0.72107 ,-7.07518 
462 ,85.4176 ,1.44807 ,-0.74503 ,-7.31023 
463 ,85.6097 ,1.44998 ,-0.74161 ,-7.27665 
