Data stamp = , 11-04-2022 17:34:02 782

Calibration Values: 
Slope = , 26.54 , g/V 
Offset Voltage at no contact = , -0.501760 , V 

No , Time , Stage Position ,   Mass , Force 
   ,  (s) ,      (mm)      ,   (g)  , (mN)  

1 ,0.0000 ,0.59929 ,5.14452 ,50.47803 
2 ,0.2371 ,0.59941 ,5.14110 ,50.44445 
3 ,0.5574 ,0.60029 ,5.15479 ,50.57876 
4 ,0.7816 ,0.60190 ,5.16505 ,50.67950 
5 ,0.9893 ,0.60384 ,5.16163 ,50.64592 
6 ,1.1813 ,0.60573 ,5.15821 ,50.61234 
7 ,1.3734 ,0.60758 ,5.14452 ,50.47803 
8 ,1.5660 ,0.60956 ,5.16505 ,50.67950 
9 ,1.7900 ,0.61184 ,5.16163 ,50.64592 
10 ,1.9822 ,0.61376 ,5.14794 ,50.51161 
11 ,2.1903 ,0.61586 ,5.13425 ,50.37729 
12 ,2.3823 ,0.61776 ,5.11714 ,50.20940 
13 ,2.6224 ,0.62006 ,5.09661 ,50.00793 
14 ,2.8145 ,0.62213 ,5.06581 ,49.70573 
15 ,3.0224 ,0.62411 ,5.05554 ,49.60499 
16 ,3.2306 ,0.62611 ,5.04528 ,49.50426 
17 ,3.4066 ,0.62809 ,5.00763 ,49.13490 
18 ,3.5827 ,0.62978 ,4.99394 ,49.00058 
19 ,3.7749 ,0.63168 ,4.99394 ,49.00058 
20 ,3.9829 ,0.63379 ,4.98026 ,48.86627 
21 ,4.1590 ,0.63561 ,4.93235 ,48.39618 
22 ,4.3350 ,0.63740 ,4.92892 ,48.36260 
23 ,4.5271 ,0.63921 ,4.90155 ,48.09397 
24 ,4.7030 ,0.64099 ,4.88444 ,47.92608 
25 ,4.8949 ,0.64299 ,4.88444 ,47.92608 
26 ,5.0716 ,0.64472 ,4.85706 ,47.65745 
27 ,5.2796 ,0.64675 ,4.81941 ,47.28809 
28 ,5.4714 ,0.64867 ,4.82626 ,47.35525 
29 ,5.6312 ,0.65041 ,4.80915 ,47.18736 
30 ,5.8236 ,0.65217 ,4.78177 ,46.91873 
31 ,6.0156 ,0.65412 ,4.76124 ,46.71726 
32 ,6.2079 ,0.65597 ,4.76466 ,46.75084 
33 ,6.4159 ,0.65817 ,4.73044 ,46.41506 
34 ,6.6239 ,0.66014 ,4.71675 ,46.28074 
35 ,6.8161 ,0.66211 ,4.68595 ,45.97854 
36 ,7.0241 ,0.66418 ,4.68253 ,45.94496 
37 ,7.2002 ,0.66599 ,4.65173 ,45.64275 
38 ,7.4082 ,0.66803 ,4.64831 ,45.60918 
39 ,7.5846 ,0.66982 ,4.63462 ,45.47486 
40 ,7.7761 ,0.67169 ,4.60382 ,45.17266 
41 ,7.9685 ,0.67361 ,4.60040 ,45.13908 
42 ,8.1606 ,0.67558 ,4.57644 ,44.90403 
43 ,8.3526 ,0.67743 ,4.56275 ,44.76972 
44 ,8.5447 ,0.67934 ,4.54906 ,44.63541 
45 ,8.7366 ,0.68126 ,4.53195 ,44.46751 
46 ,8.9128 ,0.68307 ,4.51484 ,44.29962 
47 ,9.1049 ,0.68493 ,4.49773 ,44.13173 
48 ,9.2812 ,0.68681 ,4.49431 ,44.09815 
49 ,9.4892 ,0.68883 ,4.47035 ,43.86310 
50 ,9.6652 ,0.69066 ,4.43955 ,43.56090 
51 ,9.8411 ,0.69238 ,4.45666 ,43.72879 
52 ,10.0173 ,0.69412 ,4.41902 ,43.35943 
53 ,10.2094 ,0.69606 ,4.40875 ,43.25870 
54 ,10.3856 ,0.69782 ,4.38138 ,42.99007 
55 ,10.5935 ,0.69985 ,4.36427 ,42.82218 
56 ,10.7857 ,0.70173 ,4.36427 ,42.82218 
57 ,10.9773 ,0.70372 ,4.34031 ,42.58713 
58 ,11.1539 ,0.70553 ,4.30951 ,42.28492 
59 ,11.3458 ,0.70734 ,4.31293 ,42.31850 
60 ,11.5220 ,0.70917 ,4.30267 ,42.21777 
61 ,11.7141 ,0.71111 ,4.27187 ,41.91556 
62 ,11.9221 ,0.71312 ,4.26160 ,41.81483 
63 ,12.0981 ,0.71493 ,4.24791 ,41.68051 
64 ,12.2902 ,0.71683 ,4.24449 ,41.64694 
65 ,12.4825 ,0.71868 ,4.21027 ,41.31115 
66 ,12.6905 ,0.72078 ,4.20685 ,41.27758 
67 ,12.8985 ,0.72292 ,4.17605 ,40.97537 
68 ,13.0744 ,0.72473 ,4.16920 ,40.90821 
69 ,13.2665 ,0.72652 ,4.15894 ,40.80748 
70 ,13.4747 ,0.72866 ,4.12129 ,40.43812 
71 ,13.6509 ,0.73041 ,4.12129 ,40.43812 
72 ,13.8268 ,0.73226 ,4.12129 ,40.43812 
73 ,14.0028 ,0.73395 ,4.09049 ,40.13591 
74 ,14.1949 ,0.73588 ,4.06312 ,39.86729 
75 ,14.3872 ,0.73776 ,4.06312 ,39.86729 
76 ,14.5952 ,0.73983 ,4.05285 ,39.76655 
77 ,14.7712 ,0.74171 ,4.03916 ,39.63224 
78 ,14.9474 ,0.74340 ,4.00836 ,39.33003 
79 ,15.1391 ,0.74529 ,3.99125 ,39.16214 
80 ,15.3315 ,0.74723 ,3.98441 ,39.09499 
81 ,15.5233 ,0.74913 ,3.97414 ,38.99425 
82 ,15.7476 ,0.75140 ,3.96387 ,38.89352 
83 ,15.9398 ,0.75334 ,3.92281 ,38.49058 
84 ,16.1318 ,0.75520 ,3.91254 ,38.38984 
85 ,16.3399 ,0.75733 ,3.89201 ,38.18837 
86 ,16.5479 ,0.75939 ,3.89885 ,38.25553 
87 ,16.7240 ,0.76115 ,3.87832 ,38.05406 
88 ,16.8999 ,0.76294 ,3.85436 ,37.81901 
89 ,17.0923 ,0.76485 ,3.84410 ,37.71828 
90 ,17.3159 ,0.76711 ,3.81330 ,37.41607 
91 ,17.5084 ,0.76901 ,3.82699 ,37.55038 
92 ,17.7164 ,0.77105 ,3.79619 ,37.24818 
93 ,17.9085 ,0.77294 ,3.78592 ,37.14744 
94 ,18.1165 ,0.77507 ,3.74485 ,36.74450 
95 ,18.3087 ,0.77692 ,3.74828 ,36.77808 
96 ,18.5165 ,0.77905 ,3.73801 ,36.67735 
97 ,18.7249 ,0.78116 ,3.71405 ,36.44230 
98 ,18.9170 ,0.78303 ,3.68325 ,36.14010 
99 ,19.1251 ,0.78517 ,3.67983 ,36.10652 
100 ,19.3170 ,0.78705 ,3.66272 ,35.93863 
101 ,19.4931 ,0.78881 ,3.65588 ,35.87147 
102 ,19.6854 ,0.79067 ,3.65246 ,35.83789 
103 ,19.8772 ,0.79260 ,3.61481 ,35.46853 
104 ,20.0856 ,0.79463 ,3.60797 ,35.40137 
105 ,20.2775 ,0.79667 ,3.58059 ,35.13275 
106 ,20.4854 ,0.79877 ,3.59428 ,35.26706 
107 ,20.6778 ,0.80068 ,3.56006 ,34.93128 
108 ,20.8857 ,0.80273 ,3.54637 ,34.79696 
109 ,21.0778 ,0.80463 ,3.52241 ,34.56192 
110 ,21.2698 ,0.80666 ,3.51899 ,34.52834 
111 ,21.4458 ,0.80842 ,3.50872 ,34.42760 
112 ,21.6220 ,0.81018 ,3.46424 ,33.99108 
113 ,21.8141 ,0.81209 ,3.46081 ,33.95751 
114 ,22.0059 ,0.81391 ,3.45397 ,33.89035 
115 ,22.1982 ,0.81585 ,3.43344 ,33.68888 
116 ,22.4063 ,0.81797 ,3.43344 ,33.68888 
117 ,22.5827 ,0.81976 ,3.41633 ,33.52099 
118 ,22.7906 ,0.82178 ,3.40948 ,33.45383 
119 ,22.9823 ,0.82366 ,3.36499 ,33.01731 
120 ,23.1747 ,0.82562 ,3.37184 ,33.08447 
121 ,23.3665 ,0.82753 ,3.34446 ,32.81584 
122 ,23.5747 ,0.82961 ,3.33077 ,32.68153 
123 ,23.7509 ,0.83143 ,3.33077 ,32.68153 
124 ,23.9590 ,0.83347 ,3.29997 ,32.37933 
125 ,24.1511 ,0.83530 ,3.29313 ,32.31217 
126 ,24.3591 ,0.83748 ,3.25891 ,31.97639 
127 ,24.5512 ,0.83938 ,3.26575 ,32.04354 
128 ,24.7589 ,0.84143 ,3.23495 ,31.74134 
129 ,24.9514 ,0.84333 ,3.23153 ,31.70776 
130 ,25.1434 ,0.84535 ,3.21100 ,31.50629 
131 ,25.3356 ,0.84725 ,3.19388 ,31.33840 
132 ,25.5276 ,0.84911 ,3.19046 ,31.30482 
133 ,25.7356 ,0.85124 ,3.15624 ,30.96904 
134 ,25.9114 ,0.85302 ,3.15966 ,31.00262 
135 ,26.1199 ,0.85506 ,3.12544 ,30.66683 
136 ,26.3117 ,0.85698 ,3.14255 ,30.83472 
137 ,26.5199 ,0.85907 ,3.09464 ,30.36463 
138 ,26.6959 ,0.86086 ,3.06726 ,30.09600 
139 ,26.9041 ,0.86289 ,3.07753 ,30.19674 
140 ,27.0960 ,0.86475 ,3.06042 ,30.02884 
141 ,27.2724 ,0.86663 ,3.04331 ,29.86095 
142 ,27.4643 ,0.86846 ,3.01935 ,29.62590 
143 ,27.6567 ,0.87045 ,2.99540 ,29.39086 
144 ,27.8486 ,0.87233 ,3.00909 ,29.52517 
145 ,28.0565 ,0.87445 ,2.96460 ,29.08865 
146 ,28.2645 ,0.87650 ,2.96460 ,29.08865 
147 ,28.4729 ,0.87860 ,2.97144 ,29.15581 
148 ,28.6810 ,0.88063 ,2.92696 ,28.71929 
149 ,28.8730 ,0.88258 ,2.92696 ,28.71929 
150 ,29.0487 ,0.88443 ,2.89958 ,28.45066 
151 ,29.2252 ,0.88612 ,2.90642 ,28.51782 
152 ,29.4331 ,0.88816 ,2.88931 ,28.34993 
153 ,29.6093 ,0.89000 ,2.86878 ,28.14846 
154 ,29.8010 ,0.89200 ,2.83798 ,27.84625 
155 ,29.9776 ,0.89370 ,2.82771 ,27.74552 
156 ,30.1854 ,0.89562 ,2.81402 ,27.61121 
157 ,30.3777 ,0.89761 ,2.79349 ,27.40974 
158 ,30.5859 ,0.89962 ,2.77296 ,27.20827 
159 ,30.7779 ,0.90159 ,2.76611 ,27.14111 
160 ,30.9861 ,0.90373 ,2.77296 ,27.20827 
161 ,31.1618 ,0.90555 ,2.73874 ,26.87248 
162 ,31.3379 ,0.90721 ,2.73189 ,26.80533 
163 ,31.5301 ,0.90909 ,2.73874 ,26.87248 
164 ,31.7379 ,0.91122 ,2.70452 ,26.53670 
165 ,31.9139 ,0.91310 ,2.70109 ,26.50312 
166 ,32.0902 ,0.91478 ,2.68740 ,26.36881 
167 ,32.2503 ,0.91650 ,2.67372 ,26.23450 
168 ,32.4424 ,0.91822 ,2.63265 ,25.83156 
169 ,32.6506 ,0.92026 ,2.62238 ,25.73082 
170 ,32.8586 ,0.92239 ,2.61896 ,25.69724 
171 ,33.0666 ,0.92454 ,2.60527 ,25.56293 
172 ,33.2424 ,0.92631 ,2.59158 ,25.42862 
173 ,33.4348 ,0.92814 ,2.56763 ,25.19357 
174 ,33.6109 ,0.92999 ,2.56763 ,25.19357 
175 ,33.8186 ,0.93205 ,2.52998 ,24.82421 
176 ,33.9950 ,0.93381 ,2.53341 ,24.85779 
177 ,34.2031 ,0.93587 ,2.50945 ,24.62274 
178 ,34.3952 ,0.93775 ,2.51287 ,24.65632 
179 ,34.6033 ,0.93990 ,2.48550 ,24.38769 
180 ,34.8112 ,0.94195 ,2.47523 ,24.28696 
181 ,34.9872 ,0.94380 ,2.45127 ,24.05191 
182 ,35.1953 ,0.94576 ,2.45127 ,24.05191 
183 ,35.3714 ,0.94760 ,2.43759 ,23.91759 
184 ,35.5637 ,0.94945 ,2.39994 ,23.54823 
185 ,35.7557 ,0.95141 ,2.40679 ,23.61539 
186 ,35.9318 ,0.95318 ,2.38968 ,23.44750 
187 ,36.1079 ,0.95490 ,2.38968 ,23.44750 
188 ,36.3161 ,0.95702 ,2.37256 ,23.27961 
189 ,36.4920 ,0.95884 ,2.37256 ,23.27961 
190 ,36.6682 ,0.96051 ,2.33150 ,22.87667 
191 ,36.8603 ,0.96240 ,2.30754 ,22.64162 
192 ,37.0684 ,0.96452 ,2.32123 ,22.77593 
193 ,37.2443 ,0.96637 ,2.28017 ,22.37299 
194 ,37.4205 ,0.96808 ,2.26648 ,22.23868 
195 ,37.6125 ,0.96993 ,2.27674 ,22.33941 
196 ,37.8366 ,0.97218 ,2.23226 ,21.90290 
197 ,38.0284 ,0.97407 ,2.25621 ,22.13794 
198 ,38.2208 ,0.97604 ,2.21172 ,21.70143 
199 ,38.3969 ,0.97782 ,2.20488 ,21.63427 
200 ,38.5886 ,0.97983 ,2.19803 ,21.56711 
201 ,38.7650 ,0.98155 ,2.15355 ,21.13059 
202 ,38.9570 ,0.98334 ,2.16381 ,21.23133 
203 ,39.1493 ,0.98529 ,2.15355 ,21.13059 
204 ,39.3414 ,0.98720 ,2.13301 ,20.92912 
205 ,39.5494 ,0.98926 ,2.12959 ,20.89555 
206 ,39.7254 ,0.99118 ,2.09195 ,20.52619 
207 ,39.9174 ,0.99300 ,2.09537 ,20.55976 
208 ,40.1737 ,0.99547 ,2.08168 ,20.42545 
209 ,40.3657 ,0.99745 ,2.06457 ,20.25756 
210 ,40.5576 ,0.99934 ,2.03377 ,19.95535 
211 ,40.7337 ,1.00114 ,2.05088 ,20.12325 
212 ,40.9100 ,1.00296 ,2.02008 ,19.82104 
213 ,41.1021 ,1.00484 ,1.99955 ,19.61957 
214 ,41.2941 ,1.00673 ,1.98928 ,19.51884 
215 ,41.4864 ,1.00864 ,1.96190 ,19.25021 
216 ,41.6781 ,1.01060 ,1.95164 ,19.14948 
217 ,41.8543 ,1.01242 ,1.95506 ,19.18305 
218 ,42.0623 ,1.01440 ,1.93453 ,18.98158 
219 ,42.2545 ,1.01631 ,1.91742 ,18.81369 
220 ,42.4465 ,1.01826 ,1.90031 ,18.64580 
221 ,42.6384 ,1.02017 ,1.89004 ,18.54507 
222 ,42.8144 ,1.02204 ,1.88319 ,18.47791 
223 ,43.0068 ,1.02390 ,1.87635 ,18.41075 
224 ,43.2468 ,1.02618 ,1.86608 ,18.31002 
225 ,43.4548 ,1.02831 ,1.85240 ,18.17570 
226 ,43.6469 ,1.03027 ,1.83186 ,17.97423 
227 ,43.8232 ,1.03208 ,1.79764 ,17.63845 
228 ,44.0312 ,1.03409 ,1.80106 ,17.67203 
229 ,44.2392 ,1.03618 ,1.77711 ,17.43698 
230 ,44.4314 ,1.03803 ,1.77026 ,17.36983 
231 ,44.6393 ,1.04020 ,1.73946 ,17.06762 
232 ,44.8154 ,1.04202 ,1.73946 ,17.06762 
233 ,45.0074 ,1.04380 ,1.70866 ,16.76542 
234 ,45.1996 ,1.04572 ,1.72235 ,16.89973 
235 ,45.3758 ,1.04756 ,1.69498 ,16.63110 
236 ,45.5840 ,1.04963 ,1.68129 ,16.49679 
237 ,45.7918 ,1.05168 ,1.66418 ,16.32890 
238 ,45.9996 ,1.05367 ,1.64364 ,16.12743 
239 ,46.1921 ,1.05571 ,1.64022 ,16.09385 
240 ,46.4000 ,1.05778 ,1.63338 ,16.02669 
241 ,46.5923 ,1.05972 ,1.61627 ,15.85880 
242 ,46.8001 ,1.06177 ,1.57862 ,15.48944 
243 ,46.9923 ,1.06384 ,1.56836 ,15.38871 
244 ,47.1842 ,1.06569 ,1.57178 ,15.42228 
245 ,47.3925 ,1.06770 ,1.57178 ,15.42228 
246 ,47.5684 ,1.06955 ,1.55467 ,15.25439 
247 ,47.7607 ,1.07139 ,1.52729 ,14.98577 
248 ,47.9524 ,1.07327 ,1.52045 ,14.91861 
249 ,48.1605 ,1.07541 ,1.49991 ,14.71714 
250 ,48.3531 ,1.07725 ,1.49307 ,14.64998 
251 ,48.5451 ,1.07917 ,1.46227 ,14.34778 
252 ,48.7692 ,1.08149 ,1.45885 ,14.31420 
253 ,48.9612 ,1.08337 ,1.42462 ,13.97842 
254 ,49.1372 ,1.08519 ,1.43831 ,14.11273 
255 ,49.3133 ,1.08699 ,1.43147 ,14.04557 
256 ,49.5215 ,1.08898 ,1.41436 ,13.87768 
257 ,49.7296 ,1.09102 ,1.39725 ,13.70979 
258 ,49.9375 ,1.09320 ,1.36645 ,13.40759 
259 ,50.1458 ,1.09519 ,1.35276 ,13.27327 
260 ,50.3377 ,1.09712 ,1.35960 ,13.34043 
261 ,50.5298 ,1.09903 ,1.33223 ,13.07180 
262 ,50.7220 ,1.10101 ,1.30827 ,12.83675 
263 ,50.9140 ,1.10292 ,1.31169 ,12.87033 
264 ,51.1060 ,1.10478 ,1.30485 ,12.80318 
265 ,51.3138 ,1.10690 ,1.27405 ,12.50097 
266 ,51.5064 ,1.10881 ,1.26378 ,12.40024 
267 ,51.7304 ,1.11101 ,1.26378 ,12.40024 
268 ,51.9224 ,1.11300 ,1.23298 ,12.09803 
269 ,52.1144 ,1.11487 ,1.23298 ,12.09803 
270 ,52.2906 ,1.11672 ,1.22956 ,12.06445 
271 ,52.4824 ,1.11856 ,1.19876 ,11.76225 
272 ,52.6587 ,1.12035 ,1.18507 ,11.62794 
273 ,52.8509 ,1.12220 ,1.16112 ,11.39289 
274 ,53.0426 ,1.12421 ,1.16112 ,11.39289 
275 ,53.2510 ,1.12624 ,1.15085 ,11.29215 
276 ,53.4427 ,1.12816 ,1.13716 ,11.15784 
277 ,53.6351 ,1.13007 ,1.13374 ,11.12426 
278 ,53.8430 ,1.13221 ,1.09952 ,10.78848 
279 ,54.0513 ,1.13414 ,1.09267 ,10.72132 
280 ,54.2594 ,1.13631 ,1.07899 ,10.58701 
281 ,54.4514 ,1.13821 ,1.06187 ,10.41912 
282 ,54.6275 ,1.14006 ,1.05845 ,10.38554 
283 ,54.8354 ,1.14207 ,1.03450 ,10.15049 
284 ,55.0274 ,1.14405 ,1.02081 ,10.01618 
285 ,55.2197 ,1.14592 ,1.01739 ,9.98260 
286 ,55.3958 ,1.14781 ,0.97632 ,9.57966 
287 ,55.5716 ,1.14949 ,0.98317 ,9.64682 
288 ,55.7639 ,1.15135 ,0.97290 ,9.54608 
289 ,55.9557 ,1.15325 ,0.97632 ,9.57966 
290 ,56.1321 ,1.15517 ,0.95237 ,9.34461 
291 ,56.3083 ,1.15685 ,0.93868 ,9.21030 
292 ,56.5003 ,1.15871 ,0.92157 ,9.04241 
293 ,56.7244 ,1.16102 ,0.89419 ,8.77378 
294 ,56.9163 ,1.16290 ,0.89419 ,8.77378 
295 ,57.1241 ,1.16497 ,0.88050 ,8.63947 
296 ,57.3003 ,1.16677 ,0.85997 ,8.43800 
297 ,57.4764 ,1.16854 ,0.85997 ,8.43800 
298 ,57.6844 ,1.17061 ,0.83943 ,8.23653 
299 ,57.8767 ,1.17253 ,0.85312 ,8.37084 
300 ,58.0529 ,1.17435 ,0.81890 ,8.03506 
301 ,58.2290 ,1.17610 ,0.80521 ,7.90074 
302 ,58.4211 ,1.17789 ,0.80521 ,7.90074 
303 ,58.6289 ,1.18002 ,0.78126 ,7.66570 
304 ,58.8048 ,1.18177 ,0.76072 ,7.46423 
305 ,58.9971 ,1.18361 ,0.76757 ,7.53138 
306 ,59.1893 ,1.18556 ,0.75046 ,7.36349 
307 ,59.3654 ,1.18741 ,0.72992 ,7.16202 
308 ,59.5575 ,1.18926 ,0.71624 ,7.02771 
309 ,59.7656 ,1.19141 ,0.69228 ,6.79266 
310 ,59.9417 ,1.19318 ,0.68544 ,6.72550 
311 ,60.1497 ,1.19520 ,0.68201 ,6.69193 
312 ,60.3419 ,1.19711 ,0.66833 ,6.55761 
313 ,60.5499 ,1.19920 ,0.65121 ,6.38972 
314 ,60.7257 ,1.20108 ,0.64095 ,6.28899 
315 ,60.9017 ,1.20279 ,0.63068 ,6.18825 
316 ,61.0941 ,1.20463 ,0.61699 ,6.05394 
317 ,61.2861 ,1.20655 ,0.61015 ,5.98678 
318 ,61.4779 ,1.20850 ,0.59988 ,5.88605 
319 ,61.6539 ,1.21035 ,0.57251 ,5.61742 
320 ,61.8459 ,1.21213 ,0.56908 ,5.58384 
321 ,62.0384 ,1.21409 ,0.56224 ,5.51668 
322 ,62.2466 ,1.21620 ,0.54855 ,5.38237 
323 ,62.4228 ,1.21801 ,0.53486 ,5.24806 
324 ,62.6467 ,1.22006 ,0.51091 ,5.01301 
325 ,62.8228 ,1.22199 ,0.50406 ,4.94585 
326 ,62.9985 ,1.22373 ,0.50064 ,4.91228 
327 ,63.1911 ,1.22562 ,0.46984 ,4.61007 
328 ,63.3991 ,1.22770 ,0.48011 ,4.71081 
329 ,63.5913 ,1.22967 ,0.45615 ,4.47576 
330 ,63.7993 ,1.23171 ,0.45615 ,4.47576 
331 ,63.9913 ,1.23363 ,0.42193 ,4.13997 
332 ,64.1836 ,1.23554 ,0.41851 ,4.10640 
333 ,64.3914 ,1.23758 ,0.39455 ,3.87135 
334 ,64.5676 ,1.23945 ,0.39113 ,3.83777 
335 ,64.7436 ,1.24120 ,0.40140 ,3.93850 
336 ,64.9196 ,1.24299 ,0.35691 ,3.50199 
337 ,65.1115 ,1.24481 ,0.33638 ,3.30052 
338 ,65.3037 ,1.24674 ,0.35006 ,3.43483 
339 ,65.4959 ,1.24862 ,0.30900 ,3.03189 
340 ,65.6720 ,1.25052 ,0.31242 ,3.06547 
341 ,65.8641 ,1.25235 ,0.30900 ,3.03189 
342 ,66.0402 ,1.25412 ,0.29873 ,2.93116 
343 ,66.2158 ,1.25592 ,0.27135 ,2.66253 
344 ,66.4083 ,1.25777 ,0.25424 ,2.49464 
345 ,66.6004 ,1.25968 ,0.26793 ,2.62895 
346 ,66.7924 ,1.26160 ,0.22687 ,2.22601 
347 ,66.9845 ,1.26351 ,0.22344 ,2.19243 
348 ,67.1607 ,1.26536 ,0.22344 ,2.19243 
349 ,67.3527 ,1.26717 ,0.19264 ,1.89023 
350 ,67.5606 ,1.26936 ,0.22344 ,2.19243 
351 ,67.7688 ,1.27132 ,0.18580 ,1.82307 
352 ,67.9449 ,1.27320 ,0.17211 ,1.68876 
353 ,68.1686 ,1.27535 ,0.16185 ,1.58802 
354 ,68.3447 ,1.27714 ,0.14131 ,1.38655 
355 ,68.5211 ,1.27896 ,0.14816 ,1.45371 
356 ,68.7133 ,1.28086 ,0.13447 ,1.31940 
357 ,68.9213 ,1.28282 ,0.12762 ,1.25224 
358 ,69.1293 ,1.28503 ,0.09340 ,0.91646 
359 ,69.3055 ,1.28679 ,0.08314 ,0.81572 
360 ,69.5135 ,1.28879 ,0.07287 ,0.71499 
361 ,69.7217 ,1.29094 ,0.05918 ,0.58067 
362 ,69.9137 ,1.29279 ,0.05234 ,0.51352 
363 ,70.1218 ,1.29495 ,0.04549 ,0.44636 
364 ,70.2978 ,1.29670 ,0.05576 ,0.54710 
365 ,70.5058 ,1.29874 ,0.04207 ,0.41278 
366 ,70.6821 ,1.30055 ,0.01469 ,0.14416 
367 ,70.8740 ,1.30243 ,-0.01269 ,-0.12447 
368 ,71.0341 ,1.30418 ,-0.01269 ,-0.12447 
369 ,71.2263 ,1.30591 ,-0.00242 ,-0.02373 
370 ,71.4183 ,1.30789 ,-0.01953 ,-0.19163 
371 ,71.6264 ,1.30992 ,-0.03322 ,-0.32594 
372 ,71.8184 ,1.31184 ,-0.04691 ,-0.46025 
373 ,72.0106 ,1.31375 ,-0.05375 ,-0.52741 
374 ,72.2026 ,1.31576 ,-0.05033 ,-0.49383 
375 ,72.4106 ,1.31781 ,-0.07428 ,-0.72888 
376 ,72.5865 ,1.31958 ,-0.07771 ,-0.76246 
377 ,72.7788 ,1.32145 ,-0.08797 ,-0.86319 
378 ,72.9709 ,1.32339 ,-0.11877 ,-1.16540 
379 ,73.1788 ,1.32550 ,-0.10851 ,-1.06466 
380 ,73.3550 ,1.32725 ,-0.12219 ,-1.19898 
381 ,73.5313 ,1.32904 ,-0.14957 ,-1.46760 
382 ,73.7392 ,1.33110 ,-0.13588 ,-1.33329 
383 ,73.9472 ,1.33315 ,-0.16326 ,-1.60191 
384 ,74.1235 ,1.33493 ,-0.17353 ,-1.70265 
385 ,74.3316 ,1.33694 ,-0.17011 ,-1.66907 
386 ,74.5236 ,1.33893 ,-0.18379 ,-1.80338 
387 ,74.7317 ,1.34101 ,-0.21117 ,-2.07201 
388 ,74.9237 ,1.34289 ,-0.20775 ,-2.03843 
389 ,75.1159 ,1.34480 ,-0.23855 ,-2.34064 
390 ,75.3239 ,1.34693 ,-0.22486 ,-2.20632 
391 ,75.5480 ,1.34916 ,-0.25224 ,-2.47495 
392 ,75.7559 ,1.35113 ,-0.25566 ,-2.50853 
393 ,75.9483 ,1.35315 ,-0.25224 ,-2.47495 
394 ,76.1564 ,1.35522 ,-0.27961 ,-2.74358 
395 ,76.3483 ,1.35712 ,-0.27961 ,-2.74358 
396 ,76.5406 ,1.35907 ,-0.28304 ,-2.77716 
397 ,76.7325 ,1.36102 ,-0.30015 ,-2.94505 
398 ,76.9246 ,1.36293 ,-0.28646 ,-2.81073 
399 ,77.1326 ,1.36497 ,-0.32410 ,-3.18010 
400 ,77.3247 ,1.36690 ,-0.31726 ,-3.11294 
401 ,77.5168 ,1.36882 ,-0.34806 ,-3.41514 
402 ,77.7089 ,1.37076 ,-0.33437 ,-3.28083 
403 ,77.9170 ,1.37280 ,-0.34806 ,-3.41514 
404 ,78.1251 ,1.37494 ,-0.37886 ,-3.71735 
405 ,78.3172 ,1.37685 ,-0.38228 ,-3.75093 
406 ,78.5094 ,1.37873 ,-0.37886 ,-3.71735 
407 ,78.7335 ,1.38096 ,-0.39597 ,-3.88524 
408 ,78.9251 ,1.38290 ,-0.38912 ,-3.81808 
409 ,79.1175 ,1.38484 ,-0.42335 ,-4.15387 
410 ,79.3096 ,1.38678 ,-0.40623 ,-3.98597 
411 ,79.5176 ,1.38879 ,-0.45072 ,-4.42249 
412 ,79.7098 ,1.39076 ,-0.42677 ,-4.18744 
413 ,79.9178 ,1.39284 ,-0.45414 ,-4.45607 
414 ,80.0939 ,1.39468 ,-0.47126 ,-4.62396 
415 ,80.2859 ,1.39653 ,-0.47126 ,-4.62396 
416 ,80.4781 ,1.39838 ,-0.48837 ,-4.79185 
417 ,80.7021 ,1.40061 ,-0.50206 ,-4.92617 
418 ,80.8781 ,1.40246 ,-0.50890 ,-4.99332 
419 ,81.0860 ,1.40452 ,-0.49521 ,-4.85901 
420 ,81.2785 ,1.40642 ,-0.53285 ,-5.22837 
421 ,81.4704 ,1.40835 ,-0.54312 ,-5.32911 
422 ,81.6465 ,1.41014 ,-0.52943 ,-5.19479 
423 ,81.8226 ,1.41192 ,-0.54997 ,-5.39626 
424 ,81.9986 ,1.41368 ,-0.56023 ,-5.49700 
425 ,82.2068 ,1.41568 ,-0.54997 ,-5.39626 
426 ,82.4149 ,1.41778 ,-0.58077 ,-5.69847 
427 ,82.6230 ,1.41985 ,-0.57392 ,-5.63131 
428 ,82.8149 ,1.42179 ,-0.59103 ,-5.79920 
429 ,83.0072 ,1.42365 ,-0.58761 ,-5.76562 
430 ,83.1828 ,1.42549 ,-0.60814 ,-5.96709 
431 ,83.3752 ,1.42738 ,-0.62868 ,-6.16856 
432 ,83.5673 ,1.42926 ,-0.61841 ,-6.06783 
433 ,83.7435 ,1.43109 ,-0.62868 ,-6.16856 
434 ,83.9673 ,1.43327 ,-0.64236 ,-6.30288 
435 ,84.1596 ,1.43524 ,-0.66632 ,-6.53793 
436 ,84.3516 ,1.43725 ,-0.65605 ,-6.43719 
437 ,84.5438 ,1.43907 ,-0.65947 ,-6.47077 
438 ,84.7358 ,1.44097 ,-0.68685 ,-6.73940 
439 ,84.9439 ,1.44307 ,-0.67316 ,-6.60508 
440 ,85.1358 ,1.44499 ,-0.70396 ,-6.90729 
441 ,85.3437 ,1.44718 ,-0.71081 ,-6.97444 
442 ,85.5363 ,1.44897 ,-0.71423 ,-7.00802 
443 ,85.7442 ,1.45108 ,-0.71765 ,-7.04160 
444 ,85.9523 ,1.45317 ,-0.72450 ,-7.10876 
445 ,86.1442 ,1.45517 ,-0.75530 ,-7.41096 
446 ,86.3361 ,1.45699 ,-0.75872 ,-7.44454 
447 ,86.5283 ,1.45882 ,-0.75530 ,-7.41096 
448 ,86.7206 ,1.46078 ,-0.76898 ,-7.54527 
449 ,86.9284 ,1.46288 ,-0.76556 ,-7.51170 
450 ,87.1368 ,1.46503 ,-0.77583 ,-7.61243 
451 ,87.3449 ,1.46704 ,-0.79978 ,-7.84748 
452 ,87.5368 ,1.46891 ,-0.80321 ,-7.88106 
453 ,87.7289 ,1.47088 ,-0.78610 ,-7.71317 
454 ,87.9210 ,1.47277 ,-0.83401 ,-8.18326 
455 ,88.1132 ,1.47471 ,-0.83058 ,-8.14968 
456 ,88.3053 ,1.47665 ,-0.83743 ,-8.21684 
457 ,88.5130 ,1.47873 ,-0.83058 ,-8.14968 
458 ,88.7055 ,1.48064 ,-0.85112 ,-8.35115 
459 ,88.9135 ,1.48280 ,-0.87507 ,-8.58620 
460 ,89.1056 ,1.48464 ,-0.87849 ,-8.61978 
461 ,89.3295 ,1.48691 ,-0.87507 ,-8.58620 
462 ,89.5376 ,1.48895 ,-0.89560 ,-8.78767 
463 ,89.7299 ,1.49092 ,-0.88192 ,-8.65336 
