Data stamp = , 11-04-2022 14:52:29 364

Calibration Values: 
Slope = , 26.54 , g/V 
Offset Voltage at no contact = , -0.501760 , V 

No , Time , Stage Position ,   Mass , Force 
   ,  (s) ,      (mm)      ,   (g)  , (mN)  

1 ,0.0000 ,0.59929 ,5.19927 ,51.01528 
2 ,0.2330 ,0.59939 ,5.18901 ,50.91455 
3 ,0.6495 ,0.60060 ,5.18216 ,50.84739 
4 ,0.8575 ,0.60271 ,5.18559 ,50.88097 
5 ,1.0814 ,0.60471 ,5.19927 ,51.01528 
6 ,1.2737 ,0.60663 ,5.18901 ,50.91455 
7 ,1.4656 ,0.60856 ,5.20270 ,51.04886 
8 ,1.6579 ,0.61050 ,5.18901 ,50.91455 
9 ,1.8658 ,0.61270 ,5.16163 ,50.64592 
10 ,2.0579 ,0.61455 ,5.15479 ,50.57876 
11 ,2.2500 ,0.61649 ,5.16505 ,50.67950 
12 ,2.4741 ,0.61876 ,5.14452 ,50.47803 
13 ,2.6824 ,0.62074 ,5.11714 ,50.20940 
14 ,2.8744 ,0.62276 ,5.10345 ,50.07509 
15 ,3.0505 ,0.62455 ,5.11372 ,50.17583 
16 ,3.2263 ,0.62631 ,5.08292 ,49.87362 
17 ,3.4024 ,0.62803 ,5.07950 ,49.84004 
18 ,3.5947 ,0.62987 ,5.07265 ,49.77289 
19 ,3.7705 ,0.63175 ,5.05554 ,49.60499 
20 ,3.9464 ,0.63350 ,5.00421 ,49.10132 
21 ,4.1389 ,0.63532 ,5.00079 ,49.06774 
22 ,4.3150 ,0.63723 ,4.98710 ,48.93343 
23 ,4.4911 ,0.63895 ,4.97683 ,48.83269 
24 ,4.6992 ,0.64093 ,4.94603 ,48.53049 
25 ,4.8912 ,0.64286 ,4.94946 ,48.56407 
26 ,5.1150 ,0.64511 ,4.91523 ,48.22828 
27 ,5.2910 ,0.64688 ,4.91866 ,48.26186 
28 ,5.4838 ,0.64880 ,4.88101 ,47.89250 
29 ,5.6915 ,0.65094 ,4.86048 ,47.69103 
30 ,5.9155 ,0.65309 ,4.85706 ,47.65745 
31 ,6.0917 ,0.65494 ,4.85364 ,47.62387 
32 ,6.2996 ,0.65686 ,4.78519 ,46.95231 
33 ,6.5079 ,0.65905 ,4.80573 ,47.15378 
34 ,6.7476 ,0.66134 ,4.78177 ,46.91873 
35 ,6.9241 ,0.66323 ,4.75097 ,46.61653 
36 ,7.1322 ,0.66532 ,4.75439 ,46.65010 
37 ,7.3402 ,0.66731 ,4.72702 ,46.38148 
38 ,7.5159 ,0.66922 ,4.71675 ,46.28074 
39 ,7.7244 ,0.67107 ,4.67911 ,45.91138 
40 ,7.9164 ,0.67313 ,4.66542 ,45.77707 
41 ,8.1246 ,0.67524 ,4.64488 ,45.57560 
42 ,8.3165 ,0.67712 ,4.65515 ,45.67633 
43 ,8.4923 ,0.67896 ,4.62435 ,45.37413 
44 ,8.6844 ,0.68077 ,4.58671 ,45.00477 
45 ,8.8606 ,0.68260 ,4.57644 ,44.90403 
46 ,9.0364 ,0.68438 ,4.57986 ,44.93761 
47 ,9.2124 ,0.68610 ,4.58328 ,44.97119 
48 ,9.3726 ,0.68784 ,4.54906 ,44.63541 
49 ,9.5648 ,0.68960 ,4.51484 ,44.29962 
50 ,9.7733 ,0.69157 ,4.52169 ,44.36678 
51 ,9.9812 ,0.69377 ,4.50457 ,44.19889 
52 ,10.1734 ,0.69560 ,4.49089 ,44.06457 
53 ,10.3815 ,0.69782 ,4.45666 ,43.72879 
54 ,10.5895 ,0.69979 ,4.44982 ,43.66163 
55 ,10.7658 ,0.70161 ,4.43613 ,43.52732 
56 ,10.9736 ,0.70368 ,4.42586 ,43.42659 
57 ,11.1657 ,0.70556 ,4.42244 ,43.39301 
58 ,11.3898 ,0.70772 ,4.37453 ,42.92291 
59 ,11.5660 ,0.70965 ,4.37795 ,42.95649 
60 ,11.7740 ,0.71168 ,4.35058 ,42.68786 
61 ,11.9500 ,0.71350 ,4.34031 ,42.58713 
62 ,12.1422 ,0.71531 ,4.30609 ,42.25135 
63 ,12.3502 ,0.71742 ,4.30267 ,42.21777 
64 ,12.5265 ,0.71926 ,4.28213 ,42.01630 
65 ,12.7344 ,0.72127 ,4.27529 ,41.94914 
66 ,12.9262 ,0.72317 ,4.24791 ,41.68051 
67 ,13.1347 ,0.72528 ,4.24449 ,41.64694 
68 ,13.3427 ,0.72734 ,4.21711 ,41.37831 
69 ,13.5186 ,0.72917 ,4.17605 ,40.97537 
70 ,13.7108 ,0.73102 ,4.18289 ,41.04253 
71 ,13.9028 ,0.73311 ,4.15551 ,40.77390 
72 ,14.0790 ,0.73478 ,4.14525 ,40.67317 
73 ,14.2550 ,0.73659 ,4.13498 ,40.57243 
74 ,14.4311 ,0.73831 ,4.14525 ,40.67317 
75 ,14.6234 ,0.74009 ,4.09049 ,40.13591 
76 ,14.8313 ,0.74227 ,4.09734 ,40.20307 
77 ,15.0072 ,0.74414 ,4.07338 ,39.96802 
78 ,15.1991 ,0.74593 ,4.05969 ,39.83371 
79 ,15.3750 ,0.74770 ,4.03916 ,39.63224 
80 ,15.5672 ,0.74956 ,4.01863 ,39.43077 
81 ,15.7431 ,0.75147 ,4.00152 ,39.26288 
82 ,15.9355 ,0.75325 ,4.00152 ,39.26288 
83 ,16.1597 ,0.75555 ,3.97414 ,38.99425 
84 ,16.3676 ,0.75761 ,3.96387 ,38.89352 
85 ,16.5600 ,0.75949 ,3.93307 ,38.59131 
86 ,16.7678 ,0.76162 ,3.93307 ,38.59131 
87 ,16.9441 ,0.76339 ,3.89543 ,38.22195 
88 ,17.1519 ,0.76530 ,3.89201 ,38.18837 
89 ,17.3442 ,0.76740 ,3.88516 ,38.12122 
90 ,17.5203 ,0.76915 ,3.86463 ,37.91975 
91 ,17.7124 ,0.77102 ,3.85436 ,37.81901 
92 ,17.9205 ,0.77307 ,3.82699 ,37.55038 
93 ,18.1283 ,0.77520 ,3.79961 ,37.28176 
94 ,18.3206 ,0.77718 ,3.77908 ,37.08029 
95 ,18.5288 ,0.77918 ,3.75854 ,36.87882 
96 ,18.7208 ,0.78109 ,3.75170 ,36.81166 
97 ,18.8970 ,0.78294 ,3.74143 ,36.71093 
98 ,19.1048 ,0.78497 ,3.70721 ,36.37514 
99 ,19.2968 ,0.78682 ,3.71748 ,36.47588 
100 ,19.5052 ,0.78884 ,3.69694 ,36.27441 
101 ,19.7133 ,0.79104 ,3.69010 ,36.20725 
102 ,19.9052 ,0.79295 ,3.63534 ,35.67000 
103 ,20.1134 ,0.79511 ,3.65588 ,35.87147 
104 ,20.3375 ,0.79733 ,3.61139 ,35.43495 
105 ,20.5136 ,0.79912 ,3.60797 ,35.40137 
106 ,20.7056 ,0.80097 ,3.58743 ,35.19990 
107 ,20.9137 ,0.80310 ,3.58401 ,35.16632 
108 ,21.1058 ,0.80499 ,3.55663 ,34.89770 
109 ,21.2980 ,0.80682 ,3.52584 ,34.59549 
110 ,21.5060 ,0.80900 ,3.53952 ,34.72981 
111 ,21.7140 ,0.81107 ,3.51215 ,34.46118 
112 ,21.9061 ,0.81288 ,3.48819 ,34.22613 
113 ,22.1141 ,0.81507 ,3.48135 ,34.15898 
114 ,22.2905 ,0.81689 ,3.47450 ,34.09182 
115 ,22.4827 ,0.81878 ,3.42317 ,33.58814 
116 ,22.6904 ,0.82081 ,3.44370 ,33.78961 
117 ,22.8827 ,0.82263 ,3.43344 ,33.68888 
118 ,23.0906 ,0.82476 ,3.39579 ,33.31952 
119 ,23.2830 ,0.82675 ,3.37184 ,33.08447 
120 ,23.4746 ,0.82865 ,3.35815 ,32.95016 
121 ,23.6830 ,0.83060 ,3.34104 ,32.78227 
122 ,23.8913 ,0.83285 ,3.34104 ,32.78227 
123 ,24.0831 ,0.83471 ,3.31366 ,32.51364 
124 ,24.2591 ,0.83652 ,3.29655 ,32.34575 
125 ,24.4513 ,0.83843 ,3.29655 ,32.34575 
126 ,24.6593 ,0.84049 ,3.26233 ,32.00996 
127 ,24.8674 ,0.84257 ,3.25206 ,31.90923 
128 ,25.0595 ,0.84444 ,3.24864 ,31.87565 
129 ,25.2517 ,0.84639 ,3.21784 ,31.57345 
130 ,25.4436 ,0.84828 ,3.20073 ,31.40555 
131 ,25.6353 ,0.85021 ,3.18362 ,31.23766 
132 ,25.8277 ,0.85212 ,3.17335 ,31.13693 
133 ,26.0199 ,0.85414 ,3.14597 ,30.86830 
134 ,26.2278 ,0.85614 ,3.14597 ,30.86830 
135 ,26.4201 ,0.85811 ,3.11860 ,30.59968 
136 ,26.5961 ,0.85994 ,3.12544 ,30.66683 
137 ,26.7722 ,0.86165 ,3.10833 ,30.49894 
138 ,26.9643 ,0.86351 ,3.08780 ,30.29747 
139 ,27.1722 ,0.86566 ,3.08438 ,30.26389 
140 ,27.3483 ,0.86739 ,3.07411 ,30.16316 
141 ,27.5405 ,0.86930 ,3.01593 ,29.59233 
142 ,27.7482 ,0.87139 ,3.03647 ,29.79380 
143 ,27.9407 ,0.87329 ,3.02620 ,29.69306 
144 ,28.1327 ,0.87515 ,3.00909 ,29.52517 
145 ,28.3248 ,0.87714 ,2.96802 ,29.12223 
146 ,28.5167 ,0.87905 ,2.97829 ,29.22297 
147 ,28.7088 ,0.88099 ,2.95091 ,28.95434 
148 ,28.8849 ,0.88278 ,2.92353 ,28.68571 
149 ,29.0612 ,0.88455 ,2.90985 ,28.55140 
150 ,29.2371 ,0.88634 ,2.92353 ,28.68571 
151 ,29.4453 ,0.88834 ,2.92011 ,28.65213 
152 ,29.6212 ,0.89016 ,2.90300 ,28.48424 
153 ,29.8293 ,0.89213 ,2.86878 ,28.14846 
154 ,30.0214 ,0.89406 ,2.83114 ,27.77910 
155 ,30.2296 ,0.89616 ,2.85167 ,27.98057 
156 ,30.4055 ,0.89796 ,2.82087 ,27.67836 
157 ,30.5815 ,0.89973 ,2.80376 ,27.51047 
158 ,30.7574 ,0.90145 ,2.76954 ,27.17469 
159 ,30.9336 ,0.90329 ,2.78665 ,27.34258 
160 ,31.1260 ,0.90508 ,2.75927 ,27.07395 
161 ,31.3180 ,0.90714 ,2.74900 ,26.97322 
162 ,31.4941 ,0.90886 ,2.74900 ,26.97322 
163 ,31.7023 ,0.91086 ,2.73189 ,26.80533 
164 ,31.9102 ,0.91294 ,2.71136 ,26.60386 
165 ,32.0864 ,0.91482 ,2.67714 ,26.26807 
166 ,32.2785 ,0.91667 ,2.64292 ,25.93229 
167 ,32.4548 ,0.91844 ,2.66687 ,26.16734 
168 ,32.6465 ,0.92030 ,2.64292 ,25.93229 
169 ,32.8708 ,0.92244 ,2.63949 ,25.89871 
170 ,33.0785 ,0.92469 ,2.60527 ,25.56293 
171 ,33.2549 ,0.92647 ,2.58816 ,25.39504 
172 ,33.4789 ,0.92858 ,2.56763 ,25.19357 
173 ,33.6550 ,0.93046 ,2.54367 ,24.95852 
174 ,33.8311 ,0.93221 ,2.54367 ,24.95852 
175 ,34.0071 ,0.93396 ,2.53683 ,24.89136 
176 ,34.1833 ,0.93571 ,2.50603 ,24.58916 
177 ,34.3593 ,0.93743 ,2.50261 ,24.55558 
178 ,34.5515 ,0.93934 ,2.48550 ,24.38769 
179 ,34.7595 ,0.94146 ,2.47181 ,24.25338 
180 ,34.9516 ,0.94330 ,2.46839 ,24.21980 
181 ,35.1437 ,0.94530 ,2.44443 ,23.98475 
182 ,35.3516 ,0.94738 ,2.42732 ,23.81686 
183 ,35.5598 ,0.94945 ,2.41021 ,23.64897 
184 ,35.7519 ,0.95132 ,2.39652 ,23.51465 
185 ,35.9278 ,0.95315 ,2.39994 ,23.54823 
186 ,36.1200 ,0.95502 ,2.35545 ,23.11171 
187 ,36.2961 ,0.95691 ,2.34861 ,23.04456 
188 ,36.4722 ,0.95863 ,2.33150 ,22.87667 
189 ,36.6642 ,0.96047 ,2.32808 ,22.84309 
190 ,36.8402 ,0.96234 ,2.31097 ,22.67520 
191 ,37.0319 ,0.96414 ,2.31439 ,22.70877 
192 ,37.2246 ,0.96616 ,2.29043 ,22.47373 
193 ,37.4165 ,0.96801 ,2.26990 ,22.27226 
194 ,37.6087 ,0.96995 ,2.27332 ,22.30584 
195 ,37.8008 ,0.97184 ,2.25279 ,22.10437 
196 ,38.0088 ,0.97394 ,2.22541 ,21.83574 
197 ,38.1849 ,0.97580 ,2.19803 ,21.56711 
198 ,38.3767 ,0.97767 ,2.19803 ,21.56711 
199 ,38.5690 ,0.97949 ,2.19461 ,21.53353 
200 ,38.7771 ,0.98163 ,2.17066 ,21.29849 
201 ,38.9533 ,0.98341 ,2.14670 ,21.06344 
202 ,39.1453 ,0.98526 ,2.13644 ,20.96270 
203 ,39.3374 ,0.98719 ,2.11932 ,20.79481 
204 ,39.5133 ,0.98905 ,2.11248 ,20.72766 
205 ,39.7055 ,0.99086 ,2.11590 ,20.76123 
206 ,39.8816 ,0.99271 ,2.08510 ,20.45903 
207 ,40.0575 ,0.99445 ,2.06799 ,20.29114 
208 ,40.2338 ,0.99621 ,2.06457 ,20.25756 
209 ,40.4257 ,0.99809 ,2.07141 ,20.32472 
210 ,40.6019 ,0.99987 ,2.04746 ,20.08967 
211 ,40.7938 ,1.00172 ,2.02008 ,19.82104 
212 ,40.9701 ,1.00360 ,2.00639 ,19.68673 
213 ,41.1622 ,1.00544 ,1.97559 ,19.38452 
214 ,41.3543 ,1.00739 ,1.98244 ,19.45168 
215 ,41.5460 ,1.00939 ,1.97902 ,19.41810 
216 ,41.7382 ,1.01118 ,1.92768 ,18.91443 
217 ,41.9465 ,1.01332 ,1.94137 ,19.04874 
218 ,42.1386 ,1.01519 ,1.92084 ,18.84727 
219 ,42.3465 ,1.01732 ,1.92084 ,18.84727 
220 ,42.5065 ,1.01904 ,1.90715 ,18.71296 
221 ,42.6827 ,1.02068 ,1.89346 ,18.57864 
222 ,42.8748 ,1.02252 ,1.86951 ,18.34360 
223 ,43.0669 ,1.02447 ,1.84897 ,18.14213 
224 ,43.2430 ,1.02628 ,1.85240 ,18.17570 
225 ,43.4351 ,1.02813 ,1.82160 ,17.87350 
226 ,43.6112 ,1.03000 ,1.82160 ,17.87350 
227 ,43.8032 ,1.03201 ,1.79080 ,17.57129 
228 ,43.9954 ,1.03383 ,1.76342 ,17.30267 
229 ,44.2033 ,1.03583 ,1.76342 ,17.30267 
230 ,44.3955 ,1.03775 ,1.75657 ,17.23551 
231 ,44.5876 ,1.03965 ,1.73946 ,17.06762 
232 ,44.7955 ,1.04177 ,1.70866 ,16.76542 
233 ,44.9718 ,1.04358 ,1.69840 ,16.66468 
234 ,45.1800 ,1.04567 ,1.69840 ,16.66468 
235 ,45.3719 ,1.04746 ,1.70182 ,16.69826 
236 ,45.5798 ,1.04964 ,1.67102 ,16.39605 
237 ,45.7560 ,1.05145 ,1.64022 ,16.09385 
238 ,45.9478 ,1.05327 ,1.64707 ,16.16101 
239 ,46.1562 ,1.05537 ,1.62311 ,15.92596 
240 ,46.3483 ,1.05728 ,1.62653 ,15.95954 
241 ,46.5243 ,1.05916 ,1.59916 ,15.69091 
242 ,46.7164 ,1.06095 ,1.58204 ,15.52302 
243 ,46.9081 ,1.06286 ,1.58889 ,15.59018 
244 ,47.1006 ,1.06476 ,1.53756 ,15.08650 
245 ,47.3083 ,1.06686 ,1.55809 ,15.28797 
246 ,47.4850 ,1.06869 ,1.53413 ,15.05292 
247 ,47.6928 ,1.07074 ,1.52387 ,14.95219 
248 ,47.9009 ,1.07279 ,1.50676 ,14.78430 
249 ,48.1089 ,1.07490 ,1.48622 ,14.58283 
250 ,48.3169 ,1.07697 ,1.47253 ,14.44851 
251 ,48.4931 ,1.07878 ,1.45885 ,14.31420 
252 ,48.6848 ,1.08068 ,1.44858 ,14.21346 
253 ,48.8613 ,1.08248 ,1.44858 ,14.21346 
254 ,49.0528 ,1.08445 ,1.41436 ,13.87768 
255 ,49.2294 ,1.08617 ,1.38698 ,13.60906 
256 ,49.4534 ,1.08831 ,1.39383 ,13.67621 
257 ,49.6295 ,1.09016 ,1.37329 ,13.47474 
258 ,49.8057 ,1.09187 ,1.38698 ,13.60906 
259 ,49.9977 ,1.09375 ,1.34934 ,13.23969 
260 ,50.1898 ,1.09570 ,1.32880 ,13.03822 
261 ,50.3819 ,1.09766 ,1.32196 ,12.97107 
262 ,50.5579 ,1.09943 ,1.31169 ,12.87033 
263 ,50.7661 ,1.10131 ,1.29800 ,12.73602 
264 ,50.9741 ,1.10354 ,1.29458 ,12.70244 
265 ,51.1659 ,1.10537 ,1.26720 ,12.43381 
266 ,51.3584 ,1.10735 ,1.25352 ,12.29950 
267 ,51.5664 ,1.10945 ,1.24667 ,12.23235 
268 ,51.7424 ,1.11126 ,1.22272 ,11.99730 
269 ,51.9185 ,1.11303 ,1.21929 ,11.96372 
270 ,52.0945 ,1.11474 ,1.18850 ,11.66151 
271 ,52.2866 ,1.11662 ,1.19192 ,11.69509 
272 ,52.4787 ,1.11854 ,1.18165 ,11.59436 
273 ,52.6549 ,1.12036 ,1.15770 ,11.35931 
274 ,52.8630 ,1.12230 ,1.14058 ,11.19142 
275 ,53.0871 ,1.12455 ,1.12690 ,11.05710 
276 ,53.2788 ,1.12657 ,1.10294 ,10.82206 
277 ,53.4712 ,1.12850 ,1.10294 ,10.82206 
278 ,53.6793 ,1.13057 ,1.08241 ,10.62059 
279 ,53.8875 ,1.13254 ,1.08925 ,10.68774 
280 ,54.0795 ,1.13461 ,1.06872 ,10.48627 
281 ,54.2716 ,1.13651 ,1.06187 ,10.41912 
282 ,54.4799 ,1.13863 ,1.04134 ,10.21765 
283 ,54.6876 ,1.14061 ,1.02081 ,10.01618 
284 ,54.8637 ,1.14242 ,1.02081 ,10.01618 
285 ,55.0718 ,1.14443 ,0.97632 ,9.57966 
286 ,55.2479 ,1.14629 ,0.99685 ,9.78113 
287 ,55.4235 ,1.14810 ,0.95921 ,9.41177 
288 ,55.6321 ,1.14995 ,0.97290 ,9.54608 
289 ,55.8242 ,1.15205 ,0.95237 ,9.34461 
290 ,56.0323 ,1.15405 ,0.91472 ,8.97525 
291 ,56.2243 ,1.15600 ,0.92157 ,9.04241 
292 ,56.4324 ,1.15812 ,0.90103 ,8.84094 
293 ,56.6404 ,1.16021 ,0.89761 ,8.80736 
294 ,56.8486 ,1.16226 ,0.88392 ,8.67305 
295 ,57.0404 ,1.16415 ,0.87023 ,8.53873 
296 ,57.2647 ,1.16639 ,0.84970 ,8.33726 
297 ,57.4406 ,1.16823 ,0.83601 ,8.20295 
298 ,57.6328 ,1.17020 ,0.82575 ,8.10221 
299 ,57.8249 ,1.17206 ,0.82232 ,8.06864 
300 ,58.0489 ,1.17416 ,0.79152 ,7.76643 
301 ,58.2572 ,1.17634 ,0.76072 ,7.46423 
302 ,58.4492 ,1.17826 ,0.77099 ,7.56496 
303 ,58.6573 ,1.18037 ,0.75730 ,7.43065 
304 ,58.8970 ,1.18262 ,0.73335 ,7.19560 
305 ,59.0896 ,1.18458 ,0.73677 ,7.22918 
306 ,59.2817 ,1.18658 ,0.71624 ,7.02771 
307 ,59.4734 ,1.18848 ,0.70939 ,6.96055 
308 ,59.6814 ,1.19047 ,0.68544 ,6.72550 
309 ,59.8900 ,1.19259 ,0.67175 ,6.59119 
310 ,60.0978 ,1.19479 ,0.66833 ,6.55761 
311 ,60.2900 ,1.19664 ,0.66833 ,6.55761 
312 ,60.4819 ,1.19856 ,0.62042 ,6.08752 
313 ,60.6740 ,1.20047 ,0.61699 ,6.05394 
314 ,60.8501 ,1.20232 ,0.62726 ,6.15467 
315 ,61.0579 ,1.20435 ,0.59304 ,5.81889 
316 ,61.2504 ,1.20632 ,0.57593 ,5.65100 
317 ,61.4583 ,1.20833 ,0.56224 ,5.51668 
318 ,61.6345 ,1.21017 ,0.55197 ,5.41595 
319 ,61.8263 ,1.21200 ,0.55197 ,5.41595 
320 ,62.0185 ,1.21393 ,0.51775 ,5.08017 
321 ,62.2268 ,1.21605 ,0.54171 ,5.31522 
322 ,62.4187 ,1.21792 ,0.51433 ,5.04659 
323 ,62.6430 ,1.21995 ,0.50064 ,4.91228 
324 ,62.8347 ,1.22207 ,0.49380 ,4.84512 
325 ,63.0589 ,1.22430 ,0.46300 ,4.54291 
326 ,63.2671 ,1.22650 ,0.45957 ,4.50934 
327 ,63.4429 ,1.22821 ,0.46300 ,4.54291 
328 ,63.6353 ,1.23008 ,0.43220 ,4.24071 
329 ,63.8273 ,1.23201 ,0.43562 ,4.27429 
330 ,64.0031 ,1.23386 ,0.40482 ,3.97208 
331 ,64.1797 ,1.23560 ,0.41509 ,4.07282 
332 ,64.3876 ,1.23760 ,0.38429 ,3.77061 
333 ,64.5798 ,1.23949 ,0.37060 ,3.63630 
334 ,64.7715 ,1.24149 ,0.36375 ,3.56914 
335 ,64.9479 ,1.24321 ,0.36375 ,3.56914 
336 ,65.1557 ,1.24528 ,0.32269 ,3.16620 
337 ,65.3640 ,1.24742 ,0.32953 ,3.23336 
338 ,65.5400 ,1.24920 ,0.29189 ,2.86400 
339 ,65.7642 ,1.25137 ,0.29873 ,2.93116 
340 ,65.9405 ,1.25322 ,0.27135 ,2.66253 
341 ,66.1479 ,1.25522 ,0.28162 ,2.76326 
342 ,66.3406 ,1.25707 ,0.24740 ,2.42748 
343 ,66.5486 ,1.25923 ,0.26451 ,2.59537 
344 ,66.7407 ,1.26111 ,0.21318 ,2.09170 
345 ,66.9486 ,1.26319 ,0.22002 ,2.15885 
346 ,67.1087 ,1.26495 ,0.20291 ,1.99096 
347 ,67.2845 ,1.26662 ,0.20633 ,2.02454 
348 ,67.4770 ,1.26845 ,0.18580 ,1.82307 
349 ,67.6691 ,1.27042 ,0.17211 ,1.68876 
350 ,67.8771 ,1.27248 ,0.15158 ,1.48729 
351 ,68.0691 ,1.27436 ,0.16869 ,1.65518 
352 ,68.2613 ,1.27634 ,0.12420 ,1.21866 
353 ,68.4533 ,1.27836 ,0.14131 ,1.38655 
354 ,68.6454 ,1.28024 ,0.13789 ,1.35298 
355 ,68.8374 ,1.28205 ,0.10709 ,1.05077 
356 ,69.0297 ,1.28398 ,0.11393 ,1.11793 
357 ,69.2217 ,1.28594 ,0.08656 ,0.84930 
358 ,69.4293 ,1.28809 ,0.06945 ,0.68141 
359 ,69.6058 ,1.28982 ,0.06260 ,0.61425 
360 ,69.8140 ,1.29192 ,0.04549 ,0.44636 
361 ,70.0220 ,1.29393 ,0.03865 ,0.37920 
362 ,70.1979 ,1.29578 ,0.03865 ,0.37920 
363 ,70.3901 ,1.29766 ,0.01469 ,0.14416 
364 ,70.5660 ,1.29940 ,0.02496 ,0.24489 
365 ,70.7581 ,1.30128 ,-0.00584 ,-0.05731 
366 ,70.9663 ,1.30335 ,0.00100 ,0.00984 
367 ,71.1583 ,1.30527 ,-0.02295 ,-0.22520 
368 ,71.3665 ,1.30741 ,-0.02295 ,-0.22520 
369 ,71.5746 ,1.30942 ,-0.04348 ,-0.42667 
370 ,71.7507 ,1.31125 ,-0.06744 ,-0.66172 
371 ,71.9586 ,1.31323 ,-0.09140 ,-0.89677 
372 ,72.1348 ,1.31511 ,-0.09482 ,-0.93035 
373 ,72.3429 ,1.31716 ,-0.09824 ,-0.96393 
374 ,72.5350 ,1.31900 ,-0.10851 ,-1.06466 
375 ,72.7426 ,1.32116 ,-0.11193 ,-1.09824 
376 ,72.9189 ,1.32291 ,-0.13588 ,-1.33329 
377 ,73.0951 ,1.32469 ,-0.14273 ,-1.40045 
378 ,73.2712 ,1.32648 ,-0.13931 ,-1.36687 
379 ,73.4792 ,1.32850 ,-0.15984 ,-1.56834 
380 ,73.6710 ,1.33044 ,-0.16668 ,-1.63549 
381 ,73.8635 ,1.33235 ,-0.15984 ,-1.56834 
382 ,74.0876 ,1.33452 ,-0.17353 ,-1.70265 
383 ,74.2956 ,1.33667 ,-0.21117 ,-2.07201 
384 ,74.4877 ,1.33856 ,-0.20433 ,-2.00485 
385 ,74.6638 ,1.34037 ,-0.23170 ,-2.27348 
386 ,74.8558 ,1.34220 ,-0.21459 ,-2.10559 
387 ,75.0800 ,1.34454 ,-0.24197 ,-2.37422 
388 ,75.2878 ,1.34662 ,-0.24197 ,-2.37422 
389 ,75.5119 ,1.34871 ,-0.25908 ,-2.54211 
390 ,75.7041 ,1.35073 ,-0.25224 ,-2.47495 
391 ,75.8797 ,1.35254 ,-0.28304 ,-2.77716 
392 ,76.0729 ,1.35442 ,-0.28988 ,-2.84431 
393 ,76.2638 ,1.35636 ,-0.27961 ,-2.74358 
394 ,76.4563 ,1.35822 ,-0.29330 ,-2.87789 
395 ,76.6646 ,1.36032 ,-0.33437 ,-3.28083 
396 ,76.8722 ,1.36229 ,-0.32752 ,-3.21367 
397 ,77.0647 ,1.36432 ,-0.33095 ,-3.24725 
398 ,77.2407 ,1.36620 ,-0.35148 ,-3.44872 
399 ,77.4329 ,1.36806 ,-0.34806 ,-3.41514 
400 ,77.6249 ,1.36996 ,-0.36517 ,-3.58303 
401 ,77.8169 ,1.37182 ,-0.36859 ,-3.61661 
402 ,77.9933 ,1.37364 ,-0.38228 ,-3.75093 
403 ,78.2012 ,1.37574 ,-0.38912 ,-3.81808 
404 ,78.3934 ,1.37761 ,-0.39255 ,-3.85166 
405 ,78.6013 ,1.37955 ,-0.40623 ,-3.98597 
406 ,78.7933 ,1.38162 ,-0.41650 ,-4.08671 
407 ,78.9692 ,1.38345 ,-0.40966 ,-4.01955 
408 ,79.1775 ,1.38539 ,-0.43361 ,-4.25460 
409 ,79.3855 ,1.38753 ,-0.45414 ,-4.45607 
410 ,79.5777 ,1.38940 ,-0.45414 ,-4.45607 
411 ,79.7859 ,1.39154 ,-0.47126 ,-4.62396 
412 ,79.9777 ,1.39345 ,-0.48837 ,-4.79185 
413 ,80.1539 ,1.39535 ,-0.48152 ,-4.72470 
414 ,80.3461 ,1.39713 ,-0.48837 ,-4.79185 
415 ,80.5541 ,1.39908 ,-0.50206 ,-4.92617 
416 ,80.7622 ,1.40134 ,-0.51574 ,-5.06048 
417 ,80.9863 ,1.40350 ,-0.53285 ,-5.22837 
418 ,81.1622 ,1.40533 ,-0.52943 ,-5.19479 
419 ,81.3382 ,1.40710 ,-0.55339 ,-5.42984 
420 ,81.5463 ,1.40902 ,-0.54997 ,-5.39626 
421 ,81.7384 ,1.41103 ,-0.56023 ,-5.49700 
422 ,81.9306 ,1.41298 ,-0.55339 ,-5.42984 
423 ,82.1223 ,1.41492 ,-0.57392 ,-5.63131 
424 ,82.2986 ,1.41664 ,-0.60472 ,-5.93352 
425 ,82.5067 ,1.41877 ,-0.58761 ,-5.76562 
426 ,82.6988 ,1.42062 ,-0.58419 ,-5.73205 
427 ,82.8910 ,1.42265 ,-0.61841 ,-6.06783 
428 ,83.0830 ,1.42450 ,-0.62868 ,-6.16856 
429 ,83.2750 ,1.42641 ,-0.61156 ,-6.00067 
430 ,83.4670 ,1.42827 ,-0.62183 ,-6.10141 
431 ,83.6913 ,1.43052 ,-0.63210 ,-6.20214 
432 ,83.8994 ,1.43256 ,-0.65605 ,-6.43719 
433 ,84.1074 ,1.43472 ,-0.65263 ,-6.40361 
434 ,84.2993 ,1.43661 ,-0.66974 ,-6.57150 
435 ,84.4919 ,1.43853 ,-0.67659 ,-6.63866 
436 ,84.6998 ,1.44068 ,-0.69370 ,-6.80655 
437 ,84.8917 ,1.44253 ,-0.68343 ,-6.70582 
438 ,85.0679 ,1.44434 ,-0.69370 ,-6.80655 
439 ,85.2760 ,1.44641 ,-0.70396 ,-6.90729 
440 ,85.4999 ,1.44862 ,-0.72450 ,-7.10876 
441 ,85.7078 ,1.45072 ,-0.75530 ,-7.41096 
442 ,85.8843 ,1.45254 ,-0.75872 ,-7.44454 
443 ,86.0922 ,1.45460 ,-0.73476 ,-7.20949 
444 ,86.2845 ,1.45648 ,-0.76898 ,-7.54527 
445 ,86.4765 ,1.45850 ,-0.75872 ,-7.44454 
446 ,86.6526 ,1.46022 ,-0.77925 ,-7.64601 
447 ,86.8447 ,1.46210 ,-0.80663 ,-7.91464 
448 ,87.0528 ,1.46419 ,-0.78610 ,-7.71317 
449 ,87.2447 ,1.46608 ,-0.82374 ,-8.08253 
450 ,87.4209 ,1.46793 ,-0.83743 ,-8.21684 
451 ,87.6129 ,1.46978 ,-0.81347 ,-7.98179 
452 ,87.8050 ,1.47169 ,-0.84769 ,-8.31758 
453 ,87.9972 ,1.47362 ,-0.84427 ,-8.28400 
454 ,88.2051 ,1.47569 ,-0.85796 ,-8.41831 
455 ,88.3971 ,1.47757 ,-0.84085 ,-8.25042 
456 ,88.5731 ,1.47939 ,-0.86138 ,-8.45189 
457 ,88.7494 ,1.48121 ,-0.86481 ,-8.48547 
458 ,88.9414 ,1.48300 ,-0.86823 ,-8.51904 
459 ,89.1175 ,1.48493 ,-0.88876 ,-8.72051 
460 ,89.3095 ,1.48671 ,-0.89560 ,-8.78767 
461 ,89.5176 ,1.48879 ,-0.89218 ,-8.75409 
462 ,89.6938 ,1.49061 ,-0.89560 ,-8.78767 
463 ,89.9019 ,1.49267 ,-0.90929 ,-8.92198 
