Data stamp = , 12-04-2022 23:54:19 620

Calibration Values: 
Slope = , 26.54 , g/V 
Offset Voltage at no contact = , -0.501760 , V 

No , Time , Stage Position ,   Mass , Force 
   ,  (s) ,      (mm)      ,   (g)  , (mN)  

1 ,0.0000 ,0.54935 ,5.39776 ,52.96282 
2 ,0.2280 ,0.54945 ,5.39092 ,52.89567 
3 ,0.5325 ,0.55029 ,5.41145 ,53.09714 
4 ,0.7406 ,0.55176 ,5.39776 ,52.96282 
5 ,0.9327 ,0.55345 ,5.38749 ,52.86209 
6 ,1.1249 ,0.55537 ,5.39092 ,52.89567 
7 ,1.3168 ,0.55724 ,5.39092 ,52.89567 
8 ,1.4929 ,0.55902 ,5.38749 ,52.86209 
9 ,1.6849 ,0.56090 ,5.37038 ,52.69420 
10 ,1.8609 ,0.56276 ,5.37723 ,52.76135 
11 ,2.0532 ,0.56463 ,5.33958 ,52.39199 
12 ,2.2292 ,0.56639 ,5.32932 ,52.29126 
13 ,2.4054 ,0.56818 ,5.32247 ,52.22410 
14 ,2.5813 ,0.56993 ,5.31563 ,52.15694 
15 ,2.7574 ,0.57168 ,5.28141 ,51.82116 
16 ,2.9491 ,0.57361 ,5.26430 ,51.65327 
17 ,3.1256 ,0.57541 ,5.25061 ,51.51896 
18 ,3.3017 ,0.57712 ,5.24718 ,51.48538 
19 ,3.4937 ,0.57906 ,5.22323 ,51.25033 
20 ,3.6856 ,0.58091 ,5.20954 ,51.11602 
21 ,3.8779 ,0.58288 ,5.19585 ,50.98170 
22 ,4.0695 ,0.58473 ,5.17190 ,50.74666 
23 ,4.2460 ,0.58659 ,5.15821 ,50.61234 
24 ,4.4221 ,0.58831 ,5.15479 ,50.57876 
25 ,4.6300 ,0.59034 ,5.12399 ,50.27656 
26 ,4.8060 ,0.59212 ,5.12741 ,50.31014 
27 ,4.9824 ,0.59397 ,5.10688 ,50.10867 
28 ,5.1743 ,0.59583 ,5.08292 ,49.87362 
29 ,5.3503 ,0.59760 ,5.06239 ,49.67215 
30 ,5.5423 ,0.59945 ,5.05897 ,49.63857 
31 ,5.7347 ,0.60136 ,5.05212 ,49.57142 
32 ,5.9266 ,0.60337 ,5.00763 ,49.13490 
33 ,6.1028 ,0.60510 ,5.01790 ,49.23563 
34 ,6.3109 ,0.60723 ,4.96657 ,48.73196 
35 ,6.5030 ,0.60911 ,4.99394 ,49.00058 
36 ,6.6947 ,0.61111 ,4.95288 ,48.59764 
37 ,6.8711 ,0.61281 ,4.94261 ,48.49691 
38 ,7.0473 ,0.61459 ,4.91866 ,48.26186 
39 ,7.2389 ,0.61640 ,4.90155 ,48.09397 
40 ,7.4151 ,0.61824 ,4.89812 ,48.06039 
41 ,7.6074 ,0.62016 ,4.87759 ,47.85892 
42 ,7.7992 ,0.62211 ,4.86732 ,47.75819 
43 ,7.9915 ,0.62388 ,4.85021 ,47.59030 
44 ,8.1675 ,0.62580 ,4.81941 ,47.28809 
45 ,8.3597 ,0.62759 ,4.80573 ,47.15378 
46 ,8.5357 ,0.62947 ,4.80573 ,47.15378 
47 ,8.7118 ,0.63124 ,4.77493 ,46.85157 
48 ,8.8880 ,0.63299 ,4.75782 ,46.68368 
49 ,9.0797 ,0.63487 ,4.76808 ,46.78442 
50 ,9.2719 ,0.63670 ,4.74755 ,46.58295 
51 ,9.4481 ,0.63854 ,4.73044 ,46.41506 
52 ,9.6242 ,0.64036 ,4.69964 ,46.11285 
53 ,9.8162 ,0.64220 ,4.69622 ,46.07927 
54 ,9.9924 ,0.64401 ,4.67911 ,45.91138 
55 ,10.2004 ,0.64596 ,4.66542 ,45.77707 
56 ,10.3766 ,0.64785 ,4.64488 ,45.57560 
57 ,10.5525 ,0.64963 ,4.64488 ,45.57560 
58 ,10.7446 ,0.65154 ,4.60382 ,45.17266 
59 ,10.9207 ,0.65332 ,4.61066 ,45.23981 
60 ,11.1287 ,0.65530 ,4.56275 ,44.76972 
61 ,11.3209 ,0.65718 ,4.55933 ,44.73614 
62 ,11.5125 ,0.65921 ,4.54564 ,44.60183 
63 ,11.6889 ,0.66096 ,4.52853 ,44.43394 
64 ,11.8807 ,0.66281 ,4.52169 ,44.36678 
65 ,12.0571 ,0.66466 ,4.50800 ,44.23247 
66 ,12.2332 ,0.66637 ,4.48746 ,44.03100 
67 ,12.4092 ,0.66814 ,4.45666 ,43.72879 
68 ,12.5849 ,0.66994 ,4.44640 ,43.62806 
69 ,12.7614 ,0.67170 ,4.42586 ,43.42659 
70 ,12.9695 ,0.67374 ,4.40875 ,43.25870 
71 ,13.1456 ,0.67555 ,4.40191 ,43.19154 
72 ,13.3377 ,0.67743 ,4.39507 ,43.12438 
73 ,13.5137 ,0.67924 ,4.38138 ,42.99007 
74 ,13.7058 ,0.68103 ,4.35058 ,42.68786 
75 ,13.8819 ,0.68286 ,4.34031 ,42.58713 
76 ,14.0899 ,0.68493 ,4.32320 ,42.41924 
77 ,14.2821 ,0.68681 ,4.30609 ,42.25135 
78 ,14.4745 ,0.68880 ,4.30609 ,42.25135 
79 ,14.6502 ,0.69062 ,4.28556 ,42.04988 
80 ,14.8262 ,0.69244 ,4.26160 ,41.81483 
81 ,15.0184 ,0.69426 ,4.24449 ,41.64694 
82 ,15.2103 ,0.69613 ,4.25133 ,41.71409 
83 ,15.3862 ,0.69795 ,4.22053 ,41.41189 
84 ,15.5625 ,0.69966 ,4.20000 ,41.21042 
85 ,15.7386 ,0.70145 ,4.18631 ,41.07611 
86 ,15.9149 ,0.70320 ,4.18289 ,41.04253 
87 ,16.1069 ,0.70511 ,4.14867 ,40.70674 
88 ,16.2829 ,0.70691 ,4.12471 ,40.47170 
89 ,16.4746 ,0.70879 ,4.12814 ,40.50527 
90 ,16.6510 ,0.71059 ,4.11103 ,40.33738 
91 ,16.8749 ,0.71274 ,4.10076 ,40.23665 
92 ,17.0509 ,0.71455 ,4.07338 ,39.96802 
93 ,17.2272 ,0.71633 ,4.07338 ,39.96802 
94 ,17.4032 ,0.71811 ,4.04943 ,39.73297 
95 ,17.5793 ,0.71983 ,4.02205 ,39.46435 
96 ,17.7555 ,0.72159 ,4.02205 ,39.46435 
97 ,17.9471 ,0.72346 ,4.00152 ,39.26288 
98 ,18.1236 ,0.72532 ,3.99809 ,39.22930 
99 ,18.3157 ,0.72720 ,3.98441 ,39.09499 
100 ,18.4918 ,0.72900 ,3.96729 ,38.92709 
101 ,18.6839 ,0.73085 ,3.93992 ,38.65847 
102 ,18.8597 ,0.73266 ,3.91254 ,38.38984 
103 ,19.0355 ,0.73449 ,3.91938 ,38.45700 
104 ,19.2120 ,0.73615 ,3.90227 ,38.28911 
105 ,19.4199 ,0.73811 ,3.88858 ,38.15479 
106 ,19.5963 ,0.74003 ,3.88174 ,38.08764 
107 ,19.7883 ,0.74188 ,3.86463 ,37.91975 
108 ,19.9962 ,0.74398 ,3.85436 ,37.81901 
109 ,20.1723 ,0.74577 ,3.83383 ,37.61754 
110 ,20.3645 ,0.74762 ,3.79961 ,37.28176 
111 ,20.5406 ,0.74948 ,3.78250 ,37.11387 
112 ,20.7167 ,0.75124 ,3.77908 ,37.08029 
113 ,20.8767 ,0.75297 ,3.78250 ,37.11387 
114 ,21.0528 ,0.75456 ,3.77565 ,37.04671 
115 ,21.2289 ,0.75630 ,3.75854 ,36.87882 
116 ,21.4209 ,0.75825 ,3.72090 ,36.50946 
117 ,21.5970 ,0.75998 ,3.71063 ,36.40872 
118 ,21.7887 ,0.76186 ,3.69352 ,36.24083 
119 ,21.9653 ,0.76372 ,3.68325 ,36.14010 
120 ,22.1571 ,0.76555 ,3.66957 ,36.00578 
121 ,22.3494 ,0.76748 ,3.65246 ,35.83789 
122 ,22.5411 ,0.76943 ,3.64561 ,35.77073 
123 ,22.7170 ,0.77124 ,3.61823 ,35.50211 
124 ,22.8936 ,0.77297 ,3.61481 ,35.46853 
125 ,23.0856 ,0.77497 ,3.59086 ,35.23348 
126 ,23.2454 ,0.77660 ,3.57375 ,35.06559 
127 ,23.4378 ,0.77833 ,3.56006 ,34.93128 
128 ,23.6459 ,0.78040 ,3.56006 ,34.93128 
129 ,23.8219 ,0.78231 ,3.54637 ,34.79696 
130 ,24.0141 ,0.78417 ,3.52584 ,34.59549 
131 ,24.2061 ,0.78610 ,3.50530 ,34.39402 
132 ,24.3818 ,0.78785 ,3.49161 ,34.25971 
133 ,24.5582 ,0.78959 ,3.46081 ,33.95751 
134 ,24.7343 ,0.79139 ,3.46766 ,34.02466 
135 ,24.9101 ,0.79317 ,3.45739 ,33.92393 
136 ,25.0862 ,0.79489 ,3.44028 ,33.75604 
137 ,25.2625 ,0.79667 ,3.41633 ,33.52099 
138 ,25.4544 ,0.79851 ,3.41290 ,33.48741 
139 ,25.6307 ,0.80031 ,3.39579 ,33.31952 
140 ,25.8066 ,0.80212 ,3.38895 ,33.25236 
141 ,26.0148 ,0.80405 ,3.35473 ,32.91658 
142 ,26.2069 ,0.80609 ,3.35130 ,32.88300 
143 ,26.3990 ,0.80797 ,3.31708 ,32.54722 
144 ,26.5751 ,0.80977 ,3.30339 ,32.41290 
145 ,26.7671 ,0.81173 ,3.31024 ,32.48006 
146 ,26.9752 ,0.81367 ,3.27944 ,32.17786 
147 ,27.1673 ,0.81568 ,3.28286 ,32.21143 
148 ,27.3752 ,0.81766 ,3.24864 ,31.87565 
149 ,27.5349 ,0.81950 ,3.24522 ,31.84207 
150 ,27.7115 ,0.82117 ,3.22126 ,31.60702 
151 ,27.9194 ,0.82314 ,3.19046 ,31.30482 
152 ,28.0957 ,0.82496 ,3.18362 ,31.23766 
153 ,28.2877 ,0.82683 ,3.18362 ,31.23766 
154 ,28.4638 ,0.82866 ,3.16993 ,31.10335 
155 ,28.6398 ,0.83036 ,3.14940 ,30.90188 
156 ,28.8158 ,0.83219 ,3.12886 ,30.70041 
157 ,29.0239 ,0.83422 ,3.10833 ,30.49894 
158 ,29.2160 ,0.83623 ,3.11175 ,30.53252 
159 ,29.3920 ,0.83791 ,3.08438 ,30.26389 
160 ,29.5840 ,0.83989 ,3.08438 ,30.26389 
161 ,29.7763 ,0.84171 ,3.06384 ,30.06242 
162 ,29.9684 ,0.84378 ,3.05015 ,29.92811 
163 ,30.1444 ,0.84547 ,3.04673 ,29.89453 
164 ,30.3203 ,0.84720 ,3.03304 ,29.76022 
165 ,30.5126 ,0.84917 ,3.00224 ,29.45801 
166 ,30.6887 ,0.85086 ,2.99882 ,29.42444 
167 ,30.8967 ,0.85295 ,2.96460 ,29.08865 
168 ,31.0887 ,0.85487 ,2.97829 ,29.22297 
169 ,31.2650 ,0.85666 ,2.95776 ,29.02150 
170 ,31.4410 ,0.85846 ,2.93380 ,28.78645 
171 ,31.6490 ,0.86045 ,2.91669 ,28.61856 
172 ,31.8247 ,0.86228 ,2.90985 ,28.55140 
173 ,32.0012 ,0.86401 ,2.89958 ,28.45066 
174 ,32.1933 ,0.86595 ,2.86536 ,28.11488 
175 ,32.3851 ,0.86780 ,2.86878 ,28.14846 
176 ,32.5614 ,0.86959 ,2.85851 ,28.04772 
177 ,32.7535 ,0.87157 ,2.81402 ,27.61121 
178 ,32.9295 ,0.87327 ,2.81402 ,27.61121 
179 ,33.1055 ,0.87499 ,2.82771 ,27.74552 
180 ,33.2816 ,0.87678 ,2.79007 ,27.37616 
181 ,33.4579 ,0.87854 ,2.76611 ,27.14111 
182 ,33.6497 ,0.88055 ,2.75927 ,27.07395 
183 ,33.8579 ,0.88249 ,2.74216 ,26.90606 
184 ,34.0339 ,0.88433 ,2.72163 ,26.70459 
185 ,34.2421 ,0.88631 ,2.72505 ,26.73817 
186 ,34.4179 ,0.88816 ,2.69425 ,26.43597 
187 ,34.6102 ,0.89009 ,2.68398 ,26.33523 
188 ,34.8021 ,0.89202 ,2.67372 ,26.23450 
189 ,35.0100 ,0.89411 ,2.65318 ,26.03303 
190 ,35.1862 ,0.89581 ,2.64634 ,25.96587 
191 ,35.3625 ,0.89759 ,2.63949 ,25.89871 
192 ,35.5388 ,0.89936 ,2.61212 ,25.63009 
193 ,35.7467 ,0.90131 ,2.59158 ,25.42862 
194 ,35.9228 ,0.90325 ,2.58816 ,25.39504 
195 ,36.0988 ,0.90498 ,2.56421 ,25.15999 
196 ,36.2909 ,0.90679 ,2.56078 ,25.12641 
197 ,36.4670 ,0.90868 ,2.54025 ,24.92494 
198 ,36.6592 ,0.91055 ,2.52656 ,24.79063 
199 ,36.8511 ,0.91244 ,2.50261 ,24.55558 
200 ,37.0273 ,0.91424 ,2.49918 ,24.52200 
201 ,37.2193 ,0.91612 ,2.49234 ,24.45485 
202 ,37.3953 ,0.91794 ,2.47865 ,24.32053 
203 ,37.5715 ,0.91967 ,2.44443 ,23.98475 
204 ,37.7475 ,0.92145 ,2.42732 ,23.81686 
205 ,37.9236 ,0.92320 ,2.43416 ,23.88402 
206 ,38.0997 ,0.92499 ,2.43416 ,23.88402 
207 ,38.2918 ,0.92679 ,2.39310 ,23.48108 
208 ,38.4996 ,0.92894 ,2.39310 ,23.48108 
209 ,38.6919 ,0.93084 ,2.36572 ,23.21245 
210 ,38.8839 ,0.93284 ,2.35888 ,23.14529 
211 ,39.0756 ,0.93466 ,2.34177 ,22.97740 
212 ,39.2518 ,0.93652 ,2.32808 ,22.84309 
213 ,39.4442 ,0.93835 ,2.30754 ,22.64162 
214 ,39.6358 ,0.94036 ,2.31097 ,22.67520 
215 ,39.8278 ,0.94216 ,2.28701 ,22.44015 
216 ,40.0039 ,0.94403 ,2.26990 ,22.27226 
217 ,40.1804 ,0.94581 ,2.27332 ,22.30584 
218 ,40.3881 ,0.94780 ,2.23226 ,21.90290 
219 ,40.5642 ,0.94961 ,2.23226 ,21.90290 
220 ,40.7404 ,0.95135 ,2.22883 ,21.86932 
221 ,40.9327 ,0.95324 ,2.19803 ,21.56711 
222 ,41.1249 ,0.95525 ,2.19119 ,21.49996 
223 ,41.3169 ,0.95710 ,2.18435 ,21.43280 
224 ,41.4927 ,0.95884 ,2.16381 ,21.23133 
225 ,41.6849 ,0.96079 ,2.15697 ,21.16417 
226 ,41.8611 ,0.96263 ,2.13644 ,20.96270 
227 ,42.0531 ,0.96441 ,2.12617 ,20.86197 
228 ,42.2293 ,0.96623 ,2.10906 ,20.69408 
229 ,42.4212 ,0.96809 ,2.09195 ,20.52619 
230 ,42.6135 ,0.97002 ,2.08510 ,20.45903 
231 ,42.8215 ,0.97210 ,2.06115 ,20.22398 
232 ,42.9976 ,0.97394 ,2.06115 ,20.22398 
233 ,43.2056 ,0.97595 ,2.04061 ,20.02251 
234 ,43.3818 ,0.97774 ,2.02350 ,19.85462 
235 ,43.5577 ,0.97957 ,2.00639 ,19.68673 
236 ,43.7498 ,0.98145 ,1.99613 ,19.58599 
237 ,43.9259 ,0.98321 ,1.97902 ,19.41810 
238 ,44.1020 ,0.98493 ,1.97217 ,19.35094 
239 ,44.2782 ,0.98677 ,1.97559 ,19.38452 
240 ,44.4703 ,0.98862 ,1.94479 ,19.08232 
241 ,44.6462 ,0.99042 ,1.93111 ,18.94801 
242 ,44.8221 ,0.99220 ,1.91742 ,18.81369 
243 ,45.0144 ,0.99410 ,1.93111 ,18.94801 
244 ,45.2064 ,0.99601 ,1.88662 ,18.51149 
245 ,45.3986 ,0.99786 ,1.89346 ,18.57864 
246 ,45.5905 ,0.99988 ,1.87293 ,18.37717 
247 ,45.7988 ,1.00188 ,1.86951 ,18.34360 
248 ,45.9748 ,1.00370 ,1.85582 ,18.20928 
249 ,46.1507 ,1.00544 ,1.83528 ,18.00781 
250 ,46.3429 ,1.00724 ,1.80449 ,17.70561 
251 ,46.5190 ,1.00917 ,1.81133 ,17.77276 
252 ,46.6947 ,1.01090 ,1.79764 ,17.63845 
253 ,46.9032 ,1.01288 ,1.77026 ,17.36983 
254 ,47.0953 ,1.01490 ,1.77369 ,17.40340 
255 ,47.2714 ,1.01666 ,1.74631 ,17.13478 
256 ,47.4634 ,1.01860 ,1.71209 ,16.79899 
257 ,47.6555 ,1.02046 ,1.73262 ,17.00046 
258 ,47.8476 ,1.02240 ,1.70866 ,16.76542 
259 ,48.0237 ,1.02412 ,1.68471 ,16.53037 
260 ,48.1998 ,1.02593 ,1.67444 ,16.42963 
261 ,48.3917 ,1.02778 ,1.66760 ,16.36248 
262 ,48.5679 ,1.02959 ,1.65391 ,16.22816 
263 ,48.7600 ,1.03150 ,1.64707 ,16.16101 
264 ,48.9360 ,1.03341 ,1.64022 ,16.09385 
265 ,49.1122 ,1.03504 ,1.63680 ,16.06027 
266 ,49.2881 ,1.03683 ,1.60600 ,15.75807 
267 ,49.4805 ,1.03870 ,1.58889 ,15.59018 
268 ,49.6724 ,1.04064 ,1.56493 ,15.35513 
269 ,49.8803 ,1.04272 ,1.55809 ,15.28797 
270 ,50.0725 ,1.04459 ,1.54440 ,15.15366 
271 ,50.2646 ,1.04658 ,1.53071 ,15.01934 
272 ,50.4404 ,1.04832 ,1.51018 ,14.81787 
273 ,50.6165 ,1.05015 ,1.51018 ,14.81787 
274 ,50.7927 ,1.05183 ,1.51018 ,14.81787 
275 ,50.9686 ,1.05358 ,1.48622 ,14.58283 
276 ,51.1609 ,1.05550 ,1.46911 ,14.41493 
277 ,51.3688 ,1.05759 ,1.46227 ,14.34778 
278 ,51.5450 ,1.05937 ,1.43489 ,14.07915 
279 ,51.7371 ,1.06128 ,1.43489 ,14.07915 
280 ,51.9132 ,1.06307 ,1.42805 ,14.01199 
281 ,52.1213 ,1.06501 ,1.41094 ,13.84410 
282 ,52.3294 ,1.06716 ,1.40067 ,13.74337 
283 ,52.5214 ,1.06909 ,1.39040 ,13.64263 
284 ,52.6974 ,1.07090 ,1.36303 ,13.37401 
285 ,52.9056 ,1.07298 ,1.34934 ,13.23969 
286 ,53.0817 ,1.07477 ,1.33223 ,13.07180 
287 ,53.2738 ,1.07657 ,1.33223 ,13.07180 
288 ,53.4657 ,1.07861 ,1.32538 ,13.00465 
289 ,53.6579 ,1.08038 ,1.30485 ,12.80318 
290 ,53.8340 ,1.08229 ,1.29458 ,12.70244 
291 ,54.0261 ,1.08412 ,1.28089 ,12.56813 
292 ,54.2018 ,1.08589 ,1.25352 ,12.29950 
293 ,54.3783 ,1.08770 ,1.24667 ,12.23235 
294 ,54.5702 ,1.08958 ,1.24325 ,12.19877 
295 ,54.7624 ,1.09146 ,1.23298 ,12.09803 
296 ,54.9545 ,1.09337 ,1.23298 ,12.09803 
297 ,55.1466 ,1.09532 ,1.19876 ,11.76225 
298 ,55.3387 ,1.09725 ,1.19192 ,11.69509 
299 ,55.5306 ,1.09917 ,1.18850 ,11.66151 
300 ,55.7227 ,1.10110 ,1.17138 ,11.49362 
301 ,55.8989 ,1.10287 ,1.15085 ,11.29215 
302 ,56.0906 ,1.10478 ,1.14743 ,11.25857 
303 ,56.2829 ,1.10663 ,1.15427 ,11.32573 
304 ,56.4908 ,1.10878 ,1.12690 ,11.05710 
305 ,56.6830 ,1.11070 ,1.09267 ,10.72132 
306 ,56.8752 ,1.11261 ,1.09952 ,10.78848 
307 ,57.0511 ,1.11442 ,1.07899 ,10.58701 
308 ,57.2434 ,1.11628 ,1.07214 ,10.51985 
309 ,57.4351 ,1.11824 ,1.03792 ,10.18407 
310 ,57.6114 ,1.11999 ,1.04819 ,10.28480 
311 ,57.8036 ,1.12187 ,1.02423 ,10.04976 
312 ,57.9959 ,1.12388 ,1.01054 ,9.91544 
313 ,58.1877 ,1.12574 ,1.01739 ,9.98260 
314 ,58.3799 ,1.12759 ,0.99001 ,9.71397 
315 ,58.5554 ,1.12950 ,0.98659 ,9.68039 
316 ,58.8595 ,1.13185 ,0.97632 ,9.57966 
317 ,59.0515 ,1.13434 ,0.95237 ,9.34461 
318 ,59.2277 ,1.13616 ,0.93868 ,9.21030 
319 ,59.4036 ,1.13799 ,0.91130 ,8.94167 
320 ,59.5957 ,1.13975 ,0.90788 ,8.90809 
321 ,59.7719 ,1.14163 ,0.89419 ,8.77378 
322 ,59.9479 ,1.14335 ,0.89761 ,8.80736 
323 ,60.1239 ,1.14519 ,0.87708 ,8.60589 
324 ,60.3001 ,1.14689 ,0.88734 ,8.70662 
325 ,60.4921 ,1.14876 ,0.85997 ,8.43800 
326 ,60.6843 ,1.15065 ,0.84628 ,8.30368 
327 ,60.8762 ,1.15259 ,0.81548 ,8.00148 
328 ,61.0688 ,1.15457 ,0.82575 ,8.10221 
329 ,61.2607 ,1.15645 ,0.80863 ,7.93432 
330 ,61.4530 ,1.15835 ,0.79837 ,7.83359 
331 ,61.6290 ,1.16019 ,0.78810 ,7.73285 
332 ,61.8048 ,1.16192 ,0.77784 ,7.63212 
333 ,61.9972 ,1.16387 ,0.75730 ,7.43065 
334 ,62.1891 ,1.16581 ,0.75046 ,7.36349 
335 ,62.3653 ,1.16756 ,0.73335 ,7.19560 
336 ,62.5412 ,1.16934 ,0.74704 ,7.32991 
337 ,62.7333 ,1.17116 ,0.69913 ,6.85982 
338 ,62.9095 ,1.17304 ,0.71281 ,6.99413 
339 ,63.1013 ,1.17489 ,0.68886 ,6.75908 
340 ,63.2775 ,1.17668 ,0.69228 ,6.79266 
341 ,63.4538 ,1.17845 ,0.65464 ,6.42330 
342 ,63.6459 ,1.18034 ,0.65464 ,6.42330 
343 ,63.8218 ,1.18209 ,0.64437 ,6.32256 
344 ,64.0141 ,1.18407 ,0.62042 ,6.08752 
345 ,64.2222 ,1.18601 ,0.61699 ,6.05394 
346 ,64.3981 ,1.18786 ,0.61015 ,5.98678 
347 ,64.5743 ,1.18963 ,0.57593 ,5.65100 
348 ,64.7499 ,1.19136 ,0.57593 ,5.65100 
349 ,64.9420 ,1.19316 ,0.56908 ,5.58384 
350 ,65.1186 ,1.19506 ,0.57593 ,5.65100 
351 ,65.3265 ,1.19711 ,0.53828 ,5.28164 
352 ,65.5025 ,1.19885 ,0.53486 ,5.24806 
353 ,65.6947 ,1.20078 ,0.51775 ,5.08017 
354 ,65.8867 ,1.20278 ,0.50748 ,4.97943 
355 ,66.0789 ,1.20451 ,0.50406 ,4.94585 
356 ,66.2549 ,1.20640 ,0.48011 ,4.71081 
357 ,66.4309 ,1.20817 ,0.46642 ,4.57649 
358 ,66.6071 ,1.20992 ,0.47326 ,4.64365 
359 ,66.7830 ,1.21167 ,0.45615 ,4.47576 
360 ,66.9593 ,1.21344 ,0.44588 ,4.37502 
361 ,67.1672 ,1.21546 ,0.42193 ,4.13997 
362 ,67.3593 ,1.21738 ,0.41166 ,4.03924 
363 ,67.5514 ,1.21930 ,0.39797 ,3.90493 
364 ,67.7432 ,1.22118 ,0.38771 ,3.80419 
365 ,67.9196 ,1.22304 ,0.38771 ,3.80419 
366 ,68.1274 ,1.22505 ,0.37402 ,3.66988 
367 ,68.3037 ,1.22687 ,0.36375 ,3.56914 
368 ,68.4958 ,1.22881 ,0.35006 ,3.43483 
369 ,68.6720 ,1.23063 ,0.32953 ,3.23336 
370 ,68.8640 ,1.23241 ,0.31926 ,3.13263 
371 ,69.0560 ,1.23443 ,0.30215 ,2.96473 
372 ,69.2480 ,1.23630 ,0.30558 ,2.99831 
373 ,69.4400 ,1.23816 ,0.29189 ,2.86400 
374 ,69.6323 ,1.24012 ,0.26109 ,2.56179 
375 ,69.8243 ,1.24207 ,0.26109 ,2.56179 
376 ,70.0165 ,1.24399 ,0.25767 ,2.52822 
377 ,70.2085 ,1.24588 ,0.22687 ,2.22601 
378 ,70.3846 ,1.24768 ,0.22002 ,2.15885 
379 ,70.5765 ,1.24953 ,0.22344 ,2.19243 
380 ,70.7688 ,1.25153 ,0.18922 ,1.85665 
381 ,70.9447 ,1.25329 ,0.19264 ,1.89023 
382 ,71.1209 ,1.25501 ,0.18580 ,1.82307 
383 ,71.3126 ,1.25691 ,0.15842 ,1.55445 
384 ,71.4888 ,1.25873 ,0.15158 ,1.48729 
385 ,71.6971 ,1.26076 ,0.14473 ,1.42013 
386 ,71.8890 ,1.26267 ,0.11736 ,1.15151 
387 ,72.0812 ,1.26468 ,0.13789 ,1.35298 
388 ,72.2891 ,1.26667 ,0.10367 ,1.01719 
389 ,72.4654 ,1.26851 ,0.10025 ,0.98361 
390 ,72.6574 ,1.27039 ,0.10025 ,0.98361 
391 ,72.8334 ,1.27214 ,0.08656 ,0.84930 
392 ,73.0094 ,1.27392 ,0.05918 ,0.58067 
393 ,73.1856 ,1.27571 ,0.06260 ,0.61425 
394 ,73.3617 ,1.27745 ,0.05918 ,0.58067 
395 ,73.5377 ,1.27921 ,0.04891 ,0.47994 
396 ,73.7138 ,1.28102 ,0.04549 ,0.44636 
397 ,73.9219 ,1.28301 ,0.02496 ,0.24489 
398 ,74.1140 ,1.28498 ,0.01469 ,0.14416 
399 ,74.2898 ,1.28677 ,-0.00584 ,-0.05731 
400 ,74.4658 ,1.28848 ,-0.00926 ,-0.09089 
401 ,74.6420 ,1.29029 ,-0.01269 ,-0.12447 
402 ,74.8180 ,1.29199 ,-0.02980 ,-0.29236 
403 ,74.9940 ,1.29376 ,-0.03322 ,-0.32594 
404 ,75.1702 ,1.29553 ,-0.04348 ,-0.42667 
405 ,75.3462 ,1.29728 ,-0.06402 ,-0.62814 
406 ,75.5223 ,1.29903 ,-0.07086 ,-0.69530 
407 ,75.6983 ,1.30080 ,-0.06744 ,-0.66172 
408 ,75.8583 ,1.30252 ,-0.07086 ,-0.69530 
409 ,76.0345 ,1.30418 ,-0.08797 ,-0.86319 
410 ,76.2105 ,1.30593 ,-0.08797 ,-0.86319 
411 ,76.3865 ,1.30768 ,-0.10508 ,-1.03108 
412 ,76.5627 ,1.30947 ,-0.12562 ,-1.23255 
413 ,76.7392 ,1.31120 ,-0.13246 ,-1.29971 
414 ,76.9148 ,1.31308 ,-0.12219 ,-1.19898 
415 ,77.0909 ,1.31472 ,-0.13246 ,-1.29971 
416 ,77.2669 ,1.31646 ,-0.14957 ,-1.46760 
417 ,77.4431 ,1.31826 ,-0.16668 ,-1.63549 
418 ,77.6191 ,1.31998 ,-0.17353 ,-1.70265 
419 ,77.7951 ,1.32176 ,-0.17011 ,-1.66907 
420 ,77.9712 ,1.32356 ,-0.17695 ,-1.73623 
421 ,78.1473 ,1.32528 ,-0.20090 ,-1.97128 
422 ,78.3234 ,1.32706 ,-0.21459 ,-2.10559 
423 ,78.4834 ,1.32877 ,-0.22486 ,-2.20632 
424 ,78.6595 ,1.33041 ,-0.22828 ,-2.23990 
425 ,78.8358 ,1.33219 ,-0.22828 ,-2.23990 
426 ,79.0281 ,1.33404 ,-0.25224 ,-2.47495 
427 ,79.2042 ,1.33585 ,-0.26593 ,-2.60926 
428 ,79.3802 ,1.33760 ,-0.25908 ,-2.54211 
429 ,79.5722 ,1.33951 ,-0.26250 ,-2.57569 
430 ,79.7668 ,1.34140 ,-0.28988 ,-2.84431 
431 ,79.9562 ,1.34336 ,-0.28304 ,-2.77716 
432 ,80.1646 ,1.34544 ,-0.30015 ,-2.94505 
433 ,80.3567 ,1.34732 ,-0.29673 ,-2.91147 
434 ,80.5327 ,1.34916 ,-0.29673 ,-2.91147 
435 ,80.7247 ,1.35108 ,-0.32410 ,-3.18010 
436 ,80.9005 ,1.35280 ,-0.33095 ,-3.24725 
437 ,81.0770 ,1.35459 ,-0.34464 ,-3.38156 
438 ,81.2850 ,1.35659 ,-0.35490 ,-3.48230 
439 ,81.4772 ,1.35853 ,-0.35490 ,-3.48230 
440 ,81.6691 ,1.36048 ,-0.36859 ,-3.61661 
441 ,81.8452 ,1.36226 ,-0.37544 ,-3.68377 
442 ,82.0371 ,1.36423 ,-0.37886 ,-3.71735 
443 ,82.2133 ,1.36595 ,-0.39597 ,-3.88524 
444 ,82.3895 ,1.36771 ,-0.39939 ,-3.91882 
445 ,82.5817 ,1.36958 ,-0.43019 ,-4.22102 
446 ,82.7893 ,1.37163 ,-0.40966 ,-4.01955 
447 ,82.9658 ,1.37345 ,-0.44046 ,-4.32176 
448 ,83.1577 ,1.37532 ,-0.44730 ,-4.38891 
449 ,83.3338 ,1.37717 ,-0.44388 ,-4.35534 
450 ,83.4938 ,1.37883 ,-0.44046 ,-4.32176 
451 ,83.6699 ,1.38051 ,-0.45414 ,-4.45607 
452 ,83.8620 ,1.38245 ,-0.48152 ,-4.72470 
453 ,84.0699 ,1.38447 ,-0.47810 ,-4.69112 
454 ,84.2462 ,1.38625 ,-0.47810 ,-4.69112 
455 ,84.4542 ,1.38829 ,-0.49863 ,-4.89259 
456 ,84.6302 ,1.39013 ,-0.49863 ,-4.89259 
457 ,84.8384 ,1.39204 ,-0.53628 ,-5.26195 
458 ,85.0146 ,1.39396 ,-0.51917 ,-5.09406 
459 ,85.2066 ,1.39583 ,-0.54312 ,-5.32911 
460 ,85.3666 ,1.39756 ,-0.53628 ,-5.26195 
461 ,85.5587 ,1.39931 ,-0.54312 ,-5.32911 
462 ,85.7347 ,1.40112 ,-0.55681 ,-5.46342 
463 ,85.9108 ,1.40288 ,-0.56023 ,-5.49700 
