Data stamp = , 12-04-2022 15:05:52 445

Calibration Values: 
Slope = , 26.54 , g/V 
Offset Voltage at no contact = , -0.501760 , V 

No , Time , Stage Position ,   Mass , Force 
   ,  (s) ,      (mm)      ,   (g)  , (mN)  

1 ,0.0000 ,0.59949 ,5.00421 ,49.10132 
2 ,0.2126 ,0.59957 ,5.00079 ,49.06774 
3 ,0.5329 ,0.60038 ,4.98710 ,48.93343 
4 ,0.7410 ,0.60196 ,4.99052 ,48.96701 
5 ,0.9329 ,0.60359 ,5.00763 ,49.13490 
6 ,1.1249 ,0.60550 ,4.99394 ,49.00058 
7 ,1.3012 ,0.60729 ,4.99737 ,49.03416 
8 ,1.4930 ,0.60913 ,5.01790 ,49.23563 
9 ,1.6693 ,0.61093 ,5.00079 ,49.06774 
10 ,1.8453 ,0.61276 ,4.97341 ,48.79911 
11 ,2.0374 ,0.61461 ,4.96315 ,48.69838 
12 ,2.2136 ,0.61641 ,4.95288 ,48.59764 
13 ,2.4055 ,0.61824 ,4.92550 ,48.32902 
14 ,2.5818 ,0.62007 ,4.90839 ,48.16113 
15 ,2.7736 ,0.62204 ,4.91523 ,48.22828 
16 ,2.9657 ,0.62388 ,4.86732 ,47.75819 
17 ,3.1419 ,0.62566 ,4.85706 ,47.65745 
18 ,3.3336 ,0.62759 ,4.86048 ,47.69103 
19 ,3.5100 ,0.62934 ,4.83995 ,47.48956 
20 ,3.6860 ,0.63112 ,4.81599 ,47.25451 
21 ,3.8621 ,0.63291 ,4.78177 ,46.91873 
22 ,4.0383 ,0.63465 ,4.77493 ,46.85157 
23 ,4.2145 ,0.63638 ,4.78519 ,46.95231 
24 ,4.4221 ,0.63842 ,4.75097 ,46.61653 
25 ,4.5986 ,0.64026 ,4.74070 ,46.51579 
26 ,4.8065 ,0.64226 ,4.71675 ,46.28074 
27 ,4.9828 ,0.64408 ,4.69964 ,46.11285 
28 ,5.1587 ,0.64595 ,4.69279 ,46.04569 
29 ,5.3509 ,0.64774 ,4.67568 ,45.87780 
30 ,5.5105 ,0.64949 ,4.65857 ,45.70991 
31 ,5.6867 ,0.65109 ,4.64146 ,45.54202 
32 ,5.8630 ,0.65288 ,4.62777 ,45.40771 
33 ,6.0391 ,0.65466 ,4.59697 ,45.10550 
34 ,6.2152 ,0.65642 ,4.59013 ,45.03835 
35 ,6.3910 ,0.65817 ,4.58671 ,45.00477 
36 ,6.5510 ,0.65988 ,4.58328 ,44.97119 
37 ,6.7274 ,0.66151 ,4.55249 ,44.66898 
38 ,6.9194 ,0.66348 ,4.53195 ,44.46751 
39 ,7.0954 ,0.66520 ,4.52169 ,44.36678 
40 ,7.2716 ,0.66696 ,4.51484 ,44.29962 
41 ,7.4794 ,0.66890 ,4.48404 ,43.99742 
42 ,7.6555 ,0.67078 ,4.47378 ,43.89668 
43 ,7.8315 ,0.67255 ,4.46351 ,43.79595 
44 ,8.0080 ,0.67434 ,4.44982 ,43.66163 
45 ,8.2001 ,0.67619 ,4.41218 ,43.29227 
46 ,8.4081 ,0.67826 ,4.39507 ,43.12438 
47 ,8.6001 ,0.68021 ,4.38480 ,43.02365 
48 ,8.7762 ,0.68196 ,4.37453 ,42.92291 
49 ,8.9845 ,0.68405 ,4.36769 ,42.85576 
50 ,9.1764 ,0.68603 ,4.34373 ,42.62071 
51 ,9.3524 ,0.68776 ,4.33004 ,42.48639 
52 ,9.5286 ,0.68956 ,4.31978 ,42.38566 
53 ,9.7042 ,0.69128 ,4.30609 ,42.25135 
54 ,9.8805 ,0.69305 ,4.28556 ,42.04988 
55 ,10.0567 ,0.69482 ,4.25818 ,41.78125 
56 ,10.2328 ,0.69655 ,4.26160 ,41.81483 
57 ,10.4408 ,0.69852 ,4.24449 ,41.64694 
58 ,10.6330 ,0.70050 ,4.23080 ,41.51262 
59 ,10.8250 ,0.70240 ,4.21027 ,41.31115 
60 ,11.0011 ,0.70425 ,4.19316 ,41.14326 
61 ,11.1612 ,0.70594 ,4.17605 ,40.97537 
62 ,11.3373 ,0.70763 ,4.16920 ,40.90821 
63 ,11.5135 ,0.70935 ,4.15209 ,40.74032 
64 ,11.7215 ,0.71142 ,4.12129 ,40.43812 
65 ,11.8975 ,0.71326 ,4.12814 ,40.50527 
66 ,12.0736 ,0.71496 ,4.09734 ,40.20307 
67 ,12.2656 ,0.71693 ,4.09734 ,40.20307 
68 ,12.4578 ,0.71879 ,4.07338 ,39.96802 
69 ,12.6500 ,0.72069 ,4.07338 ,39.96802 
70 ,12.8420 ,0.72253 ,4.04943 ,39.73297 
71 ,13.0341 ,0.72451 ,4.02889 ,39.53150 
72 ,13.2421 ,0.72650 ,4.02547 ,39.49793 
73 ,13.4341 ,0.72856 ,3.98783 ,39.12856 
74 ,13.6104 ,0.73032 ,3.98783 ,39.12856 
75 ,13.7864 ,0.73210 ,3.97756 ,39.02783 
76 ,13.9620 ,0.73392 ,3.95018 ,38.75920 
77 ,14.1224 ,0.73560 ,3.93650 ,38.62489 
78 ,14.2985 ,0.73719 ,3.91596 ,38.42342 
79 ,14.4746 ,0.73895 ,3.92623 ,38.52415 
80 ,14.6667 ,0.74083 ,3.89885 ,38.25553 
81 ,14.8587 ,0.74279 ,3.88516 ,38.12122 
82 ,15.0345 ,0.74452 ,3.86805 ,37.95332 
83 ,15.2110 ,0.74634 ,3.87147 ,37.98690 
84 ,15.4191 ,0.74835 ,3.82699 ,37.55038 
85 ,15.6111 ,0.75029 ,3.82699 ,37.55038 
86 ,15.7870 ,0.75207 ,3.81330 ,37.41607 
87 ,15.9793 ,0.75394 ,3.77908 ,37.08029 
88 ,16.1552 ,0.75579 ,3.78250 ,37.11387 
89 ,16.3314 ,0.75752 ,3.75854 ,36.87882 
90 ,16.5235 ,0.75937 ,3.74143 ,36.71093 
91 ,16.6997 ,0.76122 ,3.72090 ,36.50946 
92 ,16.8915 ,0.76315 ,3.72432 ,36.54303 
93 ,17.0837 ,0.76506 ,3.70379 ,36.34157 
94 ,17.2598 ,0.76678 ,3.67641 ,36.07294 
95 ,17.4521 ,0.76874 ,3.67299 ,36.03936 
96 ,17.6439 ,0.77062 ,3.65246 ,35.83789 
97 ,17.8361 ,0.77259 ,3.62508 ,35.56926 
98 ,18.0120 ,0.77447 ,3.63534 ,35.67000 
99 ,18.1880 ,0.77609 ,3.61823 ,35.50211 
100 ,18.3802 ,0.77794 ,3.59086 ,35.23348 
101 ,18.5882 ,0.78003 ,3.58743 ,35.19990 
102 ,18.7804 ,0.78201 ,3.56690 ,34.99843 
103 ,18.9568 ,0.78374 ,3.54637 ,34.79696 
104 ,19.1484 ,0.78565 ,3.54295 ,34.76338 
105 ,19.3247 ,0.78743 ,3.52926 ,34.62907 
106 ,19.5007 ,0.78916 ,3.50872 ,34.42760 
107 ,19.6767 ,0.79097 ,3.48819 ,34.22613 
108 ,19.8531 ,0.79272 ,3.47450 ,34.09182 
109 ,20.0291 ,0.79448 ,3.47108 ,34.05824 
110 ,20.2211 ,0.79645 ,3.46081 ,33.95751 
111 ,20.4131 ,0.79823 ,3.44370 ,33.78961 
112 ,20.5892 ,0.80007 ,3.43344 ,33.68888 
113 ,20.7651 ,0.80183 ,3.41633 ,33.52099 
114 ,20.9576 ,0.80378 ,3.39579 ,33.31952 
115 ,21.1494 ,0.80565 ,3.39237 ,33.28594 
116 ,21.3415 ,0.80754 ,3.37526 ,33.11805 
117 ,21.5176 ,0.80938 ,3.35130 ,32.88300 
118 ,21.7094 ,0.81130 ,3.32393 ,32.61437 
119 ,21.9018 ,0.81316 ,3.32393 ,32.61437 
120 ,22.0778 ,0.81501 ,3.30682 ,32.44648 
121 ,22.2698 ,0.81690 ,3.28971 ,32.27859 
122 ,22.4619 ,0.81867 ,3.28628 ,32.24501 
123 ,22.6541 ,0.82071 ,3.24864 ,31.87565 
124 ,22.8457 ,0.82262 ,3.25891 ,31.97639 
125 ,23.0222 ,0.82441 ,3.24180 ,31.80849 
126 ,23.2302 ,0.82646 ,3.21784 ,31.57345 
127 ,23.4060 ,0.82821 ,3.20757 ,31.47271 
128 ,23.5820 ,0.83001 ,3.20415 ,31.43913 
129 ,23.7743 ,0.83187 ,3.16651 ,31.06977 
130 ,23.9505 ,0.83369 ,3.14940 ,30.90188 
131 ,24.1263 ,0.83549 ,3.16309 ,31.03619 
132 ,24.3028 ,0.83721 ,3.13913 ,30.80115 
133 ,24.4784 ,0.83906 ,3.10833 ,30.49894 
134 ,24.6546 ,0.84072 ,3.09464 ,30.36463 
135 ,24.8310 ,0.84253 ,3.08438 ,30.26389 
136 ,25.0231 ,0.84442 ,3.09806 ,30.39821 
137 ,25.2152 ,0.84633 ,3.05358 ,29.96169 
138 ,25.4071 ,0.84824 ,3.05700 ,29.99527 
139 ,25.6153 ,0.85025 ,3.01593 ,29.59233 
140 ,25.7913 ,0.85216 ,3.02620 ,29.69306 
141 ,25.9674 ,0.85385 ,3.00567 ,29.49159 
142 ,26.1435 ,0.85556 ,2.99882 ,29.42444 
143 ,26.3355 ,0.85751 ,2.97144 ,29.15581 
144 ,26.5118 ,0.85929 ,2.94749 ,28.92076 
145 ,26.7038 ,0.86112 ,2.96118 ,29.05507 
146 ,26.8958 ,0.86308 ,2.93380 ,28.78645 
147 ,27.0878 ,0.86513 ,2.93380 ,28.78645 
148 ,27.2638 ,0.86679 ,2.90985 ,28.55140 
149 ,27.4560 ,0.86873 ,2.89273 ,28.38351 
150 ,27.6319 ,0.87048 ,2.86878 ,28.14846 
151 ,27.8238 ,0.87236 ,2.87562 ,28.21562 
152 ,28.0003 ,0.87420 ,2.86193 ,28.08130 
153 ,28.2084 ,0.87620 ,2.83456 ,27.81268 
154 ,28.4162 ,0.87828 ,2.80034 ,27.47689 
155 ,28.5925 ,0.88010 ,2.79691 ,27.44332 
156 ,28.7685 ,0.88185 ,2.78665 ,27.34258 
157 ,28.9442 ,0.88356 ,2.78322 ,27.30900 
158 ,29.1367 ,0.88542 ,2.76954 ,27.17469 
159 ,29.3129 ,0.88729 ,2.74216 ,26.90606 
160 ,29.5208 ,0.88933 ,2.72505 ,26.73817 
161 ,29.6969 ,0.89108 ,2.72163 ,26.70459 
162 ,29.8729 ,0.89288 ,2.69083 ,26.40239 
163 ,30.0490 ,0.89466 ,2.68398 ,26.33523 
164 ,30.2252 ,0.89640 ,2.67714 ,26.26807 
165 ,30.4334 ,0.89834 ,2.64976 ,25.99945 
166 ,30.6252 ,0.90035 ,2.66687 ,26.16734 
167 ,30.8011 ,0.90218 ,2.64634 ,25.96587 
168 ,30.9775 ,0.90396 ,2.63949 ,25.89871 
169 ,31.1855 ,0.90602 ,2.61212 ,25.63009 
170 ,31.3776 ,0.90796 ,2.59501 ,25.46220 
171 ,31.5539 ,0.90969 ,2.57789 ,25.29430 
172 ,31.7299 ,0.91148 ,2.56078 ,25.12641 
173 ,31.9220 ,0.91332 ,2.55394 ,25.05926 
174 ,32.0977 ,0.91524 ,2.52998 ,24.82421 
175 ,32.2740 ,0.91686 ,2.52656 ,24.79063 
176 ,32.4822 ,0.91895 ,2.51972 ,24.72347 
177 ,32.6743 ,0.92083 ,2.48207 ,24.35411 
178 ,32.8821 ,0.92292 ,2.49234 ,24.45485 
179 ,33.0583 ,0.92473 ,2.47523 ,24.28696 
180 ,33.2345 ,0.92650 ,2.44101 ,23.95117 
181 ,33.4423 ,0.92852 ,2.44785 ,24.01833 
182 ,33.6186 ,0.93034 ,2.43074 ,23.85044 
183 ,33.7944 ,0.93206 ,2.39652 ,23.51465 
184 ,33.9708 ,0.93386 ,2.39652 ,23.51465 
185 ,34.1629 ,0.93577 ,2.37941 ,23.34676 
186 ,34.3548 ,0.93770 ,2.36914 ,23.24603 
187 ,34.5470 ,0.93954 ,2.34861 ,23.04456 
188 ,34.7391 ,0.94154 ,2.35203 ,23.07814 
189 ,34.9311 ,0.94340 ,2.30754 ,22.64162 
190 ,35.1072 ,0.94520 ,2.29728 ,22.54088 
191 ,35.2832 ,0.94700 ,2.30070 ,22.57446 
192 ,35.4755 ,0.94890 ,2.28359 ,22.40657 
193 ,35.9236 ,0.95210 ,2.27332 ,22.30584 
194 ,36.0997 ,0.95515 ,2.24252 ,22.00363 
195 ,36.2917 ,0.95707 ,2.22883 ,21.86932 
196 ,36.4998 ,0.95901 ,2.22541 ,21.83574 
197 ,36.6920 ,0.96102 ,2.19803 ,21.56711 
198 ,36.8680 ,0.96288 ,2.16381 ,21.23133 
199 ,37.0760 ,0.96484 ,2.16039 ,21.19775 
200 ,37.2521 ,0.96665 ,2.16039 ,21.19775 
201 ,37.4280 ,0.96846 ,2.13644 ,20.96270 
202 ,37.6203 ,0.97028 ,2.13986 ,20.99628 
203 ,37.8124 ,0.97219 ,2.10564 ,20.66050 
204 ,37.9884 ,0.97397 ,2.09879 ,20.59334 
205 ,38.1643 ,0.97576 ,2.08852 ,20.49261 
206 ,38.3407 ,0.97755 ,2.08168 ,20.42545 
207 ,38.5323 ,0.97942 ,2.05773 ,20.19040 
208 ,38.7088 ,0.98123 ,2.03377 ,19.95535 
209 ,38.9008 ,0.98309 ,2.03719 ,19.98893 
210 ,39.0929 ,0.98507 ,2.01666 ,19.78746 
211 ,39.3011 ,0.98701 ,2.01324 ,19.75388 
212 ,39.4931 ,0.98907 ,1.98586 ,19.48526 
213 ,39.6691 ,0.99080 ,1.96875 ,19.31737 
214 ,39.8453 ,0.99260 ,1.95506 ,19.18305 
215 ,40.0373 ,0.99446 ,1.95848 ,19.21663 
216 ,40.2134 ,0.99628 ,1.94822 ,19.11590 
217 ,40.4053 ,0.99808 ,1.91742 ,18.81369 
218 ,40.5815 ,0.99993 ,1.92084 ,18.84727 
219 ,40.7576 ,1.00172 ,1.91399 ,18.78011 
220 ,40.9337 ,1.00345 ,1.89004 ,18.54507 
221 ,41.1417 ,1.00539 ,1.86951 ,18.34360 
222 ,41.3179 ,1.00729 ,1.86608 ,18.31002 
223 ,41.4937 ,1.00905 ,1.84897 ,18.14213 
224 ,41.6700 ,1.01080 ,1.81475 ,17.80634 
225 ,41.8621 ,1.01268 ,1.80449 ,17.70561 
226 ,42.0541 ,1.01468 ,1.80106 ,17.67203 
227 ,42.2302 ,1.01643 ,1.77026 ,17.36983 
228 ,42.4224 ,1.01834 ,1.76000 ,17.26909 
229 ,42.5984 ,1.02013 ,1.76000 ,17.26909 
230 ,42.7741 ,1.02181 ,1.75315 ,17.20193 
231 ,42.9506 ,1.02364 ,1.73262 ,17.00046 
232 ,43.1426 ,1.02555 ,1.72235 ,16.89973 
233 ,43.3505 ,1.02749 ,1.70866 ,16.76542 
234 ,43.5589 ,1.02966 ,1.67102 ,16.39605 
235 ,43.7349 ,1.03148 ,1.68471 ,16.53037 
236 ,43.9108 ,1.03328 ,1.65733 ,16.26174 
237 ,44.0868 ,1.03501 ,1.65049 ,16.19458 
238 ,44.2632 ,1.03673 ,1.62995 ,15.99311 
239 ,44.4550 ,1.03858 ,1.63338 ,16.02669 
240 ,44.6307 ,1.04039 ,1.60600 ,15.75807 
241 ,44.8073 ,1.04214 ,1.60258 ,15.72449 
242 ,44.9833 ,1.04392 ,1.57862 ,15.48944 
243 ,45.1914 ,1.04590 ,1.57178 ,15.42228 
244 ,45.3832 ,1.04788 ,1.55124 ,15.22081 
245 ,45.5597 ,1.04972 ,1.55124 ,15.22081 
246 ,45.7356 ,1.05148 ,1.54098 ,15.12008 
247 ,45.9276 ,1.05340 ,1.53413 ,15.05292 
248 ,46.1198 ,1.05521 ,1.51702 ,14.88503 
249 ,46.3119 ,1.05721 ,1.49649 ,14.68356 
250 ,46.4879 ,1.05902 ,1.48622 ,14.58283 
251 ,46.6641 ,1.06077 ,1.45885 ,14.31420 
252 ,46.8402 ,1.06253 ,1.44516 ,14.17989 
253 ,47.0318 ,1.06434 ,1.44516 ,14.17989 
254 ,47.2080 ,1.06619 ,1.42120 ,13.94484 
255 ,47.4003 ,1.06807 ,1.41094 ,13.84410 
256 ,47.5921 ,1.07004 ,1.41778 ,13.91126 
257 ,47.7841 ,1.07200 ,1.39725 ,13.70979 
258 ,47.9601 ,1.07377 ,1.39725 ,13.70979 
259 ,48.1201 ,1.07543 ,1.37329 ,13.47474 
260 ,48.2966 ,1.07705 ,1.35618 ,13.30685 
261 ,48.4887 ,1.07890 ,1.33565 ,13.10538 
262 ,48.6648 ,1.08078 ,1.32196 ,12.97107 
263 ,48.8409 ,1.08250 ,1.31169 ,12.87033 
264 ,49.0330 ,1.08436 ,1.30827 ,12.83675 
265 ,49.2086 ,1.08617 ,1.29458 ,12.70244 
266 ,49.3850 ,1.08796 ,1.27747 ,12.53455 
267 ,49.5615 ,1.08973 ,1.25694 ,12.33308 
268 ,49.7373 ,1.09148 ,1.25352 ,12.29950 
269 ,49.9132 ,1.09321 ,1.25009 ,12.26592 
270 ,50.0894 ,1.09499 ,1.22614 ,12.03088 
271 ,50.2652 ,1.09669 ,1.21587 ,11.93014 
272 ,50.4415 ,1.09853 ,1.19534 ,11.72867 
273 ,50.6496 ,1.10041 ,1.18850 ,11.66151 
274 ,50.8257 ,1.10231 ,1.17138 ,11.49362 
275 ,51.0178 ,1.10427 ,1.15770 ,11.35931 
276 ,51.1936 ,1.10602 ,1.15427 ,11.32573 
277 ,51.3699 ,1.10776 ,1.15427 ,11.32573 
278 ,51.5460 ,1.10951 ,1.12347 ,11.02353 
279 ,51.7381 ,1.11137 ,1.11321 ,10.92279 
280 ,51.9302 ,1.11327 ,1.09610 ,10.75490 
281 ,52.1063 ,1.11513 ,1.08925 ,10.68774 
282 ,52.2983 ,1.11701 ,1.07556 ,10.55343 
283 ,52.4744 ,1.11886 ,1.06187 ,10.41912 
284 ,52.6665 ,1.12069 ,1.03108 ,10.11691 
285 ,52.8587 ,1.12258 ,1.03792 ,10.18407 
286 ,53.0346 ,1.12440 ,1.03108 ,10.11691 
287 ,53.2263 ,1.12628 ,0.99343 ,9.74755 
288 ,53.4024 ,1.12808 ,0.98659 ,9.68039 
289 ,53.5947 ,1.12997 ,0.98659 ,9.68039 
290 ,53.8511 ,1.13239 ,0.97290 ,9.54608 
291 ,54.0591 ,1.13462 ,0.94552 ,9.27745 
292 ,54.2348 ,1.13640 ,0.94552 ,9.27745 
293 ,54.4113 ,1.13816 ,0.92157 ,9.04241 
294 ,54.6030 ,1.14004 ,0.90103 ,8.84094 
295 ,54.7952 ,1.14200 ,0.90788 ,8.90809 
296 ,54.9715 ,1.14379 ,0.90103 ,8.84094 
297 ,55.1636 ,1.14571 ,0.87366 ,8.57231 
298 ,55.3396 ,1.14748 ,0.86339 ,8.47158 
299 ,55.5318 ,1.14927 ,0.85312 ,8.37084 
300 ,55.7238 ,1.15137 ,0.83943 ,8.23653 
301 ,55.9157 ,1.15319 ,0.82232 ,8.06864 
302 ,56.1080 ,1.15510 ,0.81890 ,8.03506 
303 ,56.2839 ,1.15702 ,0.79152 ,7.76643 
304 ,56.4760 ,1.15876 ,0.77784 ,7.63212 
305 ,56.6679 ,1.16070 ,0.78810 ,7.73285 
306 ,56.8443 ,1.16249 ,0.77784 ,7.63212 
307 ,57.0204 ,1.16430 ,0.73335 ,7.19560 
308 ,57.1964 ,1.16600 ,0.74019 ,7.26276 
309 ,57.3722 ,1.16779 ,0.74019 ,7.26276 
310 ,57.5484 ,1.16957 ,0.71966 ,7.06129 
311 ,57.7244 ,1.17128 ,0.70255 ,6.89340 
312 ,57.9008 ,1.17304 ,0.68886 ,6.75908 
313 ,58.1088 ,1.17507 ,0.68544 ,6.72550 
314 ,58.3009 ,1.17702 ,0.65464 ,6.42330 
315 ,58.4929 ,1.17894 ,0.66490 ,6.52403 
316 ,58.6690 ,1.18072 ,0.65464 ,6.42330 
317 ,58.8448 ,1.18247 ,0.62384 ,6.12109 
318 ,59.0212 ,1.18425 ,0.61357 ,6.02036 
319 ,59.1972 ,1.18597 ,0.59988 ,5.88605 
320 ,59.3733 ,1.18779 ,0.60673 ,5.95320 
321 ,59.5653 ,1.18970 ,0.57935 ,5.68458 
322 ,59.7414 ,1.19144 ,0.55197 ,5.41595 
323 ,59.9332 ,1.19336 ,0.55539 ,5.44953 
324 ,60.1097 ,1.19512 ,0.55882 ,5.48311 
325 ,60.3016 ,1.19703 ,0.52117 ,5.11375 
326 ,60.4935 ,1.19897 ,0.53144 ,5.21448 
327 ,60.6699 ,1.20072 ,0.52802 ,5.18090 
328 ,60.8621 ,1.20257 ,0.49722 ,4.87870 
329 ,61.0380 ,1.20444 ,0.48011 ,4.71081 
330 ,61.2299 ,1.20635 ,0.48695 ,4.77796 
331 ,61.4060 ,1.20814 ,0.48353 ,4.74438 
332 ,61.5980 ,1.20990 ,0.44931 ,4.40860 
333 ,61.7904 ,1.21197 ,0.44931 ,4.40860 
334 ,61.9820 ,1.21384 ,0.43904 ,4.30787 
335 ,62.1585 ,1.21565 ,0.40824 ,4.00566 
336 ,62.3663 ,1.21766 ,0.41509 ,4.07282 
337 ,62.5425 ,1.21951 ,0.40482 ,3.97208 
338 ,62.7025 ,1.22118 ,0.37744 ,3.70346 
339 ,62.8785 ,1.22280 ,0.36375 ,3.56914 
340 ,63.0863 ,1.22483 ,0.36718 ,3.60272 
341 ,63.2629 ,1.22666 ,0.35006 ,3.43483 
342 ,63.4545 ,1.22860 ,0.33980 ,3.33410 
343 ,63.6309 ,1.23034 ,0.33980 ,3.33410 
344 ,63.8230 ,1.23222 ,0.31926 ,3.13263 
345 ,63.9991 ,1.23404 ,0.29189 ,2.86400 
346 ,64.1751 ,1.23589 ,0.29873 ,2.93116 
347 ,64.3512 ,1.23754 ,0.28847 ,2.83042 
348 ,64.5273 ,1.23930 ,0.28847 ,2.83042 
349 ,64.7353 ,1.24133 ,0.26793 ,2.62895 
350 ,64.9274 ,1.24321 ,0.25767 ,2.52822 
351 ,65.1037 ,1.24503 ,0.24740 ,2.42748 
352 ,65.2795 ,1.24682 ,0.22687 ,2.22601 
353 ,65.4556 ,1.24860 ,0.22002 ,2.15885 
354 ,65.6318 ,1.25034 ,0.22687 ,2.22601 
355 ,65.8238 ,1.25222 ,0.19607 ,1.92381 
356 ,66.0000 ,1.25405 ,0.18238 ,1.78949 
357 ,66.1920 ,1.25587 ,0.17896 ,1.75592 
358 ,66.3840 ,1.25791 ,0.15842 ,1.55445 
359 ,66.5759 ,1.25975 ,0.14473 ,1.42013 
360 ,66.7684 ,1.26160 ,0.14473 ,1.42013 
361 ,66.9762 ,1.26363 ,0.13105 ,1.28582 
362 ,67.1525 ,1.26558 ,0.11051 ,1.08435 
363 ,67.3442 ,1.26740 ,0.11051 ,1.08435 
364 ,67.5202 ,1.26918 ,0.09682 ,0.95004 
365 ,67.6802 ,1.27093 ,0.08656 ,0.84930 
366 ,67.8568 ,1.27261 ,0.07629 ,0.74857 
367 ,68.0489 ,1.27452 ,0.07287 ,0.71499 
368 ,68.2249 ,1.27634 ,0.05234 ,0.51352 
369 ,68.4329 ,1.27826 ,0.05918 ,0.58067 
370 ,68.6411 ,1.28027 ,0.03522 ,0.34563 
371 ,68.8330 ,1.28227 ,0.02496 ,0.24489 
372 ,69.0092 ,1.28408 ,0.02154 ,0.21131 
373 ,69.2013 ,1.28605 ,0.01469 ,0.14416 
374 ,69.3934 ,1.28794 ,-0.00584 ,-0.05731 
375 ,69.5852 ,1.28981 ,-0.01269 ,-0.12447 
376 ,69.7774 ,1.29173 ,-0.02980 ,-0.29236 
377 ,69.9695 ,1.29357 ,-0.04006 ,-0.39310 
378 ,70.1454 ,1.29545 ,-0.03664 ,-0.35952 
379 ,70.3217 ,1.29722 ,-0.04691 ,-0.46025 
380 ,70.4975 ,1.29902 ,-0.05717 ,-0.56099 
381 ,70.6738 ,1.30075 ,-0.08455 ,-0.82961 
382 ,70.8817 ,1.30276 ,-0.07771 ,-0.76246 
383 ,71.0579 ,1.30456 ,-0.10166 ,-0.99751 
384 ,71.2340 ,1.30633 ,-0.10851 ,-1.06466 
385 ,71.4102 ,1.30811 ,-0.11193 ,-1.09824 
386 ,71.6018 ,1.31008 ,-0.12562 ,-1.23255 
387 ,71.7783 ,1.31174 ,-0.13588 ,-1.33329 
388 ,71.9703 ,1.31367 ,-0.12904 ,-1.26613 
389 ,72.1463 ,1.31547 ,-0.15299 ,-1.50118 
390 ,72.3544 ,1.31750 ,-0.15299 ,-1.50118 
391 ,72.5305 ,1.31931 ,-0.16668 ,-1.63549 
392 ,72.7065 ,1.32106 ,-0.17695 ,-1.73623 
393 ,72.8987 ,1.32292 ,-0.20090 ,-1.97128 
394 ,73.0745 ,1.32476 ,-0.20090 ,-1.97128 
395 ,73.2668 ,1.32664 ,-0.19064 ,-1.87054 
396 ,73.4590 ,1.32850 ,-0.21117 ,-2.07201 
397 ,73.6510 ,1.33047 ,-0.23855 ,-2.34064 
398 ,73.8271 ,1.33228 ,-0.24539 ,-2.40779 
399 ,74.0029 ,1.33409 ,-0.24539 ,-2.40779 
400 ,74.1793 ,1.33581 ,-0.25224 ,-2.47495 
401 ,74.3716 ,1.33767 ,-0.26935 ,-2.64284 
402 ,74.5474 ,1.33952 ,-0.27277 ,-2.67642 
403 ,74.7233 ,1.34126 ,-0.27619 ,-2.71000 
404 ,74.8995 ,1.34298 ,-0.27619 ,-2.71000 
405 ,75.1074 ,1.34502 ,-0.29673 ,-2.91147 
406 ,75.2837 ,1.34684 ,-0.30015 ,-2.94505 
407 ,75.4756 ,1.34866 ,-0.33437 ,-3.28083 
408 ,75.6838 ,1.35078 ,-0.31726 ,-3.11294 
409 ,75.8599 ,1.35257 ,-0.31726 ,-3.11294 
410 ,76.0359 ,1.35429 ,-0.33095 ,-3.24725 
411 ,76.2121 ,1.35610 ,-0.36175 ,-3.54946 
412 ,76.4042 ,1.35803 ,-0.35490 ,-3.48230 
413 ,76.5803 ,1.35980 ,-0.36859 ,-3.61661 
414 ,76.7724 ,1.36166 ,-0.36517 ,-3.58303 
415 ,76.9645 ,1.36362 ,-0.38228 ,-3.75093 
416 ,77.1563 ,1.36551 ,-0.40281 ,-3.95240 
417 ,77.3324 ,1.36730 ,-0.39939 ,-3.91882 
418 ,77.5086 ,1.36905 ,-0.41992 ,-4.12029 
419 ,77.6845 ,1.37089 ,-0.41650 ,-4.08671 
420 ,77.8607 ,1.37258 ,-0.40623 ,-3.98597 
421 ,78.0368 ,1.37433 ,-0.42335 ,-4.15387 
422 ,78.2610 ,1.37641 ,-0.43361 ,-4.25460 
423 ,78.4690 ,1.37856 ,-0.45757 ,-4.48965 
424 ,78.6610 ,1.38054 ,-0.45072 ,-4.42249 
425 ,78.8371 ,1.38236 ,-0.46099 ,-4.52323 
426 ,79.0127 ,1.38414 ,-0.48494 ,-4.75828 
427 ,79.1893 ,1.38587 ,-0.49179 ,-4.82543 
428 ,79.3815 ,1.38777 ,-0.48152 ,-4.72470 
429 ,79.5735 ,1.38972 ,-0.50890 ,-4.99332 
430 ,79.7655 ,1.39157 ,-0.50890 ,-4.99332 
431 ,79.9736 ,1.39366 ,-0.53285 ,-5.22837 
432 ,80.1653 ,1.39552 ,-0.52259 ,-5.12764 
433 ,80.3417 ,1.39749 ,-0.53628 ,-5.26195 
434 ,80.5176 ,1.39917 ,-0.53970 ,-5.29553 
435 ,80.6934 ,1.40099 ,-0.57050 ,-5.59773 
436 ,80.8699 ,1.40266 ,-0.57392 ,-5.63131 
437 ,81.0621 ,1.40463 ,-0.57050 ,-5.59773 
438 ,81.2698 ,1.40648 ,-0.58077 ,-5.69847 
439 ,81.4619 ,1.40852 ,-0.57392 ,-5.63131 
440 ,81.6382 ,1.41035 ,-0.59445 ,-5.83278 
441 ,81.8142 ,1.41208 ,-0.59788 ,-5.86636 
442 ,81.9904 ,1.41386 ,-0.61499 ,-6.03425 
443 ,82.1661 ,1.41558 ,-0.63552 ,-6.23572 
444 ,82.3422 ,1.41740 ,-0.63894 ,-6.26930 
445 ,82.5346 ,1.41925 ,-0.63552 ,-6.23572 
446 ,82.7264 ,1.42115 ,-0.65605 ,-6.43719 
447 ,82.9028 ,1.42303 ,-0.65947 ,-6.47077 
448 ,83.0948 ,1.42492 ,-0.66974 ,-6.57150 
449 ,83.2705 ,1.42668 ,-0.67316 ,-6.60508 
450 ,83.4469 ,1.42842 ,-0.68685 ,-6.73940 
451 ,83.6391 ,1.43027 ,-0.68685 ,-6.73940 
452 ,83.8470 ,1.43238 ,-0.70739 ,-6.94086 
453 ,84.0233 ,1.43419 ,-0.72107 ,-7.07518 
454 ,84.1995 ,1.43591 ,-0.70739 ,-6.94086 
455 ,84.3915 ,1.43789 ,-0.71423 ,-7.00802 
456 ,84.5834 ,1.43976 ,-0.73818 ,-7.24307 
457 ,84.7755 ,1.44167 ,-0.73818 ,-7.24307 
458 ,84.9673 ,1.44356 ,-0.76214 ,-7.47812 
459 ,85.1434 ,1.44536 ,-0.77241 ,-7.57885 
460 ,85.3198 ,1.44718 ,-0.76556 ,-7.51170 
461 ,85.4957 ,1.44888 ,-0.76556 ,-7.51170 
462 ,85.6878 ,1.45078 ,-0.77583 ,-7.61243 
463 ,85.8639 ,1.45259 ,-0.79978 ,-7.84748 
