Data stamp = , 12-04-2022 13:04:11 826

Calibration Values: 
Slope = , 26.54 , g/V 
Offset Voltage at no contact = , -0.501760 , V 

No , Time , Stage Position ,   Mass , Force 
   ,  (s) ,      (mm)      ,   (g)  , (mN)  

1 ,0.0000 ,0.59941 ,5.00763 ,49.13490 
2 ,0.3207 ,0.59965 ,5.02474 ,49.30279 
3 ,0.8492 ,0.60178 ,5.00763 ,49.13490 
4 ,1.0412 ,0.60462 ,5.02132 ,49.26921 
5 ,1.2172 ,0.60631 ,5.00079 ,49.06774 
6 ,1.4094 ,0.60818 ,5.01790 ,49.23563 
7 ,1.6013 ,0.61010 ,4.99052 ,48.96701 
8 ,1.7776 ,0.61194 ,4.98368 ,48.89985 
9 ,1.9536 ,0.61372 ,4.98026 ,48.86627 
10 ,2.1296 ,0.61551 ,4.95630 ,48.63122 
11 ,2.3058 ,0.61725 ,4.94603 ,48.53049 
12 ,2.4819 ,0.61901 ,4.91866 ,48.26186 
13 ,2.6419 ,0.62074 ,4.90497 ,48.12755 
14 ,2.8178 ,0.62236 ,4.89128 ,47.99324 
15 ,3.0099 ,0.62420 ,4.87759 ,47.85892 
16 ,3.1859 ,0.62602 ,4.86732 ,47.75819 
17 ,3.3780 ,0.62789 ,4.84679 ,47.55672 
18 ,3.5542 ,0.62977 ,4.82968 ,47.38883 
19 ,3.7303 ,0.63152 ,4.83310 ,47.42240 
20 ,3.8901 ,0.63324 ,4.79204 ,47.01946 
21 ,4.0663 ,0.63482 ,4.78519 ,46.95231 
22 ,4.2425 ,0.63657 ,4.76466 ,46.75084 
23 ,4.4186 ,0.63837 ,4.75439 ,46.65010 
24 ,4.5947 ,0.64011 ,4.74413 ,46.54937 
25 ,4.7707 ,0.64188 ,4.73044 ,46.41506 
26 ,4.9627 ,0.64374 ,4.69964 ,46.11285 
27 ,5.1548 ,0.64565 ,4.69622 ,46.07927 
28 ,5.3309 ,0.64749 ,4.68937 ,46.01212 
29 ,5.5070 ,0.64922 ,4.66199 ,45.74349 
30 ,5.6831 ,0.65099 ,4.63462 ,45.47486 
31 ,5.8752 ,0.65284 ,4.62435 ,45.37413 
32 ,6.0512 ,0.65466 ,4.61408 ,45.27339 
33 ,6.2273 ,0.65644 ,4.59013 ,45.03835 
34 ,6.4035 ,0.65820 ,4.57644 ,44.90403 
35 ,6.5795 ,0.65998 ,4.56960 ,44.83688 
36 ,6.7554 ,0.66174 ,4.56960 ,44.83688 
37 ,6.9315 ,0.66348 ,4.55249 ,44.66898 
38 ,7.0917 ,0.66520 ,4.50115 ,44.16531 
39 ,7.2678 ,0.66682 ,4.50457 ,44.19889 
40 ,7.4438 ,0.66858 ,4.49431 ,44.09815 
41 ,7.6199 ,0.67036 ,4.47720 ,43.93026 
42 ,7.7960 ,0.67211 ,4.47035 ,43.86310 
43 ,7.9721 ,0.67389 ,4.44982 ,43.66163 
44 ,8.1480 ,0.67565 ,4.42929 ,43.46016 
45 ,8.3242 ,0.67738 ,4.41218 ,43.29227 
46 ,8.5162 ,0.67937 ,4.40191 ,43.19154 
47 ,8.6922 ,0.68107 ,4.41218 ,43.29227 
48 ,8.8684 ,0.68279 ,4.37111 ,42.88933 
49 ,9.0444 ,0.68461 ,4.35742 ,42.75502 
50 ,9.2204 ,0.68638 ,4.35742 ,42.75502 
51 ,9.3967 ,0.68817 ,4.34031 ,42.58713 
52 ,9.5728 ,0.68985 ,4.31636 ,42.35208 
53 ,9.7487 ,0.69164 ,4.28898 ,42.08345 
54 ,9.9247 ,0.69337 ,4.28213 ,42.01630 
55 ,10.0848 ,0.69512 ,4.28213 ,42.01630 
56 ,10.2610 ,0.69674 ,4.26502 ,41.84841 
57 ,10.4370 ,0.69850 ,4.26502 ,41.84841 
58 ,10.6131 ,0.70025 ,4.23080 ,41.51262 
59 ,10.7892 ,0.70203 ,4.21027 ,41.31115 
60 ,10.9653 ,0.70380 ,4.20000 ,41.21042 
61 ,11.1573 ,0.70563 ,4.18631 ,41.07611 
62 ,11.3334 ,0.70745 ,4.16920 ,40.90821 
63 ,11.5095 ,0.70923 ,4.15894 ,40.80748 
64 ,11.6855 ,0.71100 ,4.15209 ,40.74032 
65 ,11.8615 ,0.71277 ,4.13156 ,40.53885 
66 ,12.0377 ,0.71452 ,4.12814 ,40.50527 
67 ,12.2137 ,0.71627 ,4.10760 ,40.30380 
68 ,12.3897 ,0.71806 ,4.08023 ,40.03518 
69 ,12.5660 ,0.71977 ,4.06996 ,39.93444 
70 ,12.7417 ,0.72156 ,4.06312 ,39.86729 
71 ,12.9020 ,0.72328 ,4.04943 ,39.73297 
72 ,13.0781 ,0.72492 ,4.03232 ,39.56508 
73 ,13.2540 ,0.72669 ,4.00836 ,39.33003 
74 ,13.4303 ,0.72846 ,3.99467 ,39.19572 
75 ,13.6064 ,0.73024 ,3.97756 ,39.02783 
76 ,13.7824 ,0.73191 ,3.97756 ,39.02783 
77 ,13.9424 ,0.73370 ,3.96729 ,38.92709 
78 ,14.1184 ,0.73531 ,3.95361 ,38.79278 
79 ,14.2945 ,0.73709 ,3.92281 ,38.49058 
80 ,14.4707 ,0.73882 ,3.91254 ,38.38984 
81 ,14.6468 ,0.74058 ,3.89543 ,38.22195 
82 ,14.8228 ,0.74233 ,3.90570 ,38.32268 
83 ,14.9989 ,0.74411 ,3.87832 ,38.05406 
84 ,15.1908 ,0.74602 ,3.84752 ,37.75185 
85 ,15.3668 ,0.74778 ,3.83725 ,37.65112 
86 ,15.5430 ,0.74956 ,3.84067 ,37.68470 
87 ,15.7191 ,0.75131 ,3.82356 ,37.51681 
88 ,15.8953 ,0.75306 ,3.79276 ,37.21460 
89 ,16.0713 ,0.75484 ,3.78934 ,37.18102 
90 ,16.2474 ,0.75657 ,3.77908 ,37.08029 
91 ,16.4233 ,0.75837 ,3.76196 ,36.91240 
92 ,16.6154 ,0.76025 ,3.73801 ,36.67735 
93 ,16.7915 ,0.76202 ,3.71405 ,36.44230 
94 ,16.9676 ,0.76377 ,3.71405 ,36.44230 
95 ,17.1436 ,0.76554 ,3.71063 ,36.40872 
96 ,17.3198 ,0.76733 ,3.67983 ,36.10652 
97 ,17.4957 ,0.76909 ,3.66272 ,35.93863 
98 ,17.6719 ,0.77084 ,3.64903 ,35.80431 
99 ,17.8479 ,0.77262 ,3.65246 ,35.83789 
100 ,18.0240 ,0.77436 ,3.63534 ,35.67000 
101 ,18.2000 ,0.77615 ,3.61481 ,35.46853 
102 ,18.3922 ,0.77801 ,3.60454 ,35.36779 
103 ,18.5680 ,0.77978 ,3.58743 ,35.19990 
104 ,18.7443 ,0.78154 ,3.56690 ,34.99843 
105 ,18.9204 ,0.78333 ,3.54979 ,34.83054 
106 ,19.0965 ,0.78508 ,3.52584 ,34.59549 
107 ,19.2726 ,0.78682 ,3.53952 ,34.72981 
108 ,19.4486 ,0.78857 ,3.52926 ,34.62907 
109 ,19.6247 ,0.79035 ,3.51215 ,34.46118 
110 ,19.8007 ,0.79217 ,3.49846 ,34.32687 
111 ,19.9768 ,0.79386 ,3.46424 ,33.99108 
112 ,20.1529 ,0.79564 ,3.46424 ,33.99108 
113 ,20.3289 ,0.79746 ,3.45397 ,33.89035 
114 ,20.4889 ,0.79915 ,3.43686 ,33.72246 
115 ,20.6652 ,0.80075 ,3.43001 ,33.65530 
116 ,20.8572 ,0.80259 ,3.40948 ,33.45383 
117 ,21.0493 ,0.80457 ,3.39921 ,33.35310 
118 ,21.2252 ,0.80633 ,3.38210 ,33.18520 
119 ,21.4014 ,0.80816 ,3.34446 ,32.81584 
120 ,21.5614 ,0.80986 ,3.33419 ,32.71511 
121 ,21.7375 ,0.81145 ,3.32735 ,32.64795 
122 ,21.9135 ,0.81329 ,3.31708 ,32.54722 
123 ,22.0897 ,0.81501 ,3.31708 ,32.54722 
124 ,22.2496 ,0.81676 ,3.29655 ,32.34575 
125 ,22.4258 ,0.81836 ,3.28628 ,32.24501 
126 ,22.6020 ,0.82011 ,3.25548 ,31.94281 
127 ,22.7779 ,0.82190 ,3.24180 ,31.80849 
128 ,22.9539 ,0.82364 ,3.23495 ,31.74134 
129 ,23.1302 ,0.82541 ,3.24180 ,31.80849 
130 ,23.3062 ,0.82713 ,3.20073 ,31.40555 
131 ,23.4822 ,0.82893 ,3.18704 ,31.27124 
132 ,23.6582 ,0.83070 ,3.17677 ,31.17051 
133 ,23.8344 ,0.83242 ,3.16309 ,31.03619 
134 ,24.0105 ,0.83423 ,3.15966 ,31.00262 
135 ,24.1865 ,0.83598 ,3.15282 ,30.93546 
136 ,24.3625 ,0.83773 ,3.11860 ,30.59968 
137 ,24.5707 ,0.83976 ,3.11175 ,30.53252 
138 ,24.7467 ,0.84153 ,3.09464 ,30.36463 
139 ,24.9228 ,0.84331 ,3.07753 ,30.19674 
140 ,25.0990 ,0.84512 ,3.06042 ,30.02884 
141 ,25.2910 ,0.84694 ,3.04331 ,29.86095 
142 ,25.4670 ,0.84875 ,3.03647 ,29.79380 
143 ,25.6430 ,0.85051 ,3.01593 ,29.59233 
144 ,25.8193 ,0.85231 ,3.01251 ,29.55875 
145 ,25.9952 ,0.85408 ,2.99198 ,29.35728 
146 ,26.1714 ,0.85580 ,2.99198 ,29.35728 
147 ,26.3475 ,0.85752 ,2.97829 ,29.22297 
148 ,26.5235 ,0.85932 ,2.94407 ,28.88718 
149 ,26.6994 ,0.86108 ,2.94064 ,28.85360 
150 ,26.8756 ,0.86284 ,2.94749 ,28.92076 
151 ,27.0517 ,0.86458 ,2.92696 ,28.71929 
152 ,27.2279 ,0.86636 ,2.90300 ,28.48424 
153 ,27.4039 ,0.86811 ,2.87562 ,28.21562 
154 ,27.5798 ,0.86990 ,2.89273 ,28.38351 
155 ,27.7560 ,0.87163 ,2.87220 ,28.18204 
156 ,27.9319 ,0.87341 ,2.85851 ,28.04772 
157 ,28.1240 ,0.87525 ,2.84482 ,27.91341 
158 ,28.3000 ,0.87717 ,2.82771 ,27.74552 
159 ,28.4921 ,0.87894 ,2.80034 ,27.47689 
160 ,28.6683 ,0.88073 ,2.79007 ,27.37616 
161 ,28.8445 ,0.88252 ,2.76954 ,27.17469 
162 ,29.0204 ,0.88427 ,2.76269 ,27.10753 
163 ,29.1966 ,0.88605 ,2.76954 ,27.17469 
164 ,29.3727 ,0.88778 ,2.74216 ,26.90606 
165 ,29.5487 ,0.88956 ,2.71136 ,26.60386 
166 ,29.7246 ,0.89131 ,2.71136 ,26.60386 
167 ,29.9008 ,0.89313 ,2.69083 ,26.40239 
168 ,30.0770 ,0.89490 ,2.67714 ,26.26807 
169 ,30.2529 ,0.89659 ,2.67714 ,26.26807 
170 ,30.4291 ,0.89838 ,2.67029 ,26.20092 
171 ,30.6210 ,0.90022 ,2.64634 ,25.96587 
172 ,30.7971 ,0.90210 ,2.61896 ,25.69724 
173 ,30.9731 ,0.90387 ,2.61212 ,25.63009 
174 ,31.1493 ,0.90556 ,2.60869 ,25.59651 
175 ,31.3414 ,0.90742 ,2.60527 ,25.56293 
176 ,31.5174 ,0.90927 ,2.59158 ,25.42862 
177 ,31.6936 ,0.91099 ,2.56421 ,25.15999 
178 ,31.8536 ,0.91272 ,2.54710 ,24.99210 
179 ,32.0298 ,0.91437 ,2.52314 ,24.75705 
180 ,32.2061 ,0.91612 ,2.51287 ,24.65632 
181 ,32.3822 ,0.91791 ,2.52314 ,24.75705 
182 ,32.5421 ,0.91959 ,2.50945 ,24.62274 
183 ,32.7341 ,0.92135 ,2.47523 ,24.28696 
184 ,32.9104 ,0.92311 ,2.46496 ,24.18622 
185 ,33.0865 ,0.92489 ,2.45812 ,24.11906 
186 ,33.3106 ,0.92692 ,2.46154 ,24.15264 
187 ,33.4865 ,0.92893 ,2.42732 ,23.81686 
188 ,33.6626 ,0.93069 ,2.42048 ,23.74970 
189 ,33.8708 ,0.93269 ,2.40336 ,23.58181 
190 ,34.0469 ,0.93450 ,2.39652 ,23.51465 
191 ,34.2231 ,0.93630 ,2.38968 ,23.44750 
192 ,34.4151 ,0.93821 ,2.35203 ,23.07814 
193 ,34.5908 ,0.93999 ,2.33150 ,22.87667 
194 ,34.7670 ,0.94174 ,2.34519 ,23.01098 
195 ,34.9432 ,0.94358 ,2.30754 ,22.64162 
196 ,35.1193 ,0.94525 ,2.29385 ,22.50731 
197 ,35.2953 ,0.94703 ,2.29385 ,22.50731 
198 ,35.4875 ,0.94888 ,2.28017 ,22.37299 
199 ,35.6631 ,0.95078 ,2.25963 ,22.17152 
200 ,35.8397 ,0.95248 ,2.25279 ,22.10437 
201 ,36.0475 ,0.95450 ,2.24594 ,22.03721 
202 ,36.2237 ,0.95627 ,2.24937 ,22.07079 
203 ,36.3999 ,0.95808 ,2.21515 ,21.73500 
204 ,36.5921 ,0.95998 ,2.19461 ,21.53353 
205 ,36.8000 ,0.96202 ,2.17750 ,21.36564 
206 ,36.9762 ,0.96379 ,2.16039 ,21.19775 
207 ,37.1842 ,0.96578 ,2.17408 ,21.33206 
208 ,37.3603 ,0.96769 ,2.15012 ,21.09702 
209 ,37.5524 ,0.96949 ,2.11248 ,20.72766 
210 ,37.7284 ,0.97132 ,2.11590 ,20.76123 
211 ,37.9364 ,0.97330 ,2.09195 ,20.52619 
212 ,38.1606 ,0.97553 ,2.08510 ,20.45903 
213 ,38.3526 ,0.97752 ,2.06799 ,20.29114 
214 ,38.5287 ,0.97927 ,2.05773 ,20.19040 
215 ,38.7049 ,0.98111 ,2.05430 ,20.15682 
216 ,38.9125 ,0.98312 ,2.03377 ,19.95535 
217 ,39.0890 ,0.98490 ,2.02350 ,19.85462 
218 ,39.2808 ,0.98691 ,2.01324 ,19.75388 
219 ,39.4568 ,0.98856 ,1.98244 ,19.45168 
220 ,39.6332 ,0.99035 ,1.96875 ,19.31737 
221 ,39.8095 ,0.99211 ,1.98244 ,19.45168 
222 ,40.0011 ,0.99394 ,1.95164 ,19.14948 
223 ,40.2096 ,0.99601 ,1.92768 ,18.91443 
224 ,40.3855 ,0.99789 ,1.92084 ,18.84727 
225 ,40.5771 ,0.99971 ,1.90373 ,18.67938 
226 ,40.7531 ,1.00163 ,1.89346 ,18.57864 
227 ,40.9452 ,1.00338 ,1.88319 ,18.47791 
228 ,41.1213 ,1.00533 ,1.85582 ,18.20928 
229 ,41.2974 ,1.00705 ,1.84213 ,18.07497 
230 ,41.4735 ,1.00885 ,1.84555 ,18.10855 
231 ,41.6496 ,1.01055 ,1.82160 ,17.87350 
232 ,41.8257 ,1.01227 ,1.81475 ,17.80634 
233 ,42.0181 ,1.01417 ,1.78737 ,17.53772 
234 ,42.2259 ,1.01634 ,1.79080 ,17.57129 
235 ,42.4023 ,1.01806 ,1.76000 ,17.26909 
236 ,42.5944 ,1.02004 ,1.76684 ,17.33625 
237 ,42.7865 ,1.02185 ,1.74631 ,17.13478 
238 ,42.9626 ,1.02366 ,1.73262 ,17.00046 
239 ,43.1547 ,1.02552 ,1.71893 ,16.86615 
240 ,43.3307 ,1.02731 ,1.70866 ,16.76542 
241 ,43.5069 ,1.02906 ,1.71551 ,16.83257 
242 ,43.6988 ,1.03100 ,1.67786 ,16.46321 
243 ,43.8751 ,1.03275 ,1.65391 ,16.22816 
244 ,44.0830 ,1.03479 ,1.64022 ,16.09385 
245 ,44.2591 ,1.03660 ,1.63338 ,16.02669 
246 ,44.4348 ,1.03835 ,1.61627 ,15.85880 
247 ,44.6270 ,1.04030 ,1.62653 ,15.95954 
248 ,44.8032 ,1.04205 ,1.58889 ,15.59018 
249 ,44.9954 ,1.04395 ,1.58547 ,15.55660 
250 ,45.2033 ,1.04600 ,1.57862 ,15.48944 
251 ,45.3792 ,1.04776 ,1.56151 ,15.32155 
252 ,45.5556 ,1.04957 ,1.54782 ,15.18724 
253 ,45.7636 ,1.05163 ,1.53071 ,15.01934 
254 ,45.9556 ,1.05349 ,1.51702 ,14.88503 
255 ,46.1318 ,1.05529 ,1.51360 ,14.85145 
256 ,46.3234 ,1.05719 ,1.48280 ,14.54925 
257 ,46.4995 ,1.05902 ,1.47253 ,14.44851 
258 ,46.6761 ,1.06077 ,1.48280 ,14.54925 
259 ,46.8841 ,1.06279 ,1.43831 ,14.11273 
260 ,47.0922 ,1.06476 ,1.43831 ,14.11273 
261 ,47.2841 ,1.06681 ,1.42462 ,13.97842 
262 ,47.4763 ,1.06871 ,1.43147 ,14.04557 
263 ,47.6684 ,1.07063 ,1.40409 ,13.77695 
264 ,47.8604 ,1.07262 ,1.39725 ,13.70979 
265 ,48.0363 ,1.07434 ,1.38014 ,13.54190 
266 ,48.2123 ,1.07611 ,1.38014 ,13.54190 
267 ,48.3724 ,1.07782 ,1.34934 ,13.23969 
268 ,48.5487 ,1.07954 ,1.35618 ,13.30685 
269 ,48.7407 ,1.08149 ,1.30827 ,12.83675 
270 ,48.9327 ,1.08331 ,1.33223 ,13.07180 
271 ,49.1251 ,1.08525 ,1.29116 ,12.66886 
272 ,49.3012 ,1.08705 ,1.26720 ,12.43381 
273 ,49.4932 ,1.08887 ,1.27747 ,12.53455 
274 ,49.6848 ,1.09081 ,1.26720 ,12.43381 
275 ,49.8771 ,1.09269 ,1.23983 ,12.16519 
276 ,50.0694 ,1.09471 ,1.25352 ,12.29950 
277 ,50.2454 ,1.09652 ,1.22272 ,11.99730 
278 ,50.4215 ,1.09828 ,1.19534 ,11.72867 
279 ,50.6132 ,1.10006 ,1.21245 ,11.89656 
280 ,50.7736 ,1.10182 ,1.18850 ,11.66151 
281 ,50.9497 ,1.10352 ,1.18850 ,11.66151 
282 ,51.1257 ,1.10534 ,1.16796 ,11.46004 
283 ,51.3020 ,1.10703 ,1.14058 ,11.19142 
284 ,51.4780 ,1.10879 ,1.15085 ,11.29215 
285 ,51.6701 ,1.11063 ,1.12347 ,11.02353 
286 ,51.8618 ,1.11258 ,1.10636 ,10.85563 
287 ,52.0381 ,1.11435 ,1.10979 ,10.88921 
288 ,52.2144 ,1.11612 ,1.10294 ,10.82206 
289 ,52.4064 ,1.11800 ,1.07899 ,10.58701 
290 ,52.5824 ,1.11984 ,1.06530 ,10.45270 
291 ,52.7745 ,1.12174 ,1.05503 ,10.35196 
292 ,52.9506 ,1.12354 ,1.04476 ,10.25123 
293 ,53.1586 ,1.12555 ,1.01396 ,9.94902 
294 ,53.3349 ,1.12732 ,1.03108 ,10.11691 
295 ,53.5429 ,1.12930 ,1.00370 ,9.84829 
296 ,53.7349 ,1.13127 ,0.99343 ,9.74755 
297 ,53.8948 ,1.13305 ,0.97632 ,9.57966 
298 ,54.0709 ,1.13474 ,0.97632 ,9.57966 
299 ,54.2631 ,1.13663 ,0.93525 ,9.17672 
300 ,54.4390 ,1.13835 ,0.95579 ,9.37819 
301 ,54.6470 ,1.14032 ,0.91814 ,9.00883 
302 ,54.8232 ,1.14217 ,0.91130 ,8.94167 
303 ,55.0150 ,1.14402 ,0.89419 ,8.77378 
304 ,55.1915 ,1.14596 ,0.89077 ,8.74020 
305 ,55.3837 ,1.14781 ,0.86681 ,8.50515 
306 ,55.5756 ,1.14966 ,0.86681 ,8.50515 
307 ,55.7517 ,1.15148 ,0.85312 ,8.37084 
308 ,55.9277 ,1.15319 ,0.84286 ,8.27011 
309 ,56.1034 ,1.15497 ,0.82575 ,8.10221 
310 ,56.2800 ,1.15673 ,0.82917 ,8.13579 
311 ,56.4559 ,1.15858 ,0.79152 ,7.76643 
312 ,56.6320 ,1.16037 ,0.77784 ,7.63212 
313 ,56.8242 ,1.16217 ,0.79152 ,7.76643 
314 ,57.0162 ,1.16408 ,0.76757 ,7.53138 
315 ,57.2082 ,1.16604 ,0.75046 ,7.36349 
316 ,57.3844 ,1.16778 ,0.73677 ,7.22918 
317 ,57.5604 ,1.16959 ,0.73335 ,7.19560 
318 ,57.7366 ,1.17134 ,0.71966 ,7.06129 
319 ,57.9127 ,1.17313 ,0.71624 ,7.02771 
320 ,58.0885 ,1.17486 ,0.69228 ,6.79266 
321 ,58.2646 ,1.17657 ,0.67859 ,6.65835 
322 ,58.4407 ,1.17830 ,0.69570 ,6.82624 
323 ,58.6167 ,1.18011 ,0.66148 ,6.49046 
324 ,58.8091 ,1.18201 ,0.64779 ,6.35614 
325 ,58.9851 ,1.18383 ,0.64095 ,6.28899 
326 ,59.1770 ,1.18574 ,0.62726 ,6.15467 
327 ,59.3691 ,1.18754 ,0.60673 ,5.95320 
328 ,59.5612 ,1.18956 ,0.61357 ,6.02036 
329 ,59.7373 ,1.19132 ,0.59646 ,5.85247 
330 ,59.9294 ,1.19320 ,0.55882 ,5.48311 
331 ,60.1055 ,1.19502 ,0.56908 ,5.58384 
332 ,60.2816 ,1.19681 ,0.55882 ,5.48311 
333 ,60.4732 ,1.19875 ,0.53828 ,5.28164 
334 ,60.6496 ,1.20041 ,0.53486 ,5.24806 
335 ,60.8416 ,1.20231 ,0.52117 ,5.11375 
336 ,61.0175 ,1.20412 ,0.51091 ,5.01301 
337 ,61.2100 ,1.20605 ,0.49380 ,4.84512 
338 ,61.3857 ,1.20777 ,0.49037 ,4.81154 
339 ,61.5622 ,1.20960 ,0.48011 ,4.71081 
340 ,61.7542 ,1.21151 ,0.44931 ,4.40860 
341 ,61.9302 ,1.21324 ,0.44588 ,4.37502 
342 ,62.1383 ,1.21527 ,0.43220 ,4.24071 
343 ,62.3624 ,1.21742 ,0.43220 ,4.24071 
344 ,62.5222 ,1.21929 ,0.40824 ,4.00566 
345 ,62.7146 ,1.22102 ,0.40140 ,3.93850 
346 ,62.8903 ,1.22289 ,0.39455 ,3.87135 
347 ,63.0668 ,1.22459 ,0.38771 ,3.80419 
348 ,63.2588 ,1.22646 ,0.37744 ,3.70346 
349 ,63.4344 ,1.22837 ,0.36375 ,3.56914 
350 ,63.6106 ,1.23008 ,0.35691 ,3.50199 
351 ,63.7865 ,1.23177 ,0.33980 ,3.33410 
352 ,63.9626 ,1.23356 ,0.33295 ,3.26694 
353 ,64.1385 ,1.23535 ,0.32269 ,3.16620 
354 ,64.3313 ,1.23714 ,0.29873 ,2.93116 
355 ,64.5393 ,1.23924 ,0.28504 ,2.79684 
356 ,64.7153 ,1.24107 ,0.27820 ,2.72969 
357 ,64.8911 ,1.24286 ,0.25767 ,2.52822 
358 ,65.0675 ,1.24459 ,0.25424 ,2.49464 
359 ,65.2435 ,1.24646 ,0.24740 ,2.42748 
360 ,65.4196 ,1.24812 ,0.23371 ,2.29317 
361 ,65.6116 ,1.25000 ,0.22687 ,2.22601 
362 ,65.7717 ,1.25181 ,0.22687 ,2.22601 
363 ,65.9477 ,1.25343 ,0.21318 ,2.09170 
364 ,66.1239 ,1.25515 ,0.20291 ,1.99096 
365 ,66.3000 ,1.25694 ,0.18922 ,1.85665 
366 ,66.4919 ,1.25889 ,0.19264 ,1.89023 
367 ,66.6681 ,1.26060 ,0.17211 ,1.68876 
368 ,66.8763 ,1.26262 ,0.14816 ,1.45371 
369 ,67.0682 ,1.26465 ,0.14131 ,1.38655 
370 ,67.2603 ,1.26643 ,0.14816 ,1.45371 
371 ,67.4364 ,1.26829 ,0.11051 ,1.08435 
372 ,67.6126 ,1.27004 ,0.10709 ,1.05077 
373 ,67.7882 ,1.27181 ,0.11393 ,1.11793 
374 ,67.9645 ,1.27358 ,0.11051 ,1.08435 
375 ,68.1568 ,1.27548 ,0.07287 ,0.71499 
376 ,68.3487 ,1.27742 ,0.07287 ,0.71499 
377 ,68.5248 ,1.27917 ,0.07287 ,0.71499 
378 ,68.7009 ,1.28093 ,0.04549 ,0.44636 
379 ,68.8925 ,1.28278 ,0.05918 ,0.58067 
380 ,69.0690 ,1.28460 ,0.04549 ,0.44636 
381 ,69.2770 ,1.28666 ,0.02154 ,0.21131 
382 ,69.4532 ,1.28845 ,0.01469 ,0.14416 
383 ,69.6453 ,1.29037 ,0.01127 ,0.11058 
384 ,69.8693 ,1.29243 ,-0.00926 ,-0.09089 
385 ,70.0453 ,1.29434 ,-0.00926 ,-0.09089 
386 ,70.2215 ,1.29615 ,-0.04348 ,-0.42667 
387 ,70.3975 ,1.29792 ,-0.05033 ,-0.49383 
388 ,70.5734 ,1.29967 ,-0.05375 ,-0.52741 
389 ,70.7497 ,1.30142 ,-0.04691 ,-0.46025 
390 ,70.9258 ,1.30317 ,-0.06402 ,-0.62814 
391 ,71.1020 ,1.30502 ,-0.08113 ,-0.79604 
392 ,71.2778 ,1.30664 ,-0.08797 ,-0.86319 
393 ,71.4540 ,1.30846 ,-0.09140 ,-0.89677 
394 ,71.6461 ,1.31040 ,-0.10508 ,-1.03108 
395 ,71.8380 ,1.31222 ,-0.09824 ,-0.96393 
396 ,72.0302 ,1.31423 ,-0.10508 ,-1.03108 
397 ,72.2064 ,1.31597 ,-0.12562 ,-1.23255 
398 ,72.4146 ,1.31805 ,-0.14615 ,-1.43402 
399 ,72.6225 ,1.32002 ,-0.15299 ,-1.50118 
400 ,72.7986 ,1.32189 ,-0.17011 ,-1.66907 
401 ,73.0065 ,1.32390 ,-0.15642 ,-1.53476 
402 ,73.1823 ,1.32572 ,-0.18722 ,-1.83696 
403 ,73.3586 ,1.32751 ,-0.19748 ,-1.93770 
404 ,73.5507 ,1.32942 ,-0.17695 ,-1.73623 
405 ,73.7268 ,1.33116 ,-0.21459 ,-2.10559 
406 ,73.9349 ,1.33323 ,-0.21117 ,-2.07201 
407 ,74.1268 ,1.33511 ,-0.23170 ,-2.27348 
408 ,74.3031 ,1.33699 ,-0.22486 ,-2.20632 
409 ,74.4792 ,1.33866 ,-0.25566 ,-2.50853 
410 ,74.6713 ,1.34056 ,-0.25566 ,-2.50853 
411 ,74.8634 ,1.34248 ,-0.28304 ,-2.77716 
412 ,75.0554 ,1.34441 ,-0.26935 ,-2.64284 
413 ,75.2315 ,1.34624 ,-0.25908 ,-2.54211 
414 ,75.4236 ,1.34811 ,-0.30015 ,-2.94505 
415 ,75.6475 ,1.35032 ,-0.31041 ,-3.04578 
416 ,75.8398 ,1.35232 ,-0.32410 ,-3.18010 
417 ,76.0318 ,1.35417 ,-0.32752 ,-3.21367 
418 ,76.2239 ,1.35614 ,-0.34464 ,-3.38156 
419 ,76.3997 ,1.35793 ,-0.35832 ,-3.51588 
420 ,76.5921 ,1.35970 ,-0.33779 ,-3.31441 
421 ,76.7842 ,1.36166 ,-0.37201 ,-3.65019 
422 ,76.9763 ,1.36365 ,-0.35490 ,-3.48230 
423 ,77.1682 ,1.36563 ,-0.37544 ,-3.68377 
424 ,77.3603 ,1.36746 ,-0.39255 ,-3.85166 
425 ,77.5365 ,1.36924 ,-0.37544 ,-3.68377 
426 ,77.7285 ,1.37120 ,-0.39939 ,-3.91882 
427 ,77.9205 ,1.37308 ,-0.41992 ,-4.12029 
428 ,78.0966 ,1.37484 ,-0.41992 ,-4.12029 
429 ,78.2885 ,1.37679 ,-0.43019 ,-4.22102 
430 ,78.4648 ,1.37854 ,-0.45414 ,-4.45607 
431 ,78.6730 ,1.38054 ,-0.44388 ,-4.35534 
432 ,78.8811 ,1.38264 ,-0.45072 ,-4.42249 
433 ,79.0731 ,1.38458 ,-0.45757 ,-4.48965 
434 ,79.2491 ,1.38633 ,-0.47468 ,-4.65754 
435 ,79.4412 ,1.38823 ,-0.48837 ,-4.79185 
436 ,79.6171 ,1.39003 ,-0.48837 ,-4.79185 
437 ,79.8093 ,1.39201 ,-0.50890 ,-4.99332 
438 ,79.9854 ,1.39372 ,-0.51917 ,-5.09406 
439 ,80.1615 ,1.39549 ,-0.52943 ,-5.19479 
440 ,80.3376 ,1.39720 ,-0.51917 ,-5.09406 
441 ,80.5453 ,1.39930 ,-0.54654 ,-5.36268 
442 ,80.7216 ,1.40108 ,-0.53285 ,-5.22837 
443 ,80.9137 ,1.40291 ,-0.55339 ,-5.42984 
444 ,81.0898 ,1.40475 ,-0.56365 ,-5.53058 
445 ,81.2818 ,1.40664 ,-0.56365 ,-5.53058 
446 ,81.4736 ,1.40855 ,-0.56708 ,-5.56415 
447 ,81.6660 ,1.41051 ,-0.59445 ,-5.83278 
448 ,81.8582 ,1.41244 ,-0.58419 ,-5.73205 
449 ,82.0664 ,1.41447 ,-0.60130 ,-5.89994 
450 ,82.2422 ,1.41631 ,-0.60130 ,-5.89994 
451 ,82.4504 ,1.41822 ,-0.61841 ,-6.06783 
452 ,82.6265 ,1.42016 ,-0.63210 ,-6.20214 
453 ,82.8186 ,1.42199 ,-0.63552 ,-6.23572 
454 ,82.9947 ,1.42381 ,-0.63552 ,-6.23572 
455 ,83.1709 ,1.42553 ,-0.63894 ,-6.26930 
456 ,83.3629 ,1.42744 ,-0.64921 ,-6.37003 
457 ,83.5390 ,1.42922 ,-0.65605 ,-6.43719 
458 ,83.7310 ,1.43120 ,-0.66974 ,-6.57150 
459 ,83.9230 ,1.43303 ,-0.66974 ,-6.57150 
460 ,84.0992 ,1.43482 ,-0.67659 ,-6.63866 
461 ,84.2912 ,1.43671 ,-0.70396 ,-6.90729 
462 ,84.4673 ,1.43851 ,-0.71765 ,-7.04160 
463 ,84.6594 ,1.44050 ,-0.69370 ,-6.80655 
