Data stamp = , 12-04-2022 20:11:00 716

Calibration Values: 
Slope = , 26.54 , g/V 
Offset Voltage at no contact = , -0.501760 , V 

No , Time , Stage Position ,   Mass , Force 
   ,  (s) ,      (mm)      ,   (g)  , (mN)  

1 ,0.0000 ,0.54938 ,5.41829 ,53.16429 
2 ,0.2269 ,0.54950 ,5.39434 ,52.92925 
3 ,0.6272 ,0.55066 ,5.41487 ,53.13072 
4 ,0.8193 ,0.55241 ,5.39776 ,52.96282 
5 ,1.0116 ,0.55421 ,5.39776 ,52.96282 
6 ,1.2033 ,0.55607 ,5.40803 ,53.06356 
7 ,1.3797 ,0.55791 ,5.39434 ,52.92925 
8 ,1.5717 ,0.55986 ,5.40803 ,53.06356 
9 ,1.7479 ,0.56160 ,5.38065 ,52.79493 
10 ,1.9238 ,0.56339 ,5.38065 ,52.79493 
11 ,2.1319 ,0.56544 ,5.36696 ,52.66062 
12 ,2.3077 ,0.56719 ,5.34985 ,52.49273 
13 ,2.4838 ,0.56899 ,5.33616 ,52.35841 
14 ,2.6762 ,0.57091 ,5.32932 ,52.29126 
15 ,2.8523 ,0.57278 ,5.30194 ,52.02263 
16 ,3.0281 ,0.57445 ,5.28141 ,51.82116 
17 ,3.2042 ,0.57616 ,5.28483 ,51.85474 
18 ,3.3960 ,0.57804 ,5.27114 ,51.72043 
19 ,3.5724 ,0.57986 ,5.25061 ,51.51896 
20 ,3.7487 ,0.58165 ,5.22665 ,51.28391 
21 ,3.9406 ,0.58356 ,5.20954 ,51.11602 
22 ,4.1007 ,0.58525 ,5.21639 ,51.18317 
23 ,4.2768 ,0.58691 ,5.18901 ,50.91455 
24 ,4.4526 ,0.58868 ,5.17874 ,50.81381 
25 ,4.6291 ,0.59046 ,5.14452 ,50.47803 
26 ,4.8373 ,0.59245 ,5.15821 ,50.61234 
27 ,5.0131 ,0.59423 ,5.11714 ,50.20940 
28 ,5.1893 ,0.59602 ,5.10003 ,50.04151 
29 ,5.3812 ,0.59792 ,5.06923 ,49.73931 
30 ,5.5570 ,0.59967 ,5.08292 ,49.87362 
31 ,5.7335 ,0.60148 ,5.06239 ,49.67215 
32 ,5.9414 ,0.60344 ,5.05554 ,49.60499 
33 ,6.1176 ,0.60525 ,5.03501 ,49.40352 
34 ,6.3097 ,0.60720 ,5.00763 ,49.13490 
35 ,6.4855 ,0.60894 ,4.98026 ,48.86627 
36 ,6.6613 ,0.61070 ,4.97341 ,48.79911 
37 ,6.8381 ,0.61252 ,4.95630 ,48.63122 
38 ,7.0619 ,0.61459 ,4.94946 ,48.56407 
39 ,7.2539 ,0.61662 ,4.92550 ,48.32902 
40 ,7.4458 ,0.61851 ,4.90839 ,48.16113 
41 ,7.6222 ,0.62036 ,4.89812 ,48.06039 
42 ,7.8142 ,0.62216 ,4.85364 ,47.62387 
43 ,8.0224 ,0.62427 ,4.85706 ,47.65745 
44 ,8.2141 ,0.62622 ,4.83652 ,47.45598 
45 ,8.3905 ,0.62802 ,4.80573 ,47.15378 
46 ,8.5665 ,0.62978 ,4.79546 ,47.05304 
47 ,8.7424 ,0.63156 ,4.80230 ,47.12020 
48 ,8.9027 ,0.63326 ,4.77493 ,46.85157 
49 ,9.0948 ,0.63501 ,4.75782 ,46.68368 
50 ,9.2869 ,0.63692 ,4.74755 ,46.58295 
51 ,9.4785 ,0.63898 ,4.72359 ,46.34790 
52 ,9.6546 ,0.64064 ,4.72017 ,46.31432 
53 ,9.8306 ,0.64243 ,4.69279 ,46.04569 
54 ,10.0072 ,0.64421 ,4.67911 ,45.91138 
55 ,10.2152 ,0.64621 ,4.64831 ,45.60918 
56 ,10.3914 ,0.64804 ,4.64488 ,45.57560 
57 ,10.5834 ,0.64990 ,4.64488 ,45.57560 
58 ,10.7595 ,0.65170 ,4.62435 ,45.37413 
59 ,10.9514 ,0.65355 ,4.60724 ,45.20624 
60 ,11.1277 ,0.65539 ,4.56960 ,44.83688 
61 ,11.3357 ,0.65739 ,4.55933 ,44.73614 
62 ,11.5118 ,0.65919 ,4.52853 ,44.43394 
63 ,11.7038 ,0.66109 ,4.53880 ,44.53467 
64 ,11.8799 ,0.66304 ,4.50800 ,44.23247 
65 ,12.0717 ,0.66478 ,4.49773 ,44.13173 
66 ,12.2481 ,0.66663 ,4.49431 ,44.09815 
67 ,12.4402 ,0.66844 ,4.48062 ,43.96384 
68 ,12.6162 ,0.67020 ,4.46693 ,43.82953 
69 ,12.7923 ,0.67202 ,4.43271 ,43.49374 
70 ,12.9844 ,0.67396 ,4.44640 ,43.62806 
71 ,13.1604 ,0.67569 ,4.41218 ,43.29227 
72 ,13.3526 ,0.67763 ,4.38480 ,43.02365 
73 ,13.5286 ,0.67940 ,4.37795 ,42.95649 
74 ,13.7045 ,0.68115 ,4.38138 ,42.99007 
75 ,13.8807 ,0.68286 ,4.35742 ,42.75502 
76 ,14.0566 ,0.68467 ,4.35058 ,42.68786 
77 ,14.2490 ,0.68655 ,4.33004 ,42.48639 
78 ,14.4411 ,0.68851 ,4.31978 ,42.38566 
79 ,14.6330 ,0.69040 ,4.28556 ,42.04988 
80 ,14.8088 ,0.69218 ,4.26502 ,41.84841 
81 ,14.9852 ,0.69393 ,4.27529 ,41.94914 
82 ,15.1611 ,0.69571 ,4.25818 ,41.78125 
83 ,15.3534 ,0.69762 ,4.21027 ,41.31115 
84 ,15.5450 ,0.69952 ,4.21369 ,41.34473 
85 ,15.7215 ,0.70129 ,4.21027 ,41.31115 
86 ,15.9135 ,0.70314 ,4.17605 ,40.97537 
87 ,16.0896 ,0.70511 ,4.15894 ,40.80748 
88 ,16.2655 ,0.70673 ,4.14525 ,40.67317 
89 ,16.4578 ,0.70865 ,4.13840 ,40.60601 
90 ,16.6659 ,0.71069 ,4.12814 ,40.50527 
91 ,16.8580 ,0.71257 ,4.09049 ,40.13591 
92 ,17.2742 ,0.71562 ,4.07338 ,39.96802 
93 ,17.4822 ,0.71882 ,4.05627 ,39.80013 
94 ,17.6583 ,0.72064 ,4.03916 ,39.63224 
95 ,17.8345 ,0.72244 ,4.01178 ,39.36361 
96 ,18.0105 ,0.72420 ,3.98441 ,39.09499 
97 ,18.2026 ,0.72601 ,3.99125 ,39.16214 
98 ,18.3945 ,0.72793 ,3.97756 ,39.02783 
99 ,18.5867 ,0.73000 ,3.96045 ,38.85994 
100 ,18.7790 ,0.73185 ,3.94334 ,38.69205 
101 ,18.9549 ,0.73363 ,3.92623 ,38.52415 
102 ,19.1309 ,0.73550 ,3.91938 ,38.45700 
103 ,19.3070 ,0.73714 ,3.89885 ,38.25553 
104 ,19.4988 ,0.73898 ,3.87832 ,38.05406 
105 ,19.6752 ,0.74085 ,3.86121 ,37.88617 
106 ,19.8832 ,0.74274 ,3.86463 ,37.91975 
107 ,20.0753 ,0.74475 ,3.82356 ,37.51681 
108 ,20.2674 ,0.74675 ,3.83041 ,37.58396 
109 ,20.4595 ,0.74857 ,3.80987 ,37.38249 
110 ,20.6515 ,0.75051 ,3.79276 ,37.21460 
111 ,20.8276 ,0.75238 ,3.77908 ,37.08029 
112 ,21.0036 ,0.75407 ,3.76881 ,36.97955 
113 ,21.1797 ,0.75586 ,3.75854 ,36.87882 
114 ,21.3720 ,0.75778 ,3.73117 ,36.61019 
115 ,21.5640 ,0.75966 ,3.74143 ,36.71093 
116 ,21.7560 ,0.76159 ,3.68668 ,36.17367 
117 ,21.9480 ,0.76356 ,3.67641 ,36.07294 
118 ,22.1242 ,0.76533 ,3.66957 ,36.00578 
119 ,22.3003 ,0.76708 ,3.67299 ,36.03936 
120 ,22.4920 ,0.76896 ,3.63192 ,35.63642 
121 ,22.6841 ,0.77084 ,3.64219 ,35.73716 
122 ,22.8761 ,0.77272 ,3.62508 ,35.56926 
123 ,23.0523 ,0.77455 ,3.59428 ,35.26706 
124 ,23.2445 ,0.77653 ,3.59428 ,35.26706 
125 ,23.4366 ,0.77838 ,3.57032 ,35.03201 
126 ,23.6288 ,0.78027 ,3.53952 ,34.72981 
127 ,23.8369 ,0.78237 ,3.53952 ,34.72981 
128 ,24.0129 ,0.78424 ,3.53610 ,34.69623 
129 ,24.1890 ,0.78596 ,3.51899 ,34.52834 
130 ,24.3971 ,0.78800 ,3.48819 ,34.22613 
131 ,24.5732 ,0.78978 ,3.48135 ,34.15898 
132 ,24.7492 ,0.79155 ,3.46081 ,33.95751 
133 ,24.9412 ,0.79341 ,3.44713 ,33.82319 
134 ,25.1330 ,0.79533 ,3.42317 ,33.58814 
135 ,25.3091 ,0.79711 ,3.41633 ,33.52099 
136 ,25.4851 ,0.79897 ,3.40606 ,33.42025 
137 ,25.6611 ,0.80064 ,3.40948 ,33.45383 
138 ,25.8535 ,0.80254 ,3.37526 ,33.11805 
139 ,26.0617 ,0.80459 ,3.36842 ,33.05089 
140 ,26.2539 ,0.80657 ,3.34104 ,32.78227 
141 ,26.4458 ,0.80842 ,3.34788 ,32.84942 
142 ,26.6220 ,0.81026 ,3.32735 ,32.64795 
143 ,26.8140 ,0.81211 ,3.29313 ,32.31217 
144 ,27.0058 ,0.81406 ,3.30339 ,32.41290 
145 ,27.1822 ,0.81581 ,3.28286 ,32.21143 
146 ,27.3582 ,0.81763 ,3.25206 ,31.90923 
147 ,27.5664 ,0.81954 ,3.23153 ,31.70776 
148 ,27.7424 ,0.82145 ,3.23837 ,31.77492 
149 ,27.9184 ,0.82323 ,3.21442 ,31.53987 
150 ,28.1425 ,0.82531 ,3.19046 ,31.30482 
151 ,28.3186 ,0.82722 ,3.18020 ,31.20409 
152 ,28.4946 ,0.82894 ,3.15966 ,31.00262 
153 ,28.6705 ,0.83073 ,3.14940 ,30.90188 
154 ,28.8466 ,0.83250 ,3.14597 ,30.86830 
155 ,29.0546 ,0.83444 ,3.11860 ,30.59968 
156 ,29.2468 ,0.83643 ,3.11175 ,30.53252 
157 ,29.4388 ,0.83844 ,3.09806 ,30.39821 
158 ,29.6152 ,0.84016 ,3.07069 ,30.12958 
159 ,29.8071 ,0.84203 ,3.08780 ,30.29747 
160 ,29.9835 ,0.84387 ,3.06726 ,30.09600 
161 ,30.1910 ,0.84594 ,3.02620 ,29.69306 
162 ,30.3674 ,0.84773 ,3.02278 ,29.65948 
163 ,30.5436 ,0.84948 ,3.02620 ,29.69306 
164 ,30.7196 ,0.85127 ,2.99540 ,29.39086 
165 ,30.8957 ,0.85296 ,2.97487 ,29.18939 
166 ,31.0878 ,0.85486 ,2.97829 ,29.22297 
167 ,31.2636 ,0.85666 ,2.96460 ,29.08865 
168 ,31.4560 ,0.85857 ,2.95433 ,28.98792 
169 ,31.6481 ,0.86051 ,2.93722 ,28.82003 
170 ,31.8403 ,0.86245 ,2.89958 ,28.45066 
171 ,32.0483 ,0.86442 ,2.90642 ,28.51782 
172 ,32.2404 ,0.86634 ,2.86536 ,28.11488 
173 ,32.4484 ,0.86846 ,2.86193 ,28.08130 
174 ,32.6406 ,0.87042 ,2.83798 ,27.84625 
175 ,32.8166 ,0.87220 ,2.82429 ,27.71194 
176 ,33.0087 ,0.87404 ,2.82429 ,27.71194 
177 ,33.2007 ,0.87598 ,2.79349 ,27.40974 
178 ,33.3766 ,0.87780 ,2.79349 ,27.40974 
179 ,33.5689 ,0.87969 ,2.78322 ,27.30900 
180 ,33.7610 ,0.88152 ,2.74900 ,26.97322 
181 ,33.9372 ,0.88342 ,2.73874 ,26.87248 
182 ,34.1291 ,0.88520 ,2.73531 ,26.83891 
183 ,34.3051 ,0.88707 ,2.72163 ,26.70459 
184 ,34.4808 ,0.88889 ,2.70452 ,26.53670 
185 ,34.6572 ,0.89060 ,2.68398 ,26.33523 
186 ,34.8489 ,0.89253 ,2.68398 ,26.33523 
187 ,35.0253 ,0.89425 ,2.67372 ,26.23450 
188 ,35.2014 ,0.89602 ,2.63949 ,25.89871 
189 ,35.3775 ,0.89775 ,2.63265 ,25.83156 
190 ,35.5693 ,0.89969 ,2.63265 ,25.83156 
191 ,35.7456 ,0.90145 ,2.60527 ,25.56293 
192 ,35.9379 ,0.90344 ,2.58474 ,25.36146 
193 ,36.1298 ,0.90532 ,2.58816 ,25.39504 
194 ,36.3059 ,0.90704 ,2.58132 ,25.32788 
195 ,36.4980 ,0.90902 ,2.53683 ,24.89136 
196 ,36.6898 ,0.91091 ,2.54710 ,24.99210 
197 ,36.8821 ,0.91274 ,2.49918 ,24.52200 
198 ,37.0582 ,0.91459 ,2.49234 ,24.45485 
199 ,37.2663 ,0.91655 ,2.48207 ,24.35411 
200 ,37.4584 ,0.91855 ,2.47523 ,24.28696 
201 ,37.6503 ,0.92050 ,2.47523 ,24.28696 
202 ,37.8426 ,0.92233 ,2.45812 ,24.11906 
203 ,38.0344 ,0.92425 ,2.45127 ,24.05191 
204 ,38.2107 ,0.92610 ,2.42390 ,23.78328 
205 ,38.4024 ,0.92798 ,2.39994 ,23.54823 
206 ,38.5788 ,0.92977 ,2.37941 ,23.34676 
207 ,38.7705 ,0.93167 ,2.38968 ,23.44750 
208 ,38.9630 ,0.93354 ,2.34519 ,23.01098 
209 ,39.1550 ,0.93547 ,2.35888 ,23.14529 
210 ,39.3471 ,0.93740 ,2.33492 ,22.91024 
211 ,39.5393 ,0.93938 ,2.31781 ,22.74235 
212 ,39.7314 ,0.94129 ,2.30412 ,22.60804 
213 ,39.9233 ,0.94313 ,2.28017 ,22.37299 
214 ,40.1154 ,0.94509 ,2.28359 ,22.40657 
215 ,40.2914 ,0.94689 ,2.26648 ,22.23868 
216 ,40.4673 ,0.94868 ,2.25279 ,22.10437 
217 ,40.6597 ,0.95052 ,2.24252 ,22.00363 
218 ,40.8676 ,0.95256 ,2.21515 ,21.73500 
219 ,41.0596 ,0.95452 ,2.21515 ,21.73500 
220 ,41.2679 ,0.95654 ,2.19803 ,21.56711 
221 ,41.4600 ,0.95849 ,2.17408 ,21.33206 
222 ,41.6521 ,0.96046 ,2.16723 ,21.26491 
223 ,41.8441 ,0.96238 ,2.13986 ,20.99628 
224 ,42.0202 ,0.96417 ,2.11932 ,20.79481 
225 ,42.1962 ,0.96591 ,2.11932 ,20.79481 
226 ,42.3883 ,0.96774 ,2.12275 ,20.82839 
227 ,42.5639 ,0.96962 ,2.08852 ,20.49261 
228 ,42.7404 ,0.97136 ,2.08168 ,20.42545 
229 ,42.9165 ,0.97311 ,2.06457 ,20.25756 
230 ,43.0925 ,0.97496 ,2.05088 ,20.12325 
231 ,43.2526 ,0.97661 ,2.04061 ,20.02251 
232 ,43.4289 ,0.97825 ,2.03035 ,19.92178 
233 ,43.6047 ,0.98002 ,2.01666 ,19.78746 
234 ,43.7809 ,0.98180 ,1.98928 ,19.51884 
235 ,43.9570 ,0.98353 ,1.99270 ,19.55241 
236 ,44.1490 ,0.98556 ,1.97217 ,19.35094 
237 ,44.3251 ,0.98726 ,1.95848 ,19.21663 
238 ,44.5012 ,0.98901 ,1.94479 ,19.08232 
239 ,44.6932 ,0.99088 ,1.94137 ,19.04874 
240 ,44.9013 ,0.99289 ,1.92084 ,18.84727 
241 ,45.0773 ,0.99474 ,1.91742 ,18.81369 
242 ,45.2532 ,0.99646 ,1.89004 ,18.54507 
243 ,45.4616 ,0.99854 ,1.88319 ,18.47791 
244 ,45.6534 ,1.00044 ,1.87977 ,18.44433 
245 ,45.8456 ,1.00232 ,1.85582 ,18.20928 
246 ,46.0215 ,1.00418 ,1.83528 ,18.00781 
247 ,46.2296 ,1.00612 ,1.83528 ,18.00781 
248 ,46.4058 ,1.00797 ,1.81475 ,17.80634 
249 ,46.5820 ,1.00978 ,1.79764 ,17.63845 
250 ,46.7898 ,1.01176 ,1.79764 ,17.63845 
251 ,46.9661 ,1.01360 ,1.77369 ,17.40340 
252 ,47.1740 ,1.01568 ,1.75657 ,17.23551 
253 ,47.3823 ,1.01774 ,1.74289 ,17.10120 
254 ,47.5740 ,1.01969 ,1.74289 ,17.10120 
255 ,47.7505 ,1.02146 ,1.72235 ,16.89973 
256 ,47.9424 ,1.02332 ,1.70182 ,16.69826 
257 ,48.1346 ,1.02530 ,1.69498 ,16.63110 
258 ,48.3104 ,1.02708 ,1.68129 ,16.49679 
259 ,48.4867 ,1.02885 ,1.65733 ,16.26174 
260 ,48.6788 ,1.03074 ,1.64364 ,16.12743 
261 ,48.8548 ,1.03249 ,1.65049 ,16.19458 
262 ,49.0312 ,1.03425 ,1.62653 ,15.95954 
263 ,49.2231 ,1.03613 ,1.61969 ,15.89238 
264 ,49.4308 ,1.03823 ,1.58547 ,15.55660 
265 ,49.6071 ,1.04000 ,1.57178 ,15.42228 
266 ,49.7834 ,1.04180 ,1.55124 ,15.22081 
267 ,49.9594 ,1.04358 ,1.56836 ,15.38871 
268 ,50.1673 ,1.04556 ,1.53756 ,15.08650 
269 ,50.3435 ,1.04740 ,1.52387 ,14.95219 
270 ,50.5516 ,1.04941 ,1.51702 ,14.88503 
271 ,50.7597 ,1.05145 ,1.51360 ,14.85145 
272 ,50.9517 ,1.05343 ,1.48965 ,14.61640 
273 ,51.1435 ,1.05534 ,1.46569 ,14.38136 
274 ,51.3679 ,1.05744 ,1.45542 ,14.28062 
275 ,51.5438 ,1.05935 ,1.43489 ,14.07915 
276 ,51.7201 ,1.06114 ,1.43831 ,14.11273 
277 ,51.8960 ,1.06298 ,1.42462 ,13.97842 
278 ,52.0881 ,1.06486 ,1.39040 ,13.64263 
279 ,52.2642 ,1.06657 ,1.39040 ,13.64263 
280 ,52.4403 ,1.06836 ,1.38698 ,13.60906 
281 ,52.5999 ,1.07004 ,1.38356 ,13.57548 
282 ,52.7764 ,1.07168 ,1.36645 ,13.40759 
283 ,52.9524 ,1.07352 ,1.33223 ,13.07180 
284 ,53.1286 ,1.07525 ,1.32880 ,13.03822 
285 ,53.3046 ,1.07694 ,1.30827 ,12.83675 
286 ,53.4806 ,1.07875 ,1.30827 ,12.83675 
287 ,53.6724 ,1.08062 ,1.31169 ,12.87033 
288 ,53.8487 ,1.08242 ,1.28432 ,12.60171 
289 ,54.0249 ,1.08422 ,1.27063 ,12.46739 
290 ,54.2010 ,1.08592 ,1.27063 ,12.46739 
291 ,54.3771 ,1.08766 ,1.25694 ,12.33308 
292 ,54.5852 ,1.08971 ,1.22614 ,12.03088 
293 ,54.7612 ,1.09153 ,1.21929 ,11.96372 
294 ,54.9375 ,1.09333 ,1.22272 ,11.99730 
295 ,55.1295 ,1.09527 ,1.19534 ,11.72867 
296 ,55.3374 ,1.09720 ,1.18850 ,11.66151 
297 ,55.5136 ,1.09904 ,1.18165 ,11.59436 
298 ,55.7216 ,1.10105 ,1.16796 ,11.46004 
299 ,55.9138 ,1.10305 ,1.16796 ,11.46004 
300 ,56.1219 ,1.10505 ,1.10979 ,10.88921 
301 ,56.2978 ,1.10706 ,1.12690 ,11.05710 
302 ,56.4736 ,1.10866 ,1.12005 ,10.98995 
303 ,56.6501 ,1.11044 ,1.09267 ,10.72132 
304 ,56.8418 ,1.11228 ,1.09610 ,10.75490 
305 ,57.0341 ,1.11421 ,1.06872 ,10.48627 
306 ,57.2424 ,1.11631 ,1.05845 ,10.38554 
307 ,57.4183 ,1.11812 ,1.04134 ,10.21765 
308 ,57.6099 ,1.11999 ,1.01739 ,9.98260 
309 ,57.7865 ,1.12181 ,1.01054 ,9.91544 
310 ,57.9942 ,1.12378 ,1.01739 ,9.98260 
311 ,58.1707 ,1.12564 ,0.97290 ,9.54608 
312 ,58.3625 ,1.12757 ,0.97632 ,9.57966 
313 ,58.5389 ,1.12934 ,0.97290 ,9.54608 
314 ,58.7147 ,1.13105 ,0.96263 ,9.44535 
315 ,58.9069 ,1.13291 ,0.92157 ,9.04241 
316 ,59.0985 ,1.13493 ,0.92157 ,9.04241 
317 ,59.2747 ,1.13673 ,0.91814 ,9.00883 
318 ,59.4347 ,1.13838 ,0.90788 ,8.90809 
319 ,59.6110 ,1.13998 ,0.90446 ,8.87451 
320 ,59.7873 ,1.14183 ,0.87366 ,8.57231 
321 ,59.9795 ,1.14367 ,0.87366 ,8.57231 
322 ,60.1874 ,1.14568 ,0.84286 ,8.27011 
323 ,60.3796 ,1.14771 ,0.84286 ,8.27011 
324 ,60.5715 ,1.14957 ,0.83259 ,8.16937 
325 ,60.7477 ,1.15140 ,0.80863 ,7.93432 
326 ,60.9556 ,1.15339 ,0.81890 ,8.03506 
327 ,61.1316 ,1.15524 ,0.79837 ,7.83359 
328 ,61.3078 ,1.15699 ,0.77441 ,7.59854 
329 ,61.5000 ,1.15889 ,0.76757 ,7.53138 
330 ,61.6760 ,1.16068 ,0.76757 ,7.53138 
331 ,61.8521 ,1.16246 ,0.74704 ,7.32991 
332 ,62.0438 ,1.16428 ,0.74019 ,7.26276 
333 ,62.2198 ,1.16618 ,0.72992 ,7.16202 
334 ,62.3964 ,1.16785 ,0.71281 ,6.99413 
335 ,62.5884 ,1.16970 ,0.69570 ,6.82624 
336 ,62.7964 ,1.17176 ,0.69228 ,6.79266 
337 ,62.9726 ,1.17365 ,0.67175 ,6.59119 
338 ,63.1645 ,1.17548 ,0.66833 ,6.55761 
339 ,63.3409 ,1.17734 ,0.65121 ,6.38972 
340 ,63.5330 ,1.17924 ,0.63753 ,6.25541 
341 ,63.7248 ,1.18104 ,0.62726 ,6.15467 
342 ,63.8848 ,1.18284 ,0.61699 ,6.05394 
343 ,64.0611 ,1.18450 ,0.61015 ,5.98678 
344 ,64.2691 ,1.18652 ,0.57935 ,5.68458 
345 ,64.4451 ,1.18830 ,0.56908 ,5.58384 
346 ,64.6374 ,1.19020 ,0.57251 ,5.61742 
347 ,64.8294 ,1.19219 ,0.54855 ,5.38237 
348 ,65.0214 ,1.19404 ,0.55539 ,5.44953 
349 ,65.2135 ,1.19603 ,0.52802 ,5.18090 
350 ,65.4052 ,1.19792 ,0.51091 ,5.01301 
351 ,65.5817 ,1.19971 ,0.49722 ,4.87870 
352 ,65.7577 ,1.20149 ,0.49722 ,4.87870 
353 ,65.9340 ,1.20323 ,0.49037 ,4.81154 
354 ,66.1420 ,1.20521 ,0.45273 ,4.44218 
355 ,66.3179 ,1.20707 ,0.46642 ,4.57649 
356 ,66.4937 ,1.20879 ,0.43904 ,4.30787 
357 ,66.6861 ,1.21069 ,0.43220 ,4.24071 
358 ,66.8941 ,1.21272 ,0.42877 ,4.20713 
359 ,67.0703 ,1.21460 ,0.40140 ,3.93850 
360 ,67.2462 ,1.21636 ,0.39113 ,3.83777 
361 ,67.4225 ,1.21812 ,0.38429 ,3.77061 
362 ,67.6141 ,1.22000 ,0.36718 ,3.60272 
363 ,67.7906 ,1.22180 ,0.35349 ,3.46841 
364 ,67.9667 ,1.22360 ,0.34664 ,3.40125 
365 ,68.1427 ,1.22529 ,0.35006 ,3.43483 
366 ,68.3347 ,1.22716 ,0.33295 ,3.26694 
367 ,68.5109 ,1.22897 ,0.31926 ,3.13263 
368 ,68.6705 ,1.23070 ,0.29531 ,2.89758 
369 ,68.8470 ,1.23238 ,0.29531 ,2.89758 
370 ,69.0392 ,1.23429 ,0.29531 ,2.89758 
371 ,69.2149 ,1.23607 ,0.28504 ,2.79684 
372 ,69.4073 ,1.23790 ,0.26451 ,2.59537 
373 ,69.5993 ,1.23981 ,0.26109 ,2.56179 
374 ,69.7751 ,1.24166 ,0.25424 ,2.49464 
375 ,69.9510 ,1.24337 ,0.23371 ,2.29317 
376 ,70.1270 ,1.24516 ,0.22002 ,2.15885 
377 ,70.3031 ,1.24690 ,0.23713 ,2.32675 
378 ,70.4957 ,1.24873 ,0.22002 ,2.15885 
379 ,70.7037 ,1.25083 ,0.20976 ,2.05812 
380 ,70.8797 ,1.25265 ,0.19949 ,1.95738 
381 ,71.0557 ,1.25445 ,0.17211 ,1.68876 
382 ,71.2320 ,1.25619 ,0.15842 ,1.55445 
383 ,71.4240 ,1.25815 ,0.16185 ,1.58802 
384 ,71.6001 ,1.25988 ,0.15158 ,1.48729 
385 ,71.7761 ,1.26157 ,0.14473 ,1.42013 
386 ,71.9522 ,1.26337 ,0.12078 ,1.18508 
387 ,72.1600 ,1.26551 ,0.13789 ,1.35298 
388 ,72.3525 ,1.26733 ,0.09340 ,0.91646 
389 ,72.5445 ,1.26925 ,0.10709 ,1.05077 
390 ,72.7367 ,1.27125 ,0.07971 ,0.78214 
391 ,72.9124 ,1.27299 ,0.06260 ,0.61425 
392 ,73.1048 ,1.27487 ,0.07629 ,0.74857 
393 ,73.2964 ,1.27682 ,0.05918 ,0.58067 
394 ,73.4729 ,1.27858 ,0.04207 ,0.41278 
395 ,73.6649 ,1.28052 ,0.04549 ,0.44636 
396 ,73.8410 ,1.28226 ,0.03865 ,0.37920 
397 ,74.0168 ,1.28400 ,0.01811 ,0.17773 
398 ,74.2091 ,1.28586 ,-0.00242 ,-0.02373 
399 ,74.4012 ,1.28787 ,0.00443 ,0.04342 
400 ,74.5772 ,1.28963 ,-0.00926 ,-0.09089 
401 ,74.7535 ,1.29138 ,-0.02637 ,-0.25878 
402 ,74.9614 ,1.29332 ,-0.01611 ,-0.15805 
403 ,75.1374 ,1.29524 ,-0.04348 ,-0.42667 
404 ,75.3297 ,1.29701 ,-0.05717 ,-0.56099 
405 ,75.5058 ,1.29893 ,-0.05717 ,-0.56099 
406 ,75.6979 ,1.30077 ,-0.08113 ,-0.79604 
407 ,75.8739 ,1.30259 ,-0.08797 ,-0.86319 
408 ,76.0982 ,1.30464 ,-0.10166 ,-0.99751 
409 ,76.2900 ,1.30677 ,-0.12219 ,-1.19898 
410 ,76.4982 ,1.30872 ,-0.10166 ,-0.99751 
411 ,76.6743 ,1.31061 ,-0.12562 ,-1.23255 
412 ,76.8662 ,1.31251 ,-0.12904 ,-1.26613 
413 ,77.0582 ,1.31431 ,-0.12904 ,-1.26613 
414 ,77.2500 ,1.31646 ,-0.15642 ,-1.53476 
415 ,77.4425 ,1.31814 ,-0.16326 ,-1.60191 
416 ,77.6187 ,1.32006 ,-0.16326 ,-1.60191 
417 ,77.7946 ,1.32180 ,-0.18722 ,-1.83696 
418 ,77.9867 ,1.32364 ,-0.18379 ,-1.80338 
419 ,78.1788 ,1.32563 ,-0.19406 ,-1.90412 
420 ,78.3389 ,1.32735 ,-0.21802 ,-2.13917 
421 ,78.5149 ,1.32897 ,-0.21459 ,-2.10559 
422 ,78.7071 ,1.33084 ,-0.21459 ,-2.10559 
423 ,78.8828 ,1.33273 ,-0.23513 ,-2.30706 
424 ,79.0589 ,1.33442 ,-0.24539 ,-2.40779 
425 ,79.2188 ,1.33613 ,-0.26593 ,-2.60926 
426 ,79.3950 ,1.33774 ,-0.26593 ,-2.60926 
427 ,79.5710 ,1.33954 ,-0.28646 ,-2.81073 
428 ,79.7471 ,1.34130 ,-0.27961 ,-2.74358 
429 ,79.9232 ,1.34304 ,-0.27619 ,-2.71000 
430 ,80.0832 ,1.34478 ,-0.28988 ,-2.84431 
431 ,80.2593 ,1.34642 ,-0.29330 ,-2.87789 
432 ,80.4354 ,1.34818 ,-0.31041 ,-3.04578 
433 ,80.6115 ,1.34993 ,-0.32752 ,-3.21367 
434 ,80.7875 ,1.35171 ,-0.32410 ,-3.18010 
435 ,80.9636 ,1.35343 ,-0.32068 ,-3.14652 
436 ,81.1398 ,1.35522 ,-0.34121 ,-3.34799 
437 ,81.2997 ,1.35694 ,-0.37201 ,-3.65019 
438 ,81.4759 ,1.35860 ,-0.35490 ,-3.48230 
439 ,81.6518 ,1.36040 ,-0.37201 ,-3.65019 
440 ,81.8280 ,1.36212 ,-0.37544 ,-3.68377 
441 ,81.9880 ,1.36384 ,-0.39597 ,-3.88524 
442 ,82.1641 ,1.36544 ,-0.38570 ,-3.78450 
443 ,82.3403 ,1.36720 ,-0.39597 ,-3.88524 
444 ,82.5163 ,1.36901 ,-0.41308 ,-4.05313 
445 ,82.6924 ,1.37074 ,-0.42677 ,-4.18744 
446 ,82.8685 ,1.37249 ,-0.42677 ,-4.18744 
447 ,83.0445 ,1.37426 ,-0.43703 ,-4.28818 
448 ,83.2205 ,1.37612 ,-0.45072 ,-4.42249 
449 ,83.3969 ,1.37784 ,-0.45072 ,-4.42249 
450 ,83.5891 ,1.37969 ,-0.45414 ,-4.45607 
451 ,83.7812 ,1.38160 ,-0.48152 ,-4.72470 
452 ,83.9733 ,1.38356 ,-0.48837 ,-4.79185 
453 ,84.1813 ,1.38547 ,-0.49179 ,-4.82543 
454 ,84.3893 ,1.38761 ,-0.48494 ,-4.75828 
455 ,84.5654 ,1.38946 ,-0.49863 ,-4.89259 
456 ,84.7571 ,1.39138 ,-0.53628 ,-5.26195 
457 ,84.9336 ,1.39313 ,-0.53285 ,-5.22837 
458 ,85.1097 ,1.39487 ,-0.52943 ,-5.19479 
459 ,85.2858 ,1.39663 ,-0.53970 ,-5.29553 
460 ,85.4777 ,1.39851 ,-0.56365 ,-5.53058 
461 ,85.6539 ,1.40035 ,-0.56365 ,-5.53058 
462 ,85.8620 ,1.40227 ,-0.57392 ,-5.63131 
463 ,86.0382 ,1.40419 ,-0.57734 ,-5.66489 
464 ,86.2302 ,1.40612 ,-0.58077 ,-5.69847 
