Data stamp = , 11-04-2022 23:10:44 769

Calibration Values: 
Slope = , 26.54 , g/V 
Offset Voltage at no contact = , -0.501760 , V 

No , Time , Stage Position ,   Mass , Force 
   ,  (s) ,      (mm)      ,   (g)  , (mN)  

1 ,0.0000 ,0.59932 ,5.10345 ,50.07509 
2 ,0.2039 ,0.59936 ,5.08292 ,49.87362 
3 ,0.6043 ,0.60059 ,5.09661 ,50.00793 
4 ,0.8126 ,0.60228 ,5.10003 ,50.04151 
5 ,1.0203 ,0.60424 ,5.08977 ,49.94078 
6 ,1.2286 ,0.60621 ,5.08292 ,49.87362 
7 ,1.4047 ,0.60800 ,5.07950 ,49.84004 
8 ,1.5808 ,0.60993 ,5.08977 ,49.94078 
9 ,1.7728 ,0.61177 ,5.05897 ,49.63857 
10 ,1.9490 ,0.61360 ,5.03843 ,49.43710 
11 ,2.1566 ,0.61560 ,5.04528 ,49.50426 
12 ,2.3331 ,0.61739 ,5.03159 ,49.36995 
13 ,2.5091 ,0.61921 ,4.99394 ,49.00058 
14 ,2.7172 ,0.62115 ,4.98368 ,48.89985 
15 ,2.9094 ,0.62313 ,4.95972 ,48.66480 
16 ,3.1014 ,0.62503 ,4.96657 ,48.73196 
17 ,3.3094 ,0.62708 ,4.92550 ,48.32902 
18 ,3.5015 ,0.62901 ,4.93235 ,48.39618 
19 ,3.6772 ,0.63079 ,4.91181 ,48.19471 
20 ,3.8532 ,0.63256 ,4.88786 ,47.95966 
21 ,4.0453 ,0.63443 ,4.87417 ,47.82534 
22 ,4.2214 ,0.63634 ,4.84337 ,47.52314 
23 ,4.4297 ,0.63819 ,4.83310 ,47.42240 
24 ,4.6857 ,0.64084 ,4.82284 ,47.32167 
25 ,4.8780 ,0.64275 ,4.79888 ,47.08662 
26 ,5.1021 ,0.64503 ,4.78861 ,46.98589 
27 ,5.2781 ,0.64689 ,4.76124 ,46.71726 
28 ,5.4703 ,0.64863 ,4.75439 ,46.65010 
29 ,5.6945 ,0.65086 ,4.71675 ,46.28074 
30 ,5.8865 ,0.65287 ,4.72017 ,46.31432 
31 ,6.0946 ,0.65494 ,4.68937 ,46.01212 
32 ,6.3026 ,0.65708 ,4.68253 ,45.94496 
33 ,6.4948 ,0.65889 ,4.67568 ,45.87780 
34 ,6.7029 ,0.66102 ,4.65173 ,45.64275 
35 ,6.8949 ,0.66293 ,4.61408 ,45.27339 
36 ,7.1030 ,0.66510 ,4.63462 ,45.47486 
37 ,7.3110 ,0.66707 ,4.57986 ,44.93761 
38 ,7.5193 ,0.66911 ,4.55591 ,44.70256 
39 ,7.7113 ,0.67107 ,4.54564 ,44.60183 
40 ,7.9030 ,0.67306 ,4.53537 ,44.50109 
41 ,8.1113 ,0.67504 ,4.53537 ,44.50109 
42 ,8.3195 ,0.67706 ,4.52511 ,44.40036 
43 ,8.5117 ,0.67910 ,4.48404 ,43.99742 
44 ,8.7357 ,0.68129 ,4.47035 ,43.86310 
45 ,8.9277 ,0.68326 ,4.43613 ,43.52732 
46 ,9.1518 ,0.68550 ,4.43271 ,43.49374 
47 ,9.3600 ,0.68766 ,4.43613 ,43.52732 
48 ,9.5521 ,0.68951 ,4.38138 ,42.99007 
49 ,9.7601 ,0.69158 ,4.38822 ,43.05723 
50 ,9.9681 ,0.69364 ,4.37795 ,42.95649 
51 ,10.1443 ,0.69544 ,4.37453 ,42.92291 
52 ,10.3523 ,0.69753 ,4.33689 ,42.55355 
53 ,10.5284 ,0.69934 ,4.31293 ,42.31850 
54 ,10.7366 ,0.70129 ,4.28898 ,42.08345 
55 ,10.9286 ,0.70326 ,4.28898 ,42.08345 
56 ,11.1043 ,0.70511 ,4.26845 ,41.88198 
57 ,11.2968 ,0.70689 ,4.25133 ,41.71409 
58 ,11.5048 ,0.70904 ,4.25133 ,41.71409 
59 ,11.6966 ,0.71091 ,4.22053 ,41.41189 
60 ,11.8890 ,0.71282 ,4.19658 ,41.17684 
61 ,12.0971 ,0.71499 ,4.19658 ,41.17684 
62 ,12.2731 ,0.71684 ,4.18289 ,41.04253 
63 ,12.4813 ,0.71881 ,4.16578 ,40.87464 
64 ,12.6733 ,0.72070 ,4.14867 ,40.70674 
65 ,12.8494 ,0.72254 ,4.13498 ,40.57243 
66 ,13.0575 ,0.72454 ,4.10076 ,40.23665 
67 ,13.2332 ,0.72640 ,4.09391 ,40.16949 
68 ,13.4262 ,0.72822 ,4.09734 ,40.20307 
69 ,13.6179 ,0.73016 ,4.04258 ,39.66582 
70 ,13.8257 ,0.73220 ,4.04258 ,39.66582 
71 ,14.0019 ,0.73403 ,4.03916 ,39.63224 
72 ,14.1778 ,0.73579 ,4.01863 ,39.43077 
73 ,14.4021 ,0.73799 ,3.99809 ,39.22930 
74 ,14.5941 ,0.73990 ,3.97756 ,39.02783 
75 ,14.7701 ,0.74172 ,3.96387 ,38.89352 
76 ,14.9459 ,0.74344 ,3.96387 ,38.89352 
77 ,15.1220 ,0.74520 ,3.93992 ,38.65847 
78 ,15.2821 ,0.74695 ,3.92623 ,38.52415 
79 ,15.4421 ,0.74854 ,3.89543 ,38.22195 
80 ,15.6346 ,0.75031 ,3.90912 ,38.35626 
81 ,15.8427 ,0.75243 ,3.87490 ,38.02048 
82 ,16.0507 ,0.75445 ,3.87147 ,37.98690 
83 ,16.2587 ,0.75653 ,3.83041 ,37.58396 
84 ,16.4345 ,0.75832 ,3.81672 ,37.44965 
85 ,16.6110 ,0.76014 ,3.82356 ,37.51681 
86 ,16.8030 ,0.76197 ,3.78934 ,37.18102 
87 ,16.9950 ,0.76388 ,3.78592 ,37.14744 
88 ,17.1711 ,0.76571 ,3.77565 ,37.04671 
89 ,17.3632 ,0.76752 ,3.77908 ,37.08029 
90 ,17.5713 ,0.76968 ,3.73801 ,36.67735 
91 ,17.7795 ,0.77176 ,3.72090 ,36.50946 
92 ,17.9713 ,0.77363 ,3.71405 ,36.44230 
93 ,18.1635 ,0.77562 ,3.70379 ,36.34157 
94 ,18.3397 ,0.77740 ,3.65588 ,35.87147 
95 ,18.5475 ,0.77950 ,3.65930 ,35.90505 
96 ,18.7399 ,0.78144 ,3.65246 ,35.83789 
97 ,18.9478 ,0.78341 ,3.62508 ,35.56926 
98 ,19.1398 ,0.78529 ,3.61823 ,35.50211 
99 ,19.3321 ,0.78727 ,3.60454 ,35.36779 
100 ,19.5242 ,0.78916 ,3.59770 ,35.30064 
101 ,19.7159 ,0.79122 ,3.57717 ,35.09917 
102 ,19.9250 ,0.79316 ,3.54295 ,34.76338 
103 ,20.1325 ,0.79527 ,3.54295 ,34.76338 
104 ,20.3401 ,0.79734 ,3.50872 ,34.42760 
105 ,20.5326 ,0.79924 ,3.50530 ,34.39402 
106 ,20.7244 ,0.80129 ,3.47108 ,34.05824 
107 ,20.9007 ,0.80298 ,3.46424 ,33.99108 
108 ,21.1086 ,0.80501 ,3.45055 ,33.85677 
109 ,21.3009 ,0.80696 ,3.43001 ,33.65530 
110 ,21.4927 ,0.80889 ,3.43344 ,33.68888 
111 ,21.7010 ,0.81097 ,3.39921 ,33.35310 
112 ,21.9091 ,0.81291 ,3.38895 ,33.25236 
113 ,22.1329 ,0.81530 ,3.37184 ,33.08447 
114 ,22.3093 ,0.81712 ,3.36842 ,33.05089 
115 ,22.5174 ,0.81913 ,3.33419 ,32.71511 
116 ,22.7093 ,0.82098 ,3.33419 ,32.71511 
117 ,22.9175 ,0.82310 ,3.31366 ,32.51364 
118 ,23.1256 ,0.82520 ,3.29313 ,32.31217 
119 ,23.3015 ,0.82700 ,3.26917 ,32.07712 
120 ,23.5097 ,0.82898 ,3.26575 ,32.04354 
121 ,23.7180 ,0.83116 ,3.23495 ,31.74134 
122 ,23.9095 ,0.83312 ,3.22468 ,31.64060 
123 ,24.0860 ,0.83484 ,3.21100 ,31.50629 
124 ,24.2780 ,0.83675 ,3.21784 ,31.57345 
125 ,24.5022 ,0.83888 ,3.16993 ,31.10335 
126 ,24.7101 ,0.84105 ,3.17677 ,31.17051 
127 ,24.9018 ,0.84302 ,3.16309 ,31.03619 
128 ,25.0783 ,0.84471 ,3.13229 ,30.73399 
129 ,25.3024 ,0.84693 ,3.11518 ,30.56610 
130 ,25.4945 ,0.84884 ,3.12202 ,30.63325 
131 ,25.7026 ,0.85095 ,3.09806 ,30.39821 
132 ,25.8946 ,0.85289 ,3.09464 ,30.36463 
133 ,26.0707 ,0.85468 ,3.07753 ,30.19674 
134 ,26.2629 ,0.85661 ,3.04331 ,29.86095 
135 ,26.4709 ,0.85865 ,3.05358 ,29.96169 
136 ,26.6630 ,0.86054 ,3.01935 ,29.62590 
137 ,26.8391 ,0.86238 ,3.00224 ,29.45801 
138 ,27.0151 ,0.86417 ,2.98855 ,29.32370 
139 ,27.2072 ,0.86602 ,2.99198 ,29.35728 
140 ,27.4154 ,0.86811 ,2.97487 ,29.18939 
141 ,27.6073 ,0.86997 ,2.95091 ,28.95434 
142 ,27.8156 ,0.87207 ,2.94064 ,28.85360 
143 ,28.0235 ,0.87417 ,2.90985 ,28.55140 
144 ,28.2156 ,0.87605 ,2.90985 ,28.55140 
145 ,28.4237 ,0.87810 ,2.88247 ,28.28277 
146 ,28.5998 ,0.87998 ,2.86193 ,28.08130 
147 ,28.7759 ,0.88178 ,2.86878 ,28.14846 
148 ,28.9520 ,0.88348 ,2.84825 ,27.94699 
149 ,29.1598 ,0.88548 ,2.83456 ,27.81268 
150 ,29.3522 ,0.88746 ,2.83114 ,27.77910 
151 ,29.5601 ,0.88950 ,2.79007 ,27.37616 
152 ,29.7364 ,0.89130 ,2.78322 ,27.30900 
153 ,29.9283 ,0.89318 ,2.76269 ,27.10753 
154 ,30.1205 ,0.89510 ,2.76269 ,27.10753 
155 ,30.3285 ,0.89720 ,2.72505 ,26.73817 
156 ,30.5205 ,0.89911 ,2.72163 ,26.70459 
157 ,30.7286 ,0.90106 ,2.72505 ,26.73817 
158 ,30.9689 ,0.90347 ,2.67714 ,26.26807 
159 ,31.1607 ,0.90552 ,2.66345 ,26.13376 
160 ,31.3530 ,0.90746 ,2.66003 ,26.10018 
161 ,31.5769 ,0.90966 ,2.64292 ,25.93229 
162 ,31.7531 ,0.91147 ,2.62581 ,25.76440 
163 ,31.9290 ,0.91322 ,2.60527 ,25.56293 
164 ,32.1533 ,0.91530 ,2.59501 ,25.46220 
165 ,32.3451 ,0.91734 ,2.57447 ,25.26073 
166 ,32.5373 ,0.91932 ,2.57447 ,25.26073 
167 ,32.7132 ,0.92110 ,2.56078 ,25.12641 
168 ,32.8894 ,0.92279 ,2.54710 ,24.99210 
169 ,33.0812 ,0.92473 ,2.54710 ,24.99210 
170 ,33.2897 ,0.92671 ,2.53683 ,24.89136 
171 ,33.4817 ,0.92868 ,2.49576 ,24.48842 
172 ,33.6898 ,0.93077 ,2.46839 ,24.21980 
173 ,33.8820 ,0.93266 ,2.45470 ,24.08549 
174 ,34.0740 ,0.93463 ,2.44443 ,23.98475 
175 ,34.2818 ,0.93670 ,2.45127 ,24.05191 
176 ,34.4580 ,0.93849 ,2.43416 ,23.88402 
177 ,34.6503 ,0.94034 ,2.40679 ,23.61539 
178 ,34.8583 ,0.94260 ,2.39310 ,23.48108 
179 ,35.0343 ,0.94431 ,2.37941 ,23.34676 
180 ,35.2262 ,0.94614 ,2.37599 ,23.31318 
181 ,35.4025 ,0.94798 ,2.36230 ,23.17887 
182 ,35.6100 ,0.95002 ,2.33492 ,22.91024 
183 ,35.7862 ,0.95177 ,2.30754 ,22.64162 
184 ,35.9627 ,0.95353 ,2.31097 ,22.67520 
185 ,36.1386 ,0.95530 ,2.29728 ,22.54088 
186 ,36.3468 ,0.95740 ,2.26990 ,22.27226 
187 ,36.5388 ,0.95922 ,2.28359 ,22.40657 
188 ,36.7148 ,0.96114 ,2.24937 ,22.07079 
189 ,36.9229 ,0.96298 ,2.24252 ,22.00363 
190 ,37.1151 ,0.96503 ,2.22199 ,21.80216 
191 ,37.2912 ,0.96683 ,2.19119 ,21.49996 
192 ,37.4993 ,0.96888 ,2.21515 ,21.73500 
193 ,37.6910 ,0.97072 ,2.17408 ,21.33206 
194 ,37.8835 ,0.97267 ,2.17750 ,21.36564 
195 ,38.0755 ,0.97464 ,2.13986 ,20.99628 
196 ,38.2836 ,0.97672 ,2.14670 ,21.06344 
197 ,38.4595 ,0.97850 ,2.14328 ,21.02986 
198 ,38.6519 ,0.98040 ,2.10221 ,20.62692 
199 ,38.8597 ,0.98251 ,2.09195 ,20.52619 
200 ,39.0680 ,0.98455 ,2.07484 ,20.35829 
201 ,39.2598 ,0.98644 ,2.07826 ,20.39187 
202 ,39.4363 ,0.98827 ,2.04404 ,20.05609 
203 ,39.6604 ,0.99041 ,2.02693 ,19.88820 
204 ,39.8520 ,0.99236 ,2.00982 ,19.72031 
205 ,40.0445 ,0.99429 ,2.02008 ,19.82104 
206 ,40.2685 ,0.99646 ,1.97559 ,19.38452 
207 ,40.4446 ,0.99840 ,1.98928 ,19.51884 
208 ,40.6527 ,1.00041 ,1.95164 ,19.14948 
209 ,40.8607 ,1.00248 ,1.95164 ,19.14948 
210 ,41.0529 ,1.00439 ,1.91742 ,18.81369 
211 ,41.2610 ,1.00650 ,1.92084 ,18.84727 
212 ,41.4370 ,1.00826 ,1.90715 ,18.71296 
213 ,41.6291 ,1.01017 ,1.88319 ,18.47791 
214 ,41.8210 ,1.01210 ,1.89346 ,18.57864 
215 ,41.9807 ,1.01383 ,1.85582 ,18.20928 
216 ,42.3493 ,1.01641 ,1.85240 ,18.17570 
217 ,42.5574 ,1.01941 ,1.81475 ,17.80634 
218 ,42.7496 ,1.02134 ,1.80449 ,17.70561 
219 ,42.9575 ,1.02344 ,1.79422 ,17.60487 
220 ,43.1338 ,1.02522 ,1.77026 ,17.36983 
221 ,43.3419 ,1.02730 ,1.77026 ,17.36983 
222 ,43.5339 ,1.02915 ,1.75657 ,17.23551 
223 ,43.7419 ,1.03128 ,1.74631 ,17.13478 
224 ,43.9186 ,1.03310 ,1.71551 ,16.83257 
225 ,44.1097 ,1.03504 ,1.72578 ,16.93331 
226 ,44.2861 ,1.03675 ,1.69155 ,16.59752 
227 ,44.4943 ,1.03873 ,1.65733 ,16.26174 
228 ,44.6862 ,1.04071 ,1.67102 ,16.39605 
229 ,44.8784 ,1.04262 ,1.64022 ,16.09385 
230 ,45.0705 ,1.04457 ,1.63680 ,16.06027 
231 ,45.2626 ,1.04651 ,1.63338 ,16.02669 
232 ,45.4864 ,1.04870 ,1.61969 ,15.89238 
233 ,45.6787 ,1.05065 ,1.59231 ,15.62375 
234 ,45.8868 ,1.05272 ,1.58889 ,15.59018 
235 ,46.0950 ,1.05479 ,1.55809 ,15.28797 
236 ,46.2868 ,1.05670 ,1.56493 ,15.35513 
237 ,46.4631 ,1.05855 ,1.55124 ,15.22081 
238 ,46.6551 ,1.06037 ,1.51360 ,14.85145 
239 ,46.8632 ,1.06249 ,1.52729 ,14.98577 
240 ,47.0394 ,1.06426 ,1.49991 ,14.71714 
241 ,47.2471 ,1.06628 ,1.49991 ,14.71714 
242 ,47.4394 ,1.06820 ,1.46569 ,14.38136 
243 ,47.6315 ,1.07017 ,1.45885 ,14.31420 
244 ,47.8076 ,1.07196 ,1.44858 ,14.21346 
245 ,47.9996 ,1.07380 ,1.42805 ,14.01199 
246 ,48.1919 ,1.07569 ,1.42462 ,13.97842 
247 ,48.3839 ,1.07761 ,1.41778 ,13.91126 
248 ,48.5918 ,1.07977 ,1.39040 ,13.64263 
249 ,48.7997 ,1.08186 ,1.38014 ,13.54190 
250 ,48.9761 ,1.08371 ,1.38014 ,13.54190 
251 ,49.1518 ,1.08547 ,1.34934 ,13.23969 
252 ,49.3438 ,1.08726 ,1.34934 ,13.23969 
253 ,49.5361 ,1.08917 ,1.32196 ,12.97107 
254 ,49.7443 ,1.09130 ,1.31854 ,12.93749 
255 ,49.9520 ,1.09334 ,1.30485 ,12.80318 
256 ,50.1286 ,1.09516 ,1.28774 ,12.63528 
257 ,50.3367 ,1.09718 ,1.26378 ,12.40024 
258 ,50.5122 ,1.09906 ,1.27405 ,12.50097 
259 ,50.7048 ,1.10086 ,1.25009 ,12.26592 
260 ,50.9129 ,1.10296 ,1.22956 ,12.06445 
261 ,51.1048 ,1.10483 ,1.22956 ,12.06445 
262 ,51.2970 ,1.10681 ,1.22272 ,11.99730 
263 ,51.4889 ,1.10872 ,1.21587 ,11.93014 
264 ,51.6808 ,1.11061 ,1.18165 ,11.59436 
265 ,51.8732 ,1.11251 ,1.18850 ,11.66151 
266 ,52.0654 ,1.11446 ,1.16112 ,11.39289 
267 ,52.2570 ,1.11647 ,1.15085 ,11.29215 
268 ,52.4495 ,1.11835 ,1.14058 ,11.19142 
269 ,52.6412 ,1.12036 ,1.09952 ,10.78848 
270 ,52.8172 ,1.12207 ,1.09267 ,10.72132 
271 ,53.0095 ,1.12391 ,1.08241 ,10.62059 
272 ,53.2178 ,1.12598 ,1.07556 ,10.55343 
273 ,53.3935 ,1.12786 ,1.07556 ,10.55343 
274 ,53.5857 ,1.12965 ,1.06187 ,10.41912 
275 ,53.7779 ,1.13162 ,1.02765 ,10.08333 
276 ,53.9857 ,1.13370 ,1.02423 ,10.04976 
277 ,54.1781 ,1.13555 ,1.00028 ,9.81471 
278 ,54.3863 ,1.13768 ,1.01054 ,9.91544 
279 ,54.5940 ,1.13975 ,0.97974 ,9.61324 
280 ,54.7862 ,1.14166 ,0.97290 ,9.54608 
281 ,54.9945 ,1.14372 ,0.97632 ,9.57966 
282 ,55.2022 ,1.14584 ,0.93183 ,9.14314 
283 ,55.3946 ,1.14774 ,0.93525 ,9.17672 
284 ,55.6188 ,1.14997 ,0.90788 ,8.90809 
285 ,55.8104 ,1.15191 ,0.90788 ,8.90809 
286 ,56.0027 ,1.15382 ,0.87708 ,8.60589 
287 ,56.2109 ,1.15593 ,0.88734 ,8.70662 
288 ,56.4027 ,1.15781 ,0.84970 ,8.33726 
289 ,56.5951 ,1.15975 ,0.85997 ,8.43800 
290 ,56.8033 ,1.16188 ,0.82917 ,8.13579 
291 ,56.9949 ,1.16377 ,0.82917 ,8.13579 
292 ,57.2034 ,1.16586 ,0.80521 ,7.90074 
293 ,57.4115 ,1.16793 ,0.79837 ,7.83359 
294 ,57.6032 ,1.16981 ,0.77441 ,7.59854 
295 ,57.7954 ,1.17173 ,0.77099 ,7.56496 
296 ,57.9712 ,1.17361 ,0.75388 ,7.39707 
297 ,58.1634 ,1.17539 ,0.74019 ,7.26276 
298 ,58.3555 ,1.17733 ,0.73335 ,7.19560 
299 ,58.5479 ,1.17929 ,0.73335 ,7.19560 
300 ,58.7558 ,1.18133 ,0.70939 ,6.96055 
301 ,58.9316 ,1.18321 ,0.69913 ,6.85982 
302 ,59.1243 ,1.18507 ,0.67175 ,6.59119 
303 ,59.3319 ,1.18715 ,0.67517 ,6.62477 
304 ,59.5080 ,1.18897 ,0.64779 ,6.35614 
305 ,59.7002 ,1.19081 ,0.63753 ,6.25541 
306 ,59.9242 ,1.19298 ,0.63753 ,6.25541 
307 ,60.1164 ,1.19495 ,0.62384 ,6.12109 
308 ,60.3086 ,1.19690 ,0.60330 ,5.91962 
309 ,60.5165 ,1.19899 ,0.59646 ,5.85247 
310 ,60.7084 ,1.20084 ,0.59304 ,5.81889 
311 ,60.9010 ,1.20280 ,0.56566 ,5.55026 
312 ,61.1087 ,1.20498 ,0.54513 ,5.34879 
313 ,61.3008 ,1.20678 ,0.53486 ,5.24806 
314 ,61.4929 ,1.20868 ,0.53486 ,5.24806 
315 ,61.7010 ,1.21070 ,0.52459 ,5.14732 
316 ,61.8773 ,1.21270 ,0.50406 ,4.94585 
317 ,62.0854 ,1.21461 ,0.48695 ,4.77796 
318 ,62.2772 ,1.21651 ,0.50064 ,4.91228 
319 ,62.4696 ,1.21841 ,0.47668 ,4.67723 
320 ,62.6617 ,1.22040 ,0.43904 ,4.30787 
321 ,62.8539 ,1.22234 ,0.45615 ,4.47576 
322 ,63.0613 ,1.22442 ,0.41851 ,4.10640 
323 ,63.2696 ,1.22639 ,0.42535 ,4.17355 
324 ,63.4620 ,1.22843 ,0.40482 ,3.97208 
325 ,63.6541 ,1.23031 ,0.41509 ,4.07282 
326 ,63.8622 ,1.23242 ,0.37744 ,3.70346 
327 ,64.0542 ,1.23438 ,0.38086 ,3.73703 
328 ,64.2623 ,1.23642 ,0.35349 ,3.46841 
329 ,64.4538 ,1.23830 ,0.34664 ,3.40125 
330 ,64.6460 ,1.24021 ,0.33295 ,3.26694 
331 ,64.8384 ,1.24211 ,0.33980 ,3.33410 
332 ,65.0626 ,1.24440 ,0.30900 ,3.03189 
333 ,65.2707 ,1.24652 ,0.29873 ,2.93116 
334 ,65.4624 ,1.24840 ,0.27478 ,2.69611 
335 ,65.6389 ,1.25020 ,0.27478 ,2.69611 
336 ,65.8309 ,1.25213 ,0.25767 ,2.52822 
337 ,66.0386 ,1.25412 ,0.25767 ,2.52822 
338 ,66.2309 ,1.25614 ,0.25767 ,2.52822 
339 ,66.4231 ,1.25802 ,0.21660 ,2.12528 
340 ,66.5992 ,1.25982 ,0.21318 ,2.09170 
341 ,66.7912 ,1.26185 ,0.20633 ,2.02454 
342 ,66.9672 ,1.26347 ,0.20291 ,1.99096 
343 ,67.1753 ,1.26551 ,0.18922 ,1.85665 
344 ,67.3514 ,1.26734 ,0.19264 ,1.89023 
345 ,67.5273 ,1.26906 ,0.16185 ,1.58802 
346 ,67.7197 ,1.27093 ,0.15158 ,1.48729 
347 ,67.9283 ,1.27303 ,0.13789 ,1.35298 
348 ,68.1199 ,1.27495 ,0.13105 ,1.28582 
349 ,68.2957 ,1.27680 ,0.12420 ,1.21866 
350 ,68.4719 ,1.27852 ,0.13789 ,1.35298 
351 ,68.6640 ,1.28051 ,0.11736 ,1.15151 
352 ,68.8400 ,1.28218 ,0.08314 ,0.81572 
353 ,69.0322 ,1.28406 ,0.08656 ,0.84930 
354 ,69.2723 ,1.28632 ,0.07971 ,0.78214 
355 ,69.4962 ,1.28874 ,0.04207 ,0.41278 
356 ,69.6722 ,1.29055 ,0.05576 ,0.54710 
357 ,69.8644 ,1.29247 ,0.04549 ,0.44636 
358 ,70.0565 ,1.29428 ,0.04207 ,0.41278 
359 ,70.2326 ,1.29616 ,0.01127 ,0.11058 
360 ,70.4086 ,1.29791 ,0.00785 ,0.07700 
361 ,70.5847 ,1.29962 ,-0.01269 ,-0.12447 
362 ,70.7606 ,1.30138 ,-0.00242 ,-0.02373 
363 ,70.9529 ,1.30329 ,-0.00926 ,-0.09089 
364 ,71.1610 ,1.30530 ,-0.01611 ,-0.15805 
365 ,71.3532 ,1.30724 ,-0.03664 ,-0.35952 
366 ,71.5613 ,1.30940 ,-0.04691 ,-0.46025 
367 ,71.7533 ,1.31125 ,-0.05375 ,-0.52741 
368 ,71.9454 ,1.31332 ,-0.08113 ,-0.79604 
369 ,72.1373 ,1.31515 ,-0.08113 ,-0.79604 
370 ,72.3296 ,1.31705 ,-0.08455 ,-0.82961 
371 ,72.5375 ,1.31912 ,-0.09482 ,-0.93035 
372 ,72.7298 ,1.32107 ,-0.10166 ,-0.99751 
373 ,72.9054 ,1.32289 ,-0.11877 ,-1.16540 
374 ,73.1138 ,1.32477 ,-0.11877 ,-1.16540 
375 ,73.3056 ,1.32675 ,-0.14957 ,-1.46760 
376 ,73.4820 ,1.32862 ,-0.16326 ,-1.60191 
377 ,73.6740 ,1.33047 ,-0.15984 ,-1.56834 
378 ,73.8501 ,1.33231 ,-0.15299 ,-1.50118 
379 ,74.0260 ,1.33404 ,-0.16668 ,-1.63549 
380 ,74.2343 ,1.33605 ,-0.17011 ,-1.66907 
381 ,74.4261 ,1.33799 ,-0.20775 ,-2.03843 
382 ,74.6182 ,1.33993 ,-0.20775 ,-2.03843 
383 ,74.8104 ,1.34175 ,-0.22144 ,-2.17275 
384 ,75.0023 ,1.34375 ,-0.21802 ,-2.13917 
385 ,75.1942 ,1.34570 ,-0.23513 ,-2.30706 
386 ,75.3705 ,1.34747 ,-0.23513 ,-2.30706 
387 ,75.5627 ,1.34935 ,-0.26935 ,-2.64284 
388 ,75.7709 ,1.35140 ,-0.25566 ,-2.50853 
389 ,75.9790 ,1.35350 ,-0.27277 ,-2.67642 
390 ,76.1551 ,1.35537 ,-0.28646 ,-2.81073 
391 ,76.3311 ,1.35706 ,-0.27961 ,-2.74358 
392 ,76.5069 ,1.35882 ,-0.30015 ,-2.94505 
393 ,76.6991 ,1.36069 ,-0.29330 ,-2.87789 
394 ,76.8914 ,1.36264 ,-0.32752 ,-3.21367 
395 ,77.0835 ,1.36458 ,-0.33437 ,-3.28083 
396 ,77.2916 ,1.36668 ,-0.32752 ,-3.21367 
397 ,77.4996 ,1.36869 ,-0.33095 ,-3.24725 
398 ,77.6916 ,1.37058 ,-0.35490 ,-3.48230 
399 ,77.8838 ,1.37251 ,-0.37886 ,-3.71735 
400 ,78.0758 ,1.37445 ,-0.36175 ,-3.54946 
401 ,78.2516 ,1.37627 ,-0.38228 ,-3.75093 
402 ,78.4440 ,1.37812 ,-0.38228 ,-3.75093 
403 ,78.6363 ,1.38003 ,-0.39597 ,-3.88524 
404 ,78.8441 ,1.38214 ,-0.40966 ,-4.01955 
405 ,79.0202 ,1.38396 ,-0.41992 ,-4.12029 
406 ,79.1961 ,1.38570 ,-0.41992 ,-4.12029 
407 ,79.3882 ,1.38758 ,-0.45414 ,-4.45607 
408 ,79.5964 ,1.38971 ,-0.44046 ,-4.32176 
409 ,79.8046 ,1.39178 ,-0.47126 ,-4.62396 
410 ,80.0126 ,1.39383 ,-0.46783 ,-4.59038 
411 ,80.2208 ,1.39590 ,-0.47468 ,-4.65754 
412 ,80.4127 ,1.39794 ,-0.48837 ,-4.79185 
413 ,80.6049 ,1.39973 ,-0.50206 ,-4.92617 
414 ,80.8128 ,1.40185 ,-0.48152 ,-4.72470 
415 ,81.0049 ,1.40373 ,-0.51574 ,-5.06048 
416 ,81.1971 ,1.40568 ,-0.51574 ,-5.06048 
417 ,81.3892 ,1.40759 ,-0.51574 ,-5.06048 
418 ,81.5972 ,1.40969 ,-0.53285 ,-5.22837 
419 ,81.8053 ,1.41176 ,-0.57050 ,-5.59773 
420 ,81.9815 ,1.41358 ,-0.55681 ,-5.46342 
421 ,82.1895 ,1.41561 ,-0.56023 ,-5.49700 
422 ,82.3816 ,1.41749 ,-0.55339 ,-5.42984 
423 ,82.5736 ,1.41957 ,-0.58419 ,-5.73205 
424 ,82.7498 ,1.42126 ,-0.57392 ,-5.63131 
425 ,82.9418 ,1.42314 ,-0.58077 ,-5.69847 
426 ,83.1339 ,1.42514 ,-0.60130 ,-5.89994 
427 ,83.3262 ,1.42696 ,-0.60814 ,-5.96709 
428 ,83.5341 ,1.42893 ,-0.63210 ,-6.20214 
429 ,83.7422 ,1.43112 ,-0.63210 ,-6.20214 
430 ,83.9823 ,1.43339 ,-0.65947 ,-6.47077 
431 ,84.1582 ,1.43539 ,-0.63210 ,-6.20214 
432 ,84.3505 ,1.43727 ,-0.64921 ,-6.37003 
433 ,84.5426 ,1.43913 ,-0.65947 ,-6.47077 
434 ,84.7346 ,1.44104 ,-0.66290 ,-6.50435 
435 ,84.9266 ,1.44297 ,-0.69027 ,-6.77297 
436 ,85.1188 ,1.44488 ,-0.67659 ,-6.63866 
437 ,85.3107 ,1.44678 ,-0.71081 ,-6.97444 
438 ,85.5190 ,1.44883 ,-0.71081 ,-6.97444 
439 ,85.7107 ,1.45078 ,-0.73134 ,-7.17591 
440 ,85.9031 ,1.45272 ,-0.72107 ,-7.07518 
441 ,86.0953 ,1.45467 ,-0.73134 ,-7.17591 
442 ,86.3031 ,1.45668 ,-0.74845 ,-7.34380 
443 ,86.4954 ,1.45862 ,-0.75872 ,-7.44454 
444 ,86.6874 ,1.46057 ,-0.77241 ,-7.57885 
445 ,86.8635 ,1.46235 ,-0.78952 ,-7.74674 
446 ,87.0555 ,1.46422 ,-0.76898 ,-7.54527 
447 ,87.2637 ,1.46629 ,-0.79636 ,-7.81390 
448 ,87.4876 ,1.46853 ,-0.80663 ,-7.91464 
449 ,87.6798 ,1.47046 ,-0.79978 ,-7.84748 
450 ,87.8714 ,1.47241 ,-0.81005 ,-7.94821 
451 ,88.0479 ,1.47420 ,-0.82374 ,-8.08253 
452 ,88.2557 ,1.47621 ,-0.82032 ,-8.04895 
453 ,88.4640 ,1.47821 ,-0.83058 ,-8.14968 
454 ,88.6724 ,1.48026 ,-0.82032 ,-8.04895 
455 ,88.8644 ,1.48233 ,-0.85454 ,-8.38473 
456 ,89.0885 ,1.48449 ,-0.85112 ,-8.35115 
457 ,89.2964 ,1.48666 ,-0.86138 ,-8.45189 
458 ,89.4886 ,1.48853 ,-0.88534 ,-8.68694 
459 ,89.6807 ,1.49044 ,-0.88534 ,-8.68694 
460 ,89.8728 ,1.49245 ,-0.89903 ,-8.82125 
461 ,90.0647 ,1.49429 ,-0.90587 ,-8.88841 
462 ,90.2728 ,1.49640 ,-0.91956 ,-9.02272 
