Data stamp = , 11-04-2022 19:55:29 368

Calibration Values: 
Slope = , 26.54 , g/V 
Offset Voltage at no contact = , -0.501760 , V 

No , Time , Stage Position ,   Mass , Force 
   ,  (s) ,      (mm)      ,   (g)  , (mN)  

1 ,0.0000 ,0.59932 ,5.03501 ,49.40352 
2 ,0.2236 ,0.59939 ,5.03159 ,49.36995 
3 ,0.5602 ,0.60031 ,5.01790 ,49.23563 
4 ,0.7837 ,0.60203 ,5.02132 ,49.26921 
5 ,0.9762 ,0.60371 ,5.04185 ,49.47068 
6 ,1.1843 ,0.60580 ,5.01448 ,49.20205 
7 ,1.3604 ,0.60757 ,5.03843 ,49.43710 
8 ,1.5523 ,0.60940 ,5.02132 ,49.26921 
9 ,1.7287 ,0.61134 ,5.00763 ,49.13490 
10 ,1.9207 ,0.61318 ,5.00763 ,49.13490 
11 ,2.1288 ,0.61535 ,4.99052 ,48.96701 
12 ,2.3209 ,0.61720 ,4.99394 ,49.00058 
13 ,2.4970 ,0.61899 ,4.96999 ,48.76554 
14 ,2.7052 ,0.62102 ,4.95288 ,48.59764 
15 ,2.9449 ,0.62331 ,4.92208 ,48.29544 
16 ,3.1212 ,0.62523 ,4.93235 ,48.39618 
17 ,3.2972 ,0.62695 ,4.91181 ,48.19471 
18 ,3.4892 ,0.62886 ,4.88101 ,47.89250 
19 ,3.6973 ,0.63098 ,4.87417 ,47.82534 
20 ,3.8895 ,0.63294 ,4.84337 ,47.52314 
21 ,4.0815 ,0.63481 ,4.83995 ,47.48956 
22 ,4.2897 ,0.63678 ,4.82968 ,47.38883 
23 ,4.5299 ,0.63912 ,4.79888 ,47.08662 
24 ,4.7059 ,0.64111 ,4.80573 ,47.15378 
25 ,4.8980 ,0.64293 ,4.77150 ,46.81800 
26 ,5.0897 ,0.64488 ,4.74755 ,46.58295 
27 ,5.2661 ,0.64663 ,4.74070 ,46.51579 
28 ,5.4582 ,0.64860 ,4.72017 ,46.31432 
29 ,5.6503 ,0.65059 ,4.69964 ,46.11285 
30 ,5.8424 ,0.65231 ,4.67568 ,45.87780 
31 ,6.0506 ,0.65452 ,4.64831 ,45.60918 
32 ,6.2903 ,0.65679 ,4.64831 ,45.60918 
33 ,6.4665 ,0.65864 ,4.62777 ,45.40771 
34 ,6.6586 ,0.66054 ,4.62093 ,45.34055 
35 ,6.8348 ,0.66234 ,4.58328 ,44.97119 
36 ,7.0268 ,0.66427 ,4.60040 ,45.13908 
37 ,7.2027 ,0.66604 ,4.57986 ,44.93761 
38 ,7.3792 ,0.66782 ,4.56275 ,44.76972 
39 ,7.5551 ,0.66964 ,4.52169 ,44.36678 
40 ,7.7312 ,0.67132 ,4.51826 ,44.33320 
41 ,7.9073 ,0.67307 ,4.51142 ,44.26604 
42 ,8.0994 ,0.67494 ,4.48062 ,43.96384 
43 ,8.3075 ,0.67703 ,4.48746 ,44.03100 
44 ,8.4836 ,0.67883 ,4.46693 ,43.82953 
45 ,8.6914 ,0.68084 ,4.43955 ,43.56090 
46 ,8.8837 ,0.68284 ,4.44640 ,43.62806 
47 ,9.0758 ,0.68470 ,4.41560 ,43.32585 
48 ,9.2519 ,0.68657 ,4.40191 ,43.19154 
49 ,9.4440 ,0.68842 ,4.39164 ,43.09080 
50 ,9.6360 ,0.69033 ,4.37111 ,42.88933 
51 ,9.8282 ,0.69227 ,4.36769 ,42.85576 
52 ,10.0359 ,0.69426 ,4.33347 ,42.51997 
53 ,10.2122 ,0.69613 ,4.31978 ,42.38566 
54 ,10.3880 ,0.69789 ,4.31978 ,42.38566 
55 ,10.5805 ,0.69974 ,4.29582 ,42.15061 
56 ,10.7725 ,0.70173 ,4.28213 ,42.01630 
57 ,10.9646 ,0.70358 ,4.28213 ,42.01630 
58 ,11.1724 ,0.70554 ,4.25818 ,41.78125 
59 ,11.3648 ,0.70759 ,4.23080 ,41.51262 
60 ,11.5729 ,0.70967 ,4.18974 ,41.10968 
61 ,11.7810 ,0.71181 ,4.20000 ,41.21042 
62 ,11.9730 ,0.71366 ,4.17262 ,40.94179 
63 ,12.1812 ,0.71583 ,4.15209 ,40.74032 
64 ,12.3731 ,0.71766 ,4.15894 ,40.80748 
65 ,12.5493 ,0.71948 ,4.13840 ,40.60601 
66 ,12.7573 ,0.72150 ,4.11445 ,40.37096 
67 ,12.9654 ,0.72359 ,4.12129 ,40.43812 
68 ,13.1574 ,0.72551 ,4.08707 ,40.10233 
69 ,13.3655 ,0.72760 ,4.08023 ,40.03518 
70 ,13.5413 ,0.72945 ,4.05969 ,39.83371 
71 ,13.7338 ,0.73128 ,4.05285 ,39.76655 
72 ,13.9419 ,0.73321 ,4.02205 ,39.46435 
73 ,14.1498 ,0.73531 ,3.99809 ,39.22930 
74 ,14.3420 ,0.73736 ,3.98098 ,39.06141 
75 ,14.5342 ,0.73926 ,3.98441 ,39.09499 
76 ,14.7261 ,0.74115 ,3.94676 ,38.72562 
77 ,14.9342 ,0.74332 ,3.94334 ,38.69205 
78 ,15.1102 ,0.74512 ,3.95361 ,38.79278 
79 ,15.3184 ,0.74717 ,3.88516 ,38.12122 
80 ,15.5423 ,0.74921 ,3.89201 ,38.18837 
81 ,15.7179 ,0.75117 ,3.87832 ,38.05406 
82 ,15.8944 ,0.75294 ,3.87832 ,38.05406 
83 ,16.0863 ,0.75481 ,3.84752 ,37.75185 
84 ,16.2627 ,0.75659 ,3.83041 ,37.58396 
85 ,16.4548 ,0.75847 ,3.83041 ,37.58396 
86 ,16.6467 ,0.76035 ,3.80645 ,37.34891 
87 ,16.8068 ,0.76216 ,3.78934 ,37.18102 
88 ,16.9990 ,0.76391 ,3.78592 ,37.14744 
89 ,17.1907 ,0.76580 ,3.76881 ,36.97955 
90 ,17.3671 ,0.76762 ,3.75512 ,36.84524 
91 ,17.5912 ,0.76963 ,3.71748 ,36.47588 
92 ,17.7989 ,0.77191 ,3.70037 ,36.30799 
93 ,17.9914 ,0.77383 ,3.69694 ,36.27441 
94 ,18.1993 ,0.77589 ,3.65588 ,35.87147 
95 ,18.3752 ,0.77774 ,3.66272 ,35.93863 
96 ,18.5835 ,0.77975 ,3.63534 ,35.67000 
97 ,18.7755 ,0.78167 ,3.63192 ,35.63642 
98 ,18.9836 ,0.78380 ,3.60454 ,35.36779 
99 ,19.1918 ,0.78587 ,3.59086 ,35.23348 
100 ,19.3999 ,0.78790 ,3.57032 ,35.03201 
101 ,19.5920 ,0.78982 ,3.57032 ,35.03201 
102 ,19.7842 ,0.79172 ,3.54637 ,34.79696 
103 ,19.9759 ,0.79368 ,3.53268 ,34.66265 
104 ,20.1521 ,0.79549 ,3.52926 ,34.62907 
105 ,20.3442 ,0.79736 ,3.49161 ,34.25971 
106 ,20.5522 ,0.79947 ,3.49504 ,34.29329 
107 ,20.7444 ,0.80135 ,3.46766 ,34.02466 
108 ,20.9361 ,0.80327 ,3.46766 ,34.02466 
109 ,21.1126 ,0.80505 ,3.44028 ,33.75604 
110 ,21.3204 ,0.80714 ,3.40948 ,33.45383 
111 ,21.4966 ,0.80900 ,3.41290 ,33.48741 
112 ,21.6727 ,0.81071 ,3.41633 ,33.52099 
113 ,21.8646 ,0.81256 ,3.37526 ,33.11805 
114 ,22.0725 ,0.81463 ,3.38210 ,33.18520 
115 ,22.2651 ,0.81652 ,3.34104 ,32.78227 
116 ,22.4727 ,0.81869 ,3.34104 ,32.78227 
117 ,22.6492 ,0.82047 ,3.32393 ,32.61437 
118 ,22.8411 ,0.82229 ,3.29997 ,32.37933 
119 ,23.0494 ,0.82436 ,3.28628 ,32.24501 
120 ,23.2252 ,0.82627 ,3.25206 ,31.90923 
121 ,23.4175 ,0.82804 ,3.26575 ,32.04354 
122 ,23.6095 ,0.83003 ,3.23837 ,31.77492 
123 ,23.8173 ,0.83212 ,3.22126 ,31.60702 
124 ,23.9936 ,0.83388 ,3.21442 ,31.53987 
125 ,24.1854 ,0.83570 ,3.19388 ,31.33840 
126 ,24.3778 ,0.83766 ,3.19388 ,31.33840 
127 ,24.5539 ,0.83952 ,3.17335 ,31.13693 
128 ,24.7461 ,0.84136 ,3.12886 ,30.70041 
129 ,24.9542 ,0.84344 ,3.15966 ,31.00262 
130 ,25.1461 ,0.84535 ,3.09806 ,30.39821 
131 ,25.3382 ,0.84725 ,3.09806 ,30.39821 
132 ,25.5304 ,0.84916 ,3.08095 ,30.23031 
133 ,25.7385 ,0.85118 ,3.08095 ,30.23031 
134 ,25.9304 ,0.85319 ,3.03647 ,29.79380 
135 ,26.1386 ,0.85534 ,3.05358 ,29.96169 
136 ,26.2983 ,0.85706 ,3.04331 ,29.86095 
137 ,26.4907 ,0.85879 ,3.02620 ,29.69306 
138 ,26.6987 ,0.86075 ,3.00224 ,29.45801 
139 ,26.8747 ,0.86267 ,2.98171 ,29.25654 
140 ,27.0509 ,0.86445 ,2.97144 ,29.15581 
141 ,27.2590 ,0.86649 ,2.96460 ,29.08865 
142 ,27.4511 ,0.86841 ,2.94064 ,28.85360 
143 ,27.6592 ,0.87054 ,2.92696 ,28.71929 
144 ,27.8670 ,0.87258 ,2.90985 ,28.55140 
145 ,28.0434 ,0.87439 ,2.88247 ,28.28277 
146 ,28.2513 ,0.87643 ,2.88247 ,28.28277 
147 ,28.4432 ,0.87828 ,2.87220 ,28.18204 
148 ,28.6356 ,0.88025 ,2.84482 ,27.91341 
149 ,28.8438 ,0.88226 ,2.81745 ,27.64479 
150 ,29.0354 ,0.88421 ,2.81402 ,27.61121 
151 ,29.2118 ,0.88605 ,2.79007 ,27.37616 
152 ,29.3879 ,0.88778 ,2.78665 ,27.34258 
153 ,29.5640 ,0.88962 ,2.77296 ,27.20827 
154 ,29.7401 ,0.89132 ,2.76611 ,27.14111 
155 ,29.9161 ,0.89309 ,2.75585 ,27.04038 
156 ,30.1083 ,0.89492 ,2.73531 ,26.83891 
157 ,30.3003 ,0.89683 ,2.72847 ,26.77175 
158 ,30.4920 ,0.89883 ,2.71136 ,26.60386 
159 ,30.6841 ,0.90067 ,2.68740 ,26.36881 
160 ,30.8601 ,0.90261 ,2.67714 ,26.26807 
161 ,31.0526 ,0.90440 ,2.65318 ,26.03303 
162 ,31.2446 ,0.90641 ,2.64634 ,25.96587 
163 ,31.4208 ,0.90814 ,2.64634 ,25.96587 
164 ,31.6286 ,0.91021 ,2.61212 ,25.63009 
165 ,31.8208 ,0.91209 ,2.62238 ,25.73082 
166 ,32.0130 ,0.91399 ,2.58132 ,25.32788 
167 ,32.2048 ,0.91591 ,2.57789 ,25.29430 
168 ,32.3812 ,0.91772 ,2.57789 ,25.29430 
169 ,32.5573 ,0.91948 ,2.55394 ,25.05926 
170 ,32.7814 ,0.92166 ,2.52998 ,24.82421 
171 ,32.9734 ,0.92364 ,2.50261 ,24.55558 
172 ,33.1495 ,0.92540 ,2.49576 ,24.48842 
173 ,33.3417 ,0.92730 ,2.47865 ,24.32053 
174 ,33.5497 ,0.92943 ,2.45812 ,24.11906 
175 ,33.7414 ,0.93123 ,2.44785 ,24.01833 
176 ,33.9337 ,0.93320 ,2.42048 ,23.74970 
177 ,34.1099 ,0.93498 ,2.42732 ,23.81686 
178 ,34.3180 ,0.93706 ,2.40679 ,23.61539 
179 ,34.5422 ,0.93915 ,2.40336 ,23.58181 
180 ,34.7502 ,0.94138 ,2.35888 ,23.14529 
181 ,34.9261 ,0.94321 ,2.37941 ,23.34676 
182 ,35.1183 ,0.94506 ,2.34519 ,23.01098 
183 ,35.2942 ,0.94692 ,2.32808 ,22.84309 
184 ,35.4862 ,0.94878 ,2.32123 ,22.77593 
185 ,35.6626 ,0.95055 ,2.31097 ,22.67520 
186 ,35.8704 ,0.95257 ,2.27332 ,22.30584 
187 ,36.0627 ,0.95448 ,2.29728 ,22.54088 
188 ,36.2708 ,0.95662 ,2.24252 ,22.00363 
189 ,36.4629 ,0.95849 ,2.24252 ,22.00363 
190 ,36.6710 ,0.96062 ,2.22199 ,21.80216 
191 ,36.8630 ,0.96253 ,2.22541 ,21.83574 
192 ,37.0549 ,0.96449 ,2.20146 ,21.60069 
193 ,37.2470 ,0.96639 ,2.20146 ,21.60069 
194 ,37.4391 ,0.96823 ,2.16723 ,21.26491 
195 ,37.6152 ,0.97005 ,2.15012 ,21.09702 
196 ,37.8234 ,0.97210 ,2.15355 ,21.13059 
197 ,38.0312 ,0.97420 ,2.11248 ,20.72766 
198 ,38.2231 ,0.97610 ,2.12275 ,20.82839 
199 ,38.3996 ,0.97790 ,2.09537 ,20.55976 
200 ,38.6076 ,0.97990 ,2.09537 ,20.55976 
201 ,38.7998 ,0.98182 ,2.06457 ,20.25756 
202 ,39.0399 ,0.98414 ,2.05773 ,20.19040 
203 ,39.2319 ,0.98618 ,2.04404 ,20.05609 
204 ,39.4239 ,0.98812 ,2.03377 ,19.95535 
205 ,39.6001 ,0.98994 ,2.01324 ,19.75388 
206 ,39.7920 ,0.99184 ,1.98586 ,19.48526 
207 ,39.9842 ,0.99367 ,1.97559 ,19.38452 
208 ,40.1599 ,0.99555 ,1.95848 ,19.21663 
209 ,40.3682 ,0.99739 ,1.95164 ,19.14948 
210 ,40.5764 ,0.99958 ,1.93795 ,19.01516 
211 ,40.7845 ,1.00179 ,1.91057 ,18.74654 
212 ,40.9605 ,1.00351 ,1.91399 ,18.78011 
213 ,41.1687 ,1.00551 ,1.90715 ,18.71296 
214 ,41.3605 ,1.00746 ,1.85924 ,18.24286 
215 ,41.5688 ,1.00956 ,1.88662 ,18.51149 
216 ,41.7447 ,1.01131 ,1.84897 ,18.14213 
217 ,41.9210 ,1.01312 ,1.82844 ,17.94066 
218 ,42.1131 ,1.01494 ,1.83186 ,17.97423 
219 ,42.2888 ,1.01688 ,1.81475 ,17.80634 
220 ,42.4812 ,1.01866 ,1.78053 ,17.47056 
221 ,42.6733 ,1.02052 ,1.78395 ,17.50414 
222 ,42.8653 ,1.02246 ,1.76000 ,17.26909 
223 ,43.0735 ,1.02446 ,1.75657 ,17.23551 
224 ,43.2812 ,1.02663 ,1.74289 ,17.10120 
225 ,43.4896 ,1.02861 ,1.74289 ,17.10120 
226 ,43.6976 ,1.03081 ,1.71209 ,16.79899 
227 ,43.8897 ,1.03274 ,1.69498 ,16.63110 
228 ,44.0974 ,1.03473 ,1.67102 ,16.39605 
229 ,44.2734 ,1.03664 ,1.67786 ,16.46321 
230 ,44.4659 ,1.03845 ,1.65391 ,16.22816 
231 ,44.6740 ,1.04059 ,1.65049 ,16.19458 
232 ,44.8661 ,1.04244 ,1.65049 ,16.19458 
233 ,45.0743 ,1.04459 ,1.62311 ,15.92596 
234 ,45.2501 ,1.04645 ,1.59916 ,15.69091 
235 ,45.4261 ,1.04813 ,1.59231 ,15.62375 
236 ,45.6184 ,1.05001 ,1.56836 ,15.38871 
237 ,45.8428 ,1.05228 ,1.55124 ,15.22081 
238 ,46.0348 ,1.05415 ,1.55467 ,15.25439 
239 ,46.2430 ,1.05625 ,1.52729 ,14.98577 
240 ,46.4352 ,1.05816 ,1.53071 ,15.01934 
241 ,46.6590 ,1.06028 ,1.47938 ,14.51567 
242 ,46.8831 ,1.06263 ,1.46911 ,14.41493 
243 ,47.0752 ,1.06454 ,1.47938 ,14.51567 
244 ,47.2509 ,1.06645 ,1.45542 ,14.28062 
245 ,47.4436 ,1.06820 ,1.43147 ,14.04557 
246 ,47.6352 ,1.07027 ,1.41778 ,13.91126 
247 ,47.8115 ,1.07200 ,1.43147 ,14.04557 
248 ,48.0035 ,1.07384 ,1.40751 ,13.81053 
249 ,48.1797 ,1.07568 ,1.39040 ,13.64263 
250 ,48.3717 ,1.07747 ,1.38014 ,13.54190 
251 ,48.5638 ,1.07947 ,1.37329 ,13.47474 
252 ,48.7557 ,1.08132 ,1.35960 ,13.34043 
253 ,48.9639 ,1.08346 ,1.32538 ,13.00465 
254 ,49.1561 ,1.08535 ,1.33565 ,13.10538 
255 ,49.3641 ,1.08744 ,1.32196 ,12.97107 
256 ,49.5404 ,1.08929 ,1.31512 ,12.90391 
257 ,49.7320 ,1.09126 ,1.27405 ,12.50097 
258 ,49.9084 ,1.09292 ,1.27063 ,12.46739 
259 ,50.1004 ,1.09478 ,1.27405 ,12.50097 
260 ,50.2923 ,1.09672 ,1.24325 ,12.19877 
261 ,50.4686 ,1.09853 ,1.24325 ,12.19877 
262 ,50.6608 ,1.10037 ,1.23983 ,12.16519 
263 ,50.8528 ,1.10245 ,1.19534 ,11.72867 
264 ,51.0609 ,1.10446 ,1.21245 ,11.89656 
265 ,51.2529 ,1.10633 ,1.18507 ,11.62794 
266 ,51.4448 ,1.10822 ,1.18165 ,11.59436 
267 ,51.6210 ,1.11007 ,1.16796 ,11.46004 
268 ,51.8127 ,1.11187 ,1.13374 ,11.12426 
269 ,52.0053 ,1.11382 ,1.14743 ,11.25857 
270 ,52.2294 ,1.11611 ,1.12005 ,10.98995 
271 ,52.4214 ,1.11800 ,1.12690 ,11.05710 
272 ,52.6295 ,1.12013 ,1.09952 ,10.78848 
273 ,52.8056 ,1.12187 ,1.09610 ,10.75490 
274 ,53.0297 ,1.12399 ,1.07214 ,10.51985 
275 ,53.2218 ,1.12605 ,1.06530 ,10.45270 
276 ,53.4298 ,1.12810 ,1.03792 ,10.18407 
277 ,53.6381 ,1.13016 ,1.03450 ,10.15049 
278 ,53.8300 ,1.13210 ,1.00712 ,9.88186 
279 ,54.0219 ,1.13398 ,1.00370 ,9.84829 
280 ,54.2140 ,1.13592 ,1.00028 ,9.81471 
281 ,54.4222 ,1.13790 ,0.97974 ,9.61324 
282 ,54.6142 ,1.13990 ,0.96263 ,9.44535 
283 ,54.8222 ,1.14205 ,0.96605 ,9.47892 
284 ,55.0141 ,1.14392 ,0.94552 ,9.27745 
285 ,55.2065 ,1.14581 ,0.92157 ,9.04241 
286 ,55.4305 ,1.14807 ,0.91472 ,8.97525 
287 ,55.6227 ,1.15000 ,0.90103 ,8.84094 
288 ,55.8144 ,1.15191 ,0.86339 ,8.47158 
289 ,56.0068 ,1.15379 ,0.88392 ,8.67305 
290 ,56.1986 ,1.15573 ,0.85654 ,8.40442 
291 ,56.3746 ,1.15761 ,0.83259 ,8.16937 
292 ,56.5670 ,1.15946 ,0.85312 ,8.37084 
293 ,56.7750 ,1.16150 ,0.80863 ,7.93432 
294 ,56.9672 ,1.16345 ,0.81206 ,7.96790 
295 ,57.1430 ,1.16523 ,0.80863 ,7.93432 
296 ,57.3514 ,1.16714 ,0.78468 ,7.69927 
297 ,57.5434 ,1.16924 ,0.77441 ,7.59854 
298 ,57.7196 ,1.17104 ,0.77441 ,7.59854 
299 ,57.9116 ,1.17285 ,0.75730 ,7.43065 
300 ,58.1036 ,1.17476 ,0.74019 ,7.26276 
301 ,58.2957 ,1.17683 ,0.70939 ,6.96055 
302 ,58.4878 ,1.17864 ,0.74019 ,7.26276 
303 ,58.6799 ,1.18053 ,0.69570 ,6.82624 
304 ,58.8720 ,1.18247 ,0.68886 ,6.75908 
305 ,59.0800 ,1.18453 ,0.66148 ,6.49046 
306 ,59.2718 ,1.18655 ,0.64437 ,6.32256 
307 ,59.4642 ,1.18839 ,0.64437 ,6.32256 
308 ,59.6563 ,1.19037 ,0.62384 ,6.12109 
309 ,59.8484 ,1.19222 ,0.62042 ,6.08752 
310 ,60.0563 ,1.19435 ,0.60673 ,5.95320 
311 ,60.2484 ,1.19622 ,0.60330 ,5.91962 
312 ,60.4246 ,1.19802 ,0.59304 ,5.81889 
313 ,60.6328 ,1.20009 ,0.56908 ,5.58384 
314 ,60.8247 ,1.20199 ,0.54513 ,5.34879 
315 ,61.0328 ,1.20410 ,0.53828 ,5.28164 
316 ,61.2090 ,1.20594 ,0.55197 ,5.41595 
317 ,61.4006 ,1.20775 ,0.51433 ,5.04659 
318 ,61.5771 ,1.20958 ,0.49722 ,4.87870 
319 ,61.7692 ,1.21142 ,0.52802 ,5.18090 
320 ,61.9768 ,1.21359 ,0.48353 ,4.74438 
321 ,62.2013 ,1.21556 ,0.46642 ,4.57649 
322 ,62.3934 ,1.21770 ,0.46300 ,4.54291 
323 ,62.6013 ,1.21970 ,0.46642 ,4.57649 
324 ,62.8096 ,1.22191 ,0.45615 ,4.47576 
325 ,62.9854 ,1.22366 ,0.42193 ,4.13997 
326 ,63.1617 ,1.22541 ,0.41851 ,4.10640 
327 ,63.3379 ,1.22719 ,0.40824 ,4.00566 
328 ,63.5459 ,1.22914 ,0.38771 ,3.80419 
329 ,63.7220 ,1.23102 ,0.37060 ,3.63630 
330 ,63.9301 ,1.23311 ,0.38429 ,3.77061 
331 ,64.1220 ,1.23493 ,0.35006 ,3.43483 
332 ,64.2982 ,1.23679 ,0.34664 ,3.40125 
333 ,64.4901 ,1.23866 ,0.34322 ,3.36767 
334 ,64.6662 ,1.24042 ,0.32611 ,3.19978 
335 ,64.8744 ,1.24249 ,0.31926 ,3.13263 
336 ,65.0986 ,1.24459 ,0.29873 ,2.93116 
337 ,65.3064 ,1.24678 ,0.27478 ,2.69611 
338 ,65.4988 ,1.24864 ,0.28162 ,2.76326 
339 ,65.7228 ,1.25096 ,0.24740 ,2.42748 
340 ,65.9149 ,1.25284 ,0.26109 ,2.56179 
341 ,66.1230 ,1.25500 ,0.23371 ,2.29317 
342 ,66.3311 ,1.25705 ,0.23371 ,2.29317 
343 ,66.5231 ,1.25893 ,0.20976 ,2.05812 
344 ,66.7469 ,1.26114 ,0.20976 ,2.05812 
345 ,66.9392 ,1.26310 ,0.17896 ,1.75592 
346 ,67.1314 ,1.26503 ,0.18922 ,1.85665 
347 ,67.3394 ,1.26714 ,0.16185 ,1.58802 
348 ,67.5154 ,1.26892 ,0.16185 ,1.58802 
349 ,67.7075 ,1.27078 ,0.13789 ,1.35298 
350 ,67.9156 ,1.27291 ,0.15500 ,1.52087 
351 ,68.1237 ,1.27501 ,0.13105 ,1.28582 
352 ,68.2834 ,1.27673 ,0.11393 ,1.11793 
353 ,68.4599 ,1.27838 ,0.09340 ,0.91646 
354 ,68.6680 ,1.28042 ,0.09682 ,0.95004 
355 ,68.8437 ,1.28227 ,0.09340 ,0.91646 
356 ,69.0359 ,1.28406 ,0.07629 ,0.74857 
357 ,69.2281 ,1.28596 ,0.06260 ,0.61425 
358 ,69.4043 ,1.28779 ,0.04891 ,0.47994 
359 ,69.6283 ,1.29001 ,0.05576 ,0.54710 
360 ,69.8204 ,1.29192 ,0.04549 ,0.44636 
361 ,70.0283 ,1.29406 ,0.01811 ,0.17773 
362 ,70.2045 ,1.29580 ,0.00443 ,0.04342 
363 ,70.4125 ,1.29790 ,0.00785 ,0.07700 
364 ,70.6046 ,1.29973 ,-0.01611 ,-0.15805 
365 ,70.7966 ,1.30168 ,0.00100 ,0.00984 
366 ,70.9724 ,1.30355 ,-0.05033 ,-0.49383 
367 ,71.1649 ,1.30536 ,-0.03664 ,-0.35952 
368 ,71.3890 ,1.30766 ,-0.06402 ,-0.62814 
369 ,71.5970 ,1.30969 ,-0.05375 ,-0.52741 
370 ,71.8212 ,1.31170 ,-0.07428 ,-0.72888 
371 ,72.0131 ,1.31387 ,-0.07086 ,-0.69530 
372 ,72.2213 ,1.31585 ,-0.10508 ,-1.03108 
373 ,72.4295 ,1.31805 ,-0.09824 ,-0.96393 
374 ,72.6373 ,1.31999 ,-0.10508 ,-1.03108 
375 ,72.8455 ,1.32219 ,-0.13246 ,-1.29971 
376 ,73.0376 ,1.32404 ,-0.13246 ,-1.29971 
377 ,73.2456 ,1.32622 ,-0.15642 ,-1.53476 
378 ,73.4537 ,1.32823 ,-0.15642 ,-1.53476 
379 ,73.6298 ,1.33006 ,-0.18037 ,-1.76981 
380 ,73.8057 ,1.33180 ,-0.18722 ,-1.83696 
381 ,74.0140 ,1.33388 ,-0.18037 ,-1.76981 
382 ,74.1896 ,1.33565 ,-0.20090 ,-1.97128 
383 ,74.3821 ,1.33751 ,-0.20090 ,-1.97128 
384 ,74.5739 ,1.33948 ,-0.20433 ,-2.00485 
385 ,74.7504 ,1.34126 ,-0.22828 ,-2.23990 
386 ,74.9582 ,1.34323 ,-0.24197 ,-2.37422 
387 ,75.1344 ,1.34512 ,-0.24197 ,-2.37422 
388 ,75.3423 ,1.34710 ,-0.24197 ,-2.37422 
389 ,75.5507 ,1.34906 ,-0.26935 ,-2.64284 
390 ,75.7588 ,1.35131 ,-0.26250 ,-2.57569 
391 ,75.9509 ,1.35321 ,-0.28304 ,-2.77716 
392 ,76.1588 ,1.35524 ,-0.29330 ,-2.87789 
393 ,76.3349 ,1.35710 ,-0.30357 ,-2.97863 
394 ,76.5111 ,1.35885 ,-0.31384 ,-3.07936 
395 ,76.7031 ,1.36070 ,-0.30015 ,-2.94505 
396 ,76.8790 ,1.36257 ,-0.32410 ,-3.18010 
397 ,77.0549 ,1.36435 ,-0.34121 ,-3.34799 
398 ,77.2313 ,1.36607 ,-0.34464 ,-3.38156 
399 ,77.4073 ,1.36786 ,-0.35490 ,-3.48230 
400 ,77.6153 ,1.36972 ,-0.36175 ,-3.54946 
401 ,77.8076 ,1.37174 ,-0.35490 ,-3.48230 
402 ,78.0154 ,1.37383 ,-0.38912 ,-3.81808 
403 ,78.2078 ,1.37574 ,-0.37886 ,-3.71735 
404 ,78.3995 ,1.37767 ,-0.38228 ,-3.75093 
405 ,78.5919 ,1.37959 ,-0.41650 ,-4.08671 
406 ,78.7998 ,1.38170 ,-0.41992 ,-4.12029 
407 ,78.9761 ,1.38351 ,-0.43019 ,-4.22102 
408 ,79.1681 ,1.38533 ,-0.41650 ,-4.08671 
409 ,79.3762 ,1.38751 ,-0.45414 ,-4.45607 
410 ,79.5522 ,1.38930 ,-0.46441 ,-4.55681 
411 ,79.7445 ,1.39111 ,-0.46099 ,-4.52323 
412 ,79.9523 ,1.39319 ,-0.46783 ,-4.59038 
413 ,80.1125 ,1.39497 ,-0.46441 ,-4.55681 
414 ,80.3205 ,1.39683 ,-0.49863 ,-4.89259 
415 ,80.4965 ,1.39867 ,-0.49863 ,-4.89259 
416 ,80.7047 ,1.40070 ,-0.49521 ,-4.85901 
417 ,80.9129 ,1.40278 ,-0.52259 ,-5.12764 
418 ,81.0887 ,1.40468 ,-0.50548 ,-4.95975 
419 ,81.2970 ,1.40660 ,-0.54997 ,-5.39626 
420 ,81.4891 ,1.40851 ,-0.51574 ,-5.06048 
421 ,81.6811 ,1.41062 ,-0.54997 ,-5.39626 
422 ,81.8731 ,1.41234 ,-0.55339 ,-5.42984 
423 ,82.0812 ,1.41440 ,-0.56708 ,-5.56415 
424 ,82.2732 ,1.41651 ,-0.55339 ,-5.42984 
425 ,82.4493 ,1.41823 ,-0.58761 ,-5.76562 
426 ,82.6416 ,1.42010 ,-0.60814 ,-5.96709 
427 ,82.8496 ,1.42218 ,-0.58761 ,-5.76562 
428 ,83.0418 ,1.42409 ,-0.61156 ,-6.00067 
429 ,83.2496 ,1.42607 ,-0.61499 ,-6.03425 
430 ,83.4579 ,1.42819 ,-0.62525 ,-6.13499 
431 ,83.6658 ,1.43037 ,-0.62525 ,-6.13499 
432 ,83.8418 ,1.43224 ,-0.65605 ,-6.43719 
433 ,84.0340 ,1.43402 ,-0.65263 ,-6.40361 
434 ,84.2260 ,1.43590 ,-0.65605 ,-6.43719 
435 ,84.4503 ,1.43816 ,-0.65263 ,-6.40361 
436 ,84.6263 ,1.44002 ,-0.66974 ,-6.57150 
437 ,84.8019 ,1.44180 ,-0.69027 ,-6.77297 
438 ,84.9940 ,1.44365 ,-0.69712 ,-6.84013 
439 ,85.1864 ,1.44553 ,-0.68343 ,-6.70582 
440 ,85.3948 ,1.44764 ,-0.71765 ,-7.04160 
441 ,85.5867 ,1.44955 ,-0.71081 ,-6.97444 
442 ,85.7789 ,1.45148 ,-0.74503 ,-7.31023 
443 ,86.0029 ,1.45365 ,-0.73134 ,-7.17591 
444 ,86.2270 ,1.45587 ,-0.72450 ,-7.10876 
445 ,86.4191 ,1.45785 ,-0.77241 ,-7.57885 
446 ,86.6112 ,1.45979 ,-0.74161 ,-7.27665 
447 ,86.8032 ,1.46168 ,-0.78267 ,-7.67959 
448 ,87.0113 ,1.46381 ,-0.78267 ,-7.67959 
449 ,87.2033 ,1.46573 ,-0.79636 ,-7.81390 
450 ,87.3954 ,1.46763 ,-0.80321 ,-7.88106 
451 ,87.5875 ,1.46952 ,-0.78610 ,-7.71317 
452 ,87.7795 ,1.47143 ,-0.82032 ,-8.04895 
453 ,87.9717 ,1.47336 ,-0.80321 ,-7.88106 
454 ,88.1637 ,1.47529 ,-0.82716 ,-8.11611 
455 ,88.3718 ,1.47741 ,-0.83401 ,-8.18326 
456 ,88.5639 ,1.47932 ,-0.84769 ,-8.31758 
457 ,88.7720 ,1.48140 ,-0.82716 ,-8.11611 
458 ,88.9640 ,1.48328 ,-0.86481 ,-8.48547 
459 ,89.1719 ,1.48534 ,-0.86823 ,-8.51904 
460 ,89.3641 ,1.48725 ,-0.88534 ,-8.68694 
461 ,89.5562 ,1.48920 ,-0.89560 ,-8.78767 
462 ,89.7483 ,1.49111 ,-0.89218 ,-8.75409 
463 ,89.9562 ,1.49319 ,-0.90587 ,-8.88841 
