Data stamp = , 12-04-2022 18:08:14 287

Calibration Values: 
Slope = , 26.54 , g/V 
Offset Voltage at no contact = , -0.501760 , V 

No , Time , Stage Position ,   Mass , Force 
   ,  (s) ,      (mm)      ,   (g)  , (mN)  

1 ,0.0000 ,0.54932 ,5.42514 ,53.23145 
2 ,0.2202 ,0.54941 ,5.41487 ,53.13072 
3 ,0.6848 ,0.55080 ,5.41145 ,53.09714 
4 ,0.8929 ,0.55298 ,5.42172 ,53.19787 
5 ,1.0848 ,0.55483 ,5.40118 ,52.99640 
6 ,1.2766 ,0.55679 ,5.41487 ,53.13072 
7 ,1.4531 ,0.55855 ,5.40803 ,53.06356 
8 ,1.6453 ,0.56050 ,5.38407 ,52.82851 
9 ,1.8372 ,0.56240 ,5.40803 ,53.06356 
10 ,2.0134 ,0.56418 ,5.38407 ,52.82851 
11 ,2.1894 ,0.56600 ,5.36696 ,52.66062 
12 ,2.3655 ,0.56782 ,5.34643 ,52.45915 
13 ,2.5416 ,0.56953 ,5.31905 ,52.19052 
14 ,2.7337 ,0.57139 ,5.31563 ,52.15694 
15 ,2.9256 ,0.57326 ,5.28483 ,51.85474 
16 ,3.1182 ,0.57517 ,5.28141 ,51.82116 
17 ,3.2938 ,0.57699 ,5.25745 ,51.58611 
18 ,3.4695 ,0.57877 ,5.25061 ,51.51896 
19 ,3.6617 ,0.58068 ,5.20612 ,51.08244 
20 ,3.8702 ,0.58269 ,5.20612 ,51.08244 
21 ,4.0621 ,0.58465 ,5.18559 ,50.88097 
22 ,4.2541 ,0.58662 ,5.18559 ,50.88097 
23 ,4.4302 ,0.58843 ,5.15479 ,50.57876 
24 ,4.5899 ,0.59012 ,5.13425 ,50.37729 
25 ,4.7663 ,0.59174 ,5.12399 ,50.27656 
26 ,4.9426 ,0.59349 ,5.10003 ,50.04151 
27 ,5.1508 ,0.59560 ,5.08977 ,49.94078 
28 ,5.3427 ,0.59742 ,5.06581 ,49.70573 
29 ,5.5348 ,0.59938 ,5.06923 ,49.73931 
30 ,5.6949 ,0.60114 ,5.04185 ,49.47068 
31 ,5.8868 ,0.60289 ,5.00763 ,49.13490 
32 ,6.0631 ,0.60470 ,4.99052 ,48.96701 
33 ,6.2711 ,0.60669 ,4.99394 ,49.00058 
34 ,6.4632 ,0.60870 ,4.96657 ,48.73196 
35 ,6.6548 ,0.61063 ,4.95972 ,48.66480 
36 ,6.8313 ,0.61239 ,4.95630 ,48.63122 
37 ,7.0075 ,0.61416 ,4.92550 ,48.32902 
38 ,7.1995 ,0.61605 ,4.91523 ,48.22828 
39 ,7.3756 ,0.61787 ,4.89470 ,48.02681 
40 ,7.5518 ,0.61962 ,4.88101 ,47.89250 
41 ,7.7276 ,0.62137 ,4.87417 ,47.82534 
42 ,7.9194 ,0.62321 ,4.85021 ,47.59030 
43 ,8.1120 ,0.62515 ,4.84679 ,47.55672 
44 ,8.3199 ,0.62723 ,4.80915 ,47.18736 
45 ,8.4960 ,0.62902 ,4.80230 ,47.12020 
46 ,8.6719 ,0.63080 ,4.79546 ,47.05304 
47 ,8.8477 ,0.63256 ,4.76124 ,46.71726 
48 ,9.0238 ,0.63428 ,4.75439 ,46.65010 
49 ,9.1999 ,0.63606 ,4.72702 ,46.38148 
50 ,9.3924 ,0.63788 ,4.71675 ,46.28074 
51 ,9.6005 ,0.63998 ,4.69964 ,46.11285 
52 ,9.8086 ,0.64204 ,4.69279 ,46.04569 
53 ,9.9842 ,0.64401 ,4.65515 ,45.67633 
54 ,10.1607 ,0.64570 ,4.64146 ,45.54202 
55 ,10.3528 ,0.64758 ,4.65857 ,45.70991 
56 ,10.5287 ,0.64940 ,4.61408 ,45.27339 
57 ,10.7050 ,0.65119 ,4.60382 ,45.17266 
58 ,10.8808 ,0.65290 ,4.57302 ,44.87045 
59 ,11.0409 ,0.65459 ,4.56275 ,44.76972 
60 ,11.2173 ,0.65618 ,4.55591 ,44.70256 
61 ,11.4252 ,0.65825 ,4.54222 ,44.56825 
62 ,11.6013 ,0.66007 ,4.51484 ,44.29962 
63 ,11.7934 ,0.66193 ,4.51826 ,44.33320 
64 ,11.9695 ,0.66373 ,4.51142 ,44.26604 
65 ,12.1613 ,0.66562 ,4.47720 ,43.93026 
66 ,12.3535 ,0.66765 ,4.46693 ,43.82953 
67 ,12.5294 ,0.66935 ,4.45666 ,43.72879 
68 ,12.7058 ,0.67110 ,4.44640 ,43.62806 
69 ,12.9143 ,0.67306 ,4.41560 ,43.32585 
70 ,13.0895 ,0.67497 ,4.40533 ,43.22512 
71 ,13.2658 ,0.67670 ,4.38822 ,43.05723 
72 ,13.4581 ,0.67857 ,4.36427 ,42.82218 
73 ,13.6340 ,0.68039 ,4.35742 ,42.75502 
74 ,13.8103 ,0.68219 ,4.35400 ,42.72144 
75 ,14.0183 ,0.68416 ,4.33004 ,42.48639 
76 ,14.1944 ,0.68597 ,4.30609 ,42.25135 
77 ,14.3863 ,0.68789 ,4.30609 ,42.25135 
78 ,14.5622 ,0.68969 ,4.29582 ,42.15061 
79 ,14.7387 ,0.69139 ,4.25818 ,41.78125 
80 ,14.9307 ,0.69343 ,4.25818 ,41.78125 
81 ,15.1067 ,0.69512 ,4.24107 ,41.61336 
82 ,15.2828 ,0.69690 ,4.22396 ,41.44547 
83 ,15.4589 ,0.69868 ,4.21369 ,41.34473 
84 ,15.6511 ,0.70057 ,4.17947 ,41.00895 
85 ,15.8431 ,0.70251 ,4.18974 ,41.10968 
86 ,16.0353 ,0.70433 ,4.14867 ,40.70674 
87 ,16.2272 ,0.70629 ,4.15209 ,40.74032 
88 ,16.4193 ,0.70817 ,4.12129 ,40.43812 
89 ,16.5951 ,0.71000 ,4.10760 ,40.30380 
90 ,16.7873 ,0.71186 ,4.10076 ,40.23665 
91 ,16.9634 ,0.71366 ,4.09049 ,40.13591 
92 ,17.1394 ,0.71540 ,4.06312 ,39.86729 
93 ,17.3154 ,0.71718 ,4.03916 ,39.63224 
94 ,17.5077 ,0.71904 ,4.01863 ,39.43077 
95 ,17.6997 ,0.72104 ,4.02547 ,39.49793 
96 ,17.8918 ,0.72289 ,4.01520 ,39.39719 
97 ,18.0839 ,0.72480 ,3.99809 ,39.22930 
98 ,18.2600 ,0.72665 ,3.98441 ,39.09499 
99 ,18.4360 ,0.72837 ,3.96387 ,38.89352 
100 ,18.6122 ,0.73015 ,3.93992 ,38.65847 
101 ,18.8204 ,0.73219 ,3.92281 ,38.49058 
102 ,19.0122 ,0.73417 ,3.90227 ,38.28911 
103 ,19.1884 ,0.73588 ,3.90570 ,38.32268 
104 ,19.3964 ,0.73793 ,3.87147 ,37.98690 
105 ,19.5725 ,0.73975 ,3.85436 ,37.81901 
106 ,19.7486 ,0.74153 ,3.84067 ,37.68470 
107 ,19.9565 ,0.74353 ,3.82014 ,37.48323 
108 ,20.1327 ,0.74531 ,3.81672 ,37.44965 
109 ,20.3090 ,0.74714 ,3.79619 ,37.24818 
110 ,20.5006 ,0.74897 ,3.81672 ,37.44965 
111 ,20.6770 ,0.75077 ,3.77908 ,37.08029 
112 ,20.8691 ,0.75274 ,3.75170 ,36.81166 
113 ,21.0612 ,0.75466 ,3.75170 ,36.81166 
114 ,21.2692 ,0.75665 ,3.72090 ,36.50946 
115 ,21.4453 ,0.75847 ,3.72774 ,36.57661 
116 ,21.6534 ,0.76051 ,3.69352 ,36.24083 
117 ,21.8294 ,0.76232 ,3.67983 ,36.10652 
118 ,22.0055 ,0.76408 ,3.67983 ,36.10652 
119 ,22.1972 ,0.76592 ,3.66957 ,36.00578 
120 ,22.3897 ,0.76780 ,3.63192 ,35.63642 
121 ,22.5978 ,0.76992 ,3.62508 ,35.56926 
122 ,22.7899 ,0.77188 ,3.59770 ,35.30064 
123 ,22.9978 ,0.77392 ,3.58743 ,35.19990 
124 ,23.1739 ,0.77576 ,3.58743 ,35.19990 
125 ,23.3498 ,0.77752 ,3.56348 ,34.96485 
126 ,23.5258 ,0.77924 ,3.55321 ,34.86412 
127 ,23.7180 ,0.78115 ,3.55663 ,34.89770 
128 ,23.8944 ,0.78294 ,3.53610 ,34.69623 
129 ,24.0862 ,0.78489 ,3.50188 ,34.36045 
130 ,24.2785 ,0.78676 ,3.49504 ,34.29329 
131 ,24.4706 ,0.78861 ,3.45739 ,33.92393 
132 ,24.6626 ,0.79065 ,3.46424 ,33.99108 
133 ,24.8386 ,0.79241 ,3.45739 ,33.92393 
134 ,25.0147 ,0.79412 ,3.43686 ,33.72246 
135 ,25.1907 ,0.79591 ,3.41290 ,33.48741 
136 ,25.3989 ,0.79788 ,3.40606 ,33.42025 
137 ,25.5751 ,0.79976 ,3.39921 ,33.35310 
138 ,25.7512 ,0.80151 ,3.38553 ,33.21878 
139 ,25.9271 ,0.80339 ,3.35473 ,32.91658 
140 ,26.1033 ,0.80504 ,3.33077 ,32.68153 
141 ,26.2954 ,0.80687 ,3.33077 ,32.68153 
142 ,26.5035 ,0.80903 ,3.31024 ,32.48006 
143 ,26.6956 ,0.81088 ,3.30339 ,32.41290 
144 ,26.8874 ,0.81285 ,3.27602 ,32.14428 
145 ,27.0797 ,0.81472 ,3.27602 ,32.14428 
146 ,27.2876 ,0.81680 ,3.25891 ,31.97639 
147 ,27.4637 ,0.81861 ,3.23153 ,31.70776 
148 ,27.6399 ,0.82040 ,3.23837 ,31.77492 
149 ,27.8158 ,0.82215 ,3.22126 ,31.60702 
150 ,27.9916 ,0.82393 ,3.20073 ,31.40555 
151 ,28.1681 ,0.82568 ,3.18020 ,31.20409 
152 ,28.3599 ,0.82757 ,3.17335 ,31.13693 
153 ,28.5363 ,0.82933 ,3.16309 ,31.03619 
154 ,28.7601 ,0.83143 ,3.12886 ,30.70041 
155 ,28.9524 ,0.83355 ,3.14597 ,30.86830 
156 ,29.1282 ,0.83525 ,3.11518 ,30.56610 
157 ,29.3205 ,0.83716 ,3.10149 ,30.43178 
158 ,29.4966 ,0.83895 ,3.08780 ,30.29747 
159 ,29.6887 ,0.84081 ,3.07069 ,30.12958 
160 ,29.8807 ,0.84276 ,3.05358 ,29.96169 
161 ,30.0884 ,0.84487 ,3.04673 ,29.89453 
162 ,30.2648 ,0.84665 ,3.00909 ,29.52517 
163 ,30.4729 ,0.84866 ,3.00909 ,29.52517 
164 ,30.6806 ,0.85076 ,2.98855 ,29.32370 
165 ,30.8570 ,0.85252 ,2.97829 ,29.22297 
166 ,31.0330 ,0.85432 ,2.97144 ,29.15581 
167 ,31.2250 ,0.85617 ,2.94749 ,28.92076 
168 ,31.4178 ,0.85817 ,2.93380 ,28.78645 
169 ,31.6255 ,0.86018 ,2.91327 ,28.58498 
170 ,31.8333 ,0.86222 ,2.89616 ,28.41709 
171 ,32.0095 ,0.86413 ,2.90300 ,28.48424 
172 ,32.2174 ,0.86608 ,2.89616 ,28.41709 
173 ,32.4098 ,0.86797 ,2.86193 ,28.08130 
174 ,32.6016 ,0.87002 ,2.82771 ,27.74552 
175 ,32.7939 ,0.87185 ,2.83456 ,27.81268 
176 ,32.9858 ,0.87380 ,2.81060 ,27.57763 
177 ,33.1780 ,0.87566 ,2.79007 ,27.37616 
178 ,33.3699 ,0.87768 ,2.80034 ,27.47689 
179 ,33.5460 ,0.87940 ,2.79007 ,27.37616 
180 ,33.7541 ,0.88147 ,2.76611 ,27.14111 
181 ,33.9624 ,0.88345 ,2.72847 ,26.77175 
182 ,34.1383 ,0.88535 ,2.71820 ,26.67101 
183 ,34.3146 ,0.88713 ,2.71478 ,26.63744 
184 ,34.4906 ,0.88891 ,2.71136 ,26.60386 
185 ,34.6987 ,0.89086 ,2.67714 ,26.26807 
186 ,34.8907 ,0.89290 ,2.68398 ,26.33523 
187 ,35.0827 ,0.89471 ,2.64634 ,25.96587 
188 ,35.2589 ,0.89650 ,2.63949 ,25.89871 
189 ,35.4189 ,0.89828 ,2.63265 ,25.83156 
190 ,35.5951 ,0.89994 ,2.61554 ,25.66367 
191 ,35.8032 ,0.90195 ,2.60185 ,25.52935 
192 ,35.9952 ,0.90385 ,2.59158 ,25.42862 
193 ,36.2033 ,0.90593 ,2.56078 ,25.12641 
194 ,36.3794 ,0.90772 ,2.54710 ,24.99210 
195 ,36.5555 ,0.90957 ,2.55736 ,25.09283 
196 ,36.7316 ,0.91122 ,2.53341 ,24.85779 
197 ,36.9236 ,0.91313 ,2.50945 ,24.62274 
198 ,37.0997 ,0.91500 ,2.49576 ,24.48842 
199 ,37.3078 ,0.91695 ,2.49576 ,24.48842 
200 ,37.4837 ,0.91880 ,2.47181 ,24.25338 
201 ,37.6599 ,0.92058 ,2.45470 ,24.08549 
202 ,37.8520 ,0.92247 ,2.45470 ,24.08549 
203 ,38.0440 ,0.92431 ,2.43416 ,23.88402 
204 ,38.2202 ,0.92619 ,2.41363 ,23.68255 
205 ,38.3959 ,0.92794 ,2.39994 ,23.54823 
206 ,38.5882 ,0.92988 ,2.39652 ,23.51465 
207 ,38.7641 ,0.93166 ,2.37256 ,23.27961 
208 ,38.9562 ,0.93349 ,2.35545 ,23.11171 
209 ,39.1324 ,0.93524 ,2.35203 ,23.07814 
210 ,39.3244 ,0.93716 ,2.35203 ,23.07814 
211 ,39.5006 ,0.93900 ,2.33150 ,22.87667 
212 ,39.6765 ,0.94076 ,2.31439 ,22.70877 
213 ,39.8527 ,0.94250 ,2.28359 ,22.40657 
214 ,40.0447 ,0.94437 ,2.29728 ,22.54088 
215 ,40.2209 ,0.94613 ,2.26990 ,22.27226 
216 ,40.4290 ,0.94817 ,2.26990 ,22.27226 
217 ,40.6209 ,0.95011 ,2.24937 ,22.07079 
218 ,40.7967 ,0.95186 ,2.22199 ,21.80216 
219 ,40.9732 ,0.95369 ,2.20830 ,21.66785 
220 ,41.1813 ,0.95565 ,2.22541 ,21.83574 
221 ,41.3734 ,0.95767 ,2.17750 ,21.36564 
222 ,41.5654 ,0.95960 ,2.18092 ,21.39922 
223 ,41.7416 ,0.96133 ,2.16039 ,21.19775 
224 ,41.9335 ,0.96328 ,2.11932 ,20.79481 
225 ,42.1257 ,0.96515 ,2.13986 ,20.99628 
226 ,42.3176 ,0.96707 ,2.10906 ,20.69408 
227 ,42.4937 ,0.96888 ,2.09195 ,20.52619 
228 ,42.6859 ,0.97075 ,2.09879 ,20.59334 
229 ,42.8620 ,0.97254 ,2.10221 ,20.62692 
230 ,43.0542 ,0.97443 ,2.05430 ,20.15682 
231 ,43.2461 ,0.97639 ,2.06115 ,20.22398 
232 ,43.4220 ,0.97815 ,2.05088 ,20.12325 
233 ,43.6303 ,0.98015 ,2.01666 ,19.78746 
234 ,43.8063 ,0.98200 ,2.01324 ,19.75388 
235 ,43.9820 ,0.98373 ,1.99955 ,19.61957 
236 ,44.1744 ,0.98558 ,1.99270 ,19.55241 
237 ,44.3826 ,0.98764 ,1.96533 ,19.28379 
238 ,44.5745 ,0.98962 ,1.94137 ,19.04874 
239 ,44.7664 ,0.99160 ,1.93795 ,19.01516 
240 ,44.9427 ,0.99334 ,1.93453 ,18.98158 
241 ,45.1349 ,0.99523 ,1.90715 ,18.71296 
242 ,45.3266 ,0.99716 ,1.90031 ,18.64580 
243 ,45.5031 ,0.99898 ,1.89346 ,18.57864 
244 ,45.6785 ,1.00074 ,1.86608 ,18.31002 
245 ,45.8548 ,1.00243 ,1.85924 ,18.24286 
246 ,46.0312 ,1.00421 ,1.83871 ,18.04139 
247 ,46.2074 ,1.00603 ,1.82502 ,17.90708 
248 ,46.4154 ,1.00797 ,1.82502 ,17.90708 
249 ,46.5914 ,1.00982 ,1.79422 ,17.60487 
250 ,46.7674 ,1.01157 ,1.78737 ,17.53772 
251 ,46.9595 ,1.01341 ,1.77711 ,17.43698 
252 ,47.1196 ,1.01525 ,1.77711 ,17.43698 
253 ,47.3117 ,1.01700 ,1.73946 ,17.06762 
254 ,47.5038 ,1.01895 ,1.73604 ,17.03404 
255 ,47.6955 ,1.02077 ,1.71551 ,16.83257 
256 ,47.8880 ,1.02278 ,1.70182 ,16.69826 
257 ,48.0961 ,1.02481 ,1.69840 ,16.66468 
258 ,48.2720 ,1.02669 ,1.66760 ,16.36248 
259 ,48.4483 ,1.02836 ,1.66760 ,16.36248 
260 ,48.6243 ,1.03016 ,1.64364 ,16.12743 
261 ,48.8323 ,1.03211 ,1.65733 ,16.26174 
262 ,49.0083 ,1.03402 ,1.63338 ,16.02669 
263 ,49.1844 ,1.03572 ,1.60942 ,15.79164 
264 ,49.3764 ,1.03756 ,1.60942 ,15.79164 
265 ,49.5525 ,1.03944 ,1.59231 ,15.62375 
266 ,49.7287 ,1.04119 ,1.57178 ,15.42228 
267 ,49.9048 ,1.04298 ,1.55124 ,15.22081 
268 ,50.0644 ,1.04466 ,1.55467 ,15.25439 
269 ,50.2409 ,1.04632 ,1.55467 ,15.25439 
270 ,50.4171 ,1.04810 ,1.52045 ,14.91861 
271 ,50.5930 ,1.04983 ,1.52045 ,14.91861 
272 ,50.7690 ,1.05154 ,1.48965 ,14.61640 
273 ,50.9452 ,1.05333 ,1.48965 ,14.61640 
274 ,51.1368 ,1.05518 ,1.47938 ,14.51567 
275 ,51.3133 ,1.05706 ,1.47253 ,14.44851 
276 ,51.5053 ,1.05899 ,1.43831 ,14.11273 
277 ,51.7137 ,1.06088 ,1.42805 ,14.01199 
278 ,51.8895 ,1.06284 ,1.42462 ,13.97842 
279 ,52.0817 ,1.06466 ,1.40751 ,13.81053 
280 ,52.2577 ,1.06648 ,1.40409 ,13.77695 
281 ,52.4656 ,1.06849 ,1.37329 ,13.47474 
282 ,52.6418 ,1.07036 ,1.35618 ,13.30685 
283 ,52.8340 ,1.07219 ,1.36303 ,13.37401 
284 ,53.0260 ,1.07412 ,1.33223 ,13.07180 
285 ,53.2182 ,1.07603 ,1.32880 ,13.03822 
286 ,53.3941 ,1.07785 ,1.32880 ,13.03822 
287 ,53.5700 ,1.07964 ,1.29800 ,12.73602 
288 ,53.7464 ,1.08139 ,1.29458 ,12.70244 
289 ,53.9384 ,1.08324 ,1.27747 ,12.53455 
290 ,54.1145 ,1.08519 ,1.25694 ,12.33308 
291 ,54.2905 ,1.08683 ,1.24325 ,12.19877 
292 ,54.4667 ,1.08856 ,1.22614 ,12.03088 
293 ,54.6583 ,1.09040 ,1.23298 ,12.09803 
294 ,54.8349 ,1.09222 ,1.21245 ,11.89656 
295 ,55.0268 ,1.09413 ,1.19192 ,11.69509 
296 ,55.2350 ,1.09621 ,1.19192 ,11.69509 
297 ,55.4269 ,1.09808 ,1.16454 ,11.42647 
298 ,55.6193 ,1.10012 ,1.15427 ,11.32573 
299 ,55.7949 ,1.10182 ,1.15085 ,11.29215 
300 ,55.9713 ,1.10360 ,1.13032 ,11.09068 
301 ,56.1789 ,1.10560 ,1.11663 ,10.95637 
302 ,56.3550 ,1.10742 ,1.10636 ,10.85563 
303 ,56.5311 ,1.10920 ,1.10294 ,10.82206 
304 ,56.7073 ,1.11096 ,1.08583 ,10.65416 
305 ,56.9316 ,1.11315 ,1.07556 ,10.55343 
306 ,57.1238 ,1.11513 ,1.03792 ,10.18407 
307 ,57.3159 ,1.11701 ,1.04476 ,10.25123 
308 ,57.5075 ,1.11897 ,1.03450 ,10.15049 
309 ,57.6838 ,1.12070 ,1.00712 ,9.88186 
310 ,57.8757 ,1.12261 ,1.00028 ,9.81471 
311 ,58.0520 ,1.12442 ,0.99343 ,9.74755 
312 ,58.2443 ,1.12633 ,0.97290 ,9.54608 
313 ,58.4361 ,1.12815 ,0.96605 ,9.47892 
314 ,58.6125 ,1.13004 ,0.96263 ,9.44535 
315 ,58.7885 ,1.13179 ,0.93868 ,9.21030 
316 ,58.9642 ,1.13350 ,0.91472 ,8.97525 
317 ,59.1406 ,1.13528 ,0.89419 ,8.77378 
318 ,59.3328 ,1.13716 ,0.89761 ,8.80736 
319 ,59.5248 ,1.13912 ,0.87366 ,8.57231 
320 ,59.7167 ,1.14097 ,0.88392 ,8.67305 
321 ,59.8929 ,1.14278 ,0.86339 ,8.47158 
322 ,60.0525 ,1.14452 ,0.85997 ,8.43800 
323 ,60.2291 ,1.14618 ,0.85654 ,8.40442 
324 ,60.4219 ,1.14799 ,0.81890 ,8.03506 
325 ,60.6134 ,1.15003 ,0.81206 ,7.96790 
326 ,60.8053 ,1.15188 ,0.80521 ,7.90074 
327 ,60.9973 ,1.15376 ,0.78810 ,7.73285 
328 ,61.1731 ,1.15567 ,0.79837 ,7.83359 
329 ,61.3496 ,1.15737 ,0.77099 ,7.56496 
330 ,61.5416 ,1.15921 ,0.74019 ,7.26276 
331 ,61.7178 ,1.16109 ,0.73335 ,7.19560 
332 ,61.9097 ,1.16285 ,0.72650 ,7.12844 
333 ,62.1018 ,1.16478 ,0.72650 ,7.12844 
334 ,62.2779 ,1.16667 ,0.69913 ,6.85982 
335 ,62.4701 ,1.16854 ,0.69570 ,6.82624 
336 ,62.6459 ,1.17033 ,0.69228 ,6.79266 
337 ,62.8382 ,1.17222 ,0.66148 ,6.49046 
338 ,63.0142 ,1.17400 ,0.65464 ,6.42330 
339 ,63.1743 ,1.17572 ,0.65464 ,6.42330 
340 ,63.3504 ,1.17738 ,0.65121 ,6.38972 
341 ,63.5584 ,1.17938 ,0.61357 ,6.02036 
342 ,63.7345 ,1.18116 ,0.61699 ,6.05394 
343 ,63.9264 ,1.18305 ,0.59988 ,5.88605 
344 ,64.1027 ,1.18489 ,0.58619 ,5.75173 
345 ,64.2943 ,1.18676 ,0.58619 ,5.75173 
346 ,64.4708 ,1.18858 ,0.56566 ,5.55026 
347 ,64.6467 ,1.19027 ,0.55882 ,5.48311 
348 ,64.8548 ,1.19235 ,0.53828 ,5.28164 
349 ,65.0308 ,1.19415 ,0.52802 ,5.18090 
350 ,65.2230 ,1.19616 ,0.51433 ,5.04659 
351 ,65.3991 ,1.19783 ,0.49380 ,4.84512 
352 ,65.5752 ,1.19955 ,0.50064 ,4.91228 
353 ,65.7513 ,1.20138 ,0.49037 ,4.81154 
354 ,65.9434 ,1.20326 ,0.47326 ,4.64365 
355 ,66.1355 ,1.20518 ,0.45273 ,4.44218 
356 ,66.3117 ,1.20699 ,0.44931 ,4.40860 
357 ,66.4715 ,1.20869 ,0.44931 ,4.40860 
358 ,66.6477 ,1.21030 ,0.43220 ,4.24071 
359 ,66.8238 ,1.21209 ,0.42193 ,4.13997 
360 ,66.9999 ,1.21390 ,0.40140 ,3.93850 
361 ,67.1919 ,1.21576 ,0.39113 ,3.83777 
362 ,67.3680 ,1.21750 ,0.39455 ,3.87135 
363 ,67.5440 ,1.21933 ,0.35349 ,3.46841 
364 ,67.7360 ,1.22110 ,0.34664 ,3.40125 
365 ,67.9121 ,1.22298 ,0.34322 ,3.36767 
366 ,68.0882 ,1.22465 ,0.33980 ,3.33410 
367 ,68.2802 ,1.22655 ,0.32953 ,3.23336 
368 ,68.4883 ,1.22863 ,0.32611 ,3.19978 
369 ,68.6645 ,1.23056 ,0.29189 ,2.86400 
370 ,68.8565 ,1.23238 ,0.28162 ,2.76326 
371 ,69.0327 ,1.23414 ,0.28847 ,2.83042 
372 ,69.2406 ,1.23605 ,0.26109 ,2.56179 
373 ,69.4172 ,1.23799 ,0.25424 ,2.49464 
374 ,69.6086 ,1.23994 ,0.25082 ,2.46106 
375 ,69.7846 ,1.24172 ,0.25082 ,2.46106 
376 ,69.9607 ,1.24344 ,0.23029 ,2.25959 
377 ,70.1207 ,1.24513 ,0.20633 ,2.02454 
378 ,70.2967 ,1.24676 ,0.19264 ,1.89023 
379 ,70.4728 ,1.24863 ,0.20291 ,1.99096 
380 ,70.6489 ,1.25034 ,0.17896 ,1.75592 
381 ,70.8416 ,1.25220 ,0.16527 ,1.62160 
382 ,71.0494 ,1.25424 ,0.17553 ,1.72234 
383 ,71.2414 ,1.25627 ,0.16185 ,1.58802 
384 ,71.4336 ,1.25812 ,0.14473 ,1.42013 
385 ,71.6259 ,1.25997 ,0.13789 ,1.35298 
386 ,71.8014 ,1.26189 ,0.11393 ,1.11793 
387 ,71.9776 ,1.26357 ,0.10025 ,0.98361 
388 ,72.1700 ,1.26539 ,0.08314 ,0.81572 
389 ,72.3620 ,1.26742 ,0.06945 ,0.68141 
390 ,72.5542 ,1.26934 ,0.06602 ,0.64783 
391 ,72.7624 ,1.27127 ,0.06602 ,0.64783 
392 ,72.9703 ,1.27348 ,0.04891 ,0.47994 
393 ,73.1624 ,1.27545 ,0.03865 ,0.37920 
394 ,73.3384 ,1.27718 ,0.02154 ,0.21131 
395 ,73.5305 ,1.27912 ,0.04207 ,0.41278 
396 ,73.7065 ,1.28089 ,0.01811 ,0.17773 
397 ,73.8984 ,1.28278 ,0.01127 ,0.11058 
398 ,74.0906 ,1.28475 ,-0.00926 ,-0.09089 
399 ,74.2826 ,1.28663 ,-0.01611 ,-0.15805 
400 ,74.4588 ,1.28835 ,-0.02295 ,-0.22520 
401 ,74.6349 ,1.29014 ,-0.04691 ,-0.46025 
402 ,74.8271 ,1.29196 ,-0.04348 ,-0.42667 
403 ,75.0028 ,1.29390 ,-0.07086 ,-0.69530 
404 ,75.1792 ,1.29559 ,-0.06402 ,-0.62814 
405 ,75.3870 ,1.29765 ,-0.07086 ,-0.69530 
406 ,75.5634 ,1.29944 ,-0.08113 ,-0.79604 
407 ,75.7394 ,1.30117 ,-0.09140 ,-0.89677 
408 ,75.9475 ,1.30311 ,-0.09482 ,-0.93035 
409 ,76.1555 ,1.30530 ,-0.11193 ,-1.09824 
410 ,76.3318 ,1.30712 ,-0.13246 ,-1.29971 
411 ,76.5239 ,1.30900 ,-0.14957 ,-1.46760 
412 ,76.7158 ,1.31088 ,-0.14615 ,-1.43402 
413 ,76.9076 ,1.31289 ,-0.15984 ,-1.56834 
414 ,77.0837 ,1.31461 ,-0.14957 ,-1.46760 
415 ,77.2600 ,1.31638 ,-0.17011 ,-1.66907 
416 ,77.4522 ,1.31832 ,-0.18722 ,-1.83696 
417 ,77.6283 ,1.32012 ,-0.20775 ,-2.03843 
418 ,77.8204 ,1.32192 ,-0.19064 ,-1.87054 
419 ,78.0125 ,1.32397 ,-0.21459 ,-2.10559 
420 ,78.2041 ,1.32587 ,-0.21459 ,-2.10559 
421 ,78.3805 ,1.32761 ,-0.21802 ,-2.13917 
422 ,78.5726 ,1.32957 ,-0.24881 ,-2.44137 
423 ,78.7646 ,1.33142 ,-0.25908 ,-2.54211 
424 ,78.9409 ,1.33317 ,-0.26935 ,-2.64284 
425 ,79.1648 ,1.33530 ,-0.26250 ,-2.57569 
426 ,79.3567 ,1.33731 ,-0.28646 ,-2.81073 
427 ,79.5489 ,1.33930 ,-0.30357 ,-2.97863 
428 ,79.7570 ,1.34126 ,-0.28304 ,-2.77716 
429 ,79.9332 ,1.34317 ,-0.32410 ,-3.18010 
430 ,80.1249 ,1.34503 ,-0.30699 ,-3.01220 
431 ,80.3014 ,1.34680 ,-0.32068 ,-3.14652 
432 ,80.4934 ,1.34878 ,-0.32752 ,-3.21367 
433 ,80.6693 ,1.35045 ,-0.35490 ,-3.48230 
434 ,80.8615 ,1.35229 ,-0.34121 ,-3.34799 
435 ,81.0533 ,1.35426 ,-0.37201 ,-3.65019 
436 ,81.2296 ,1.35607 ,-0.36859 ,-3.61661 
437 ,81.4217 ,1.35808 ,-0.39255 ,-3.85166 
438 ,81.6137 ,1.35991 ,-0.38570 ,-3.78450 
439 ,81.8220 ,1.36194 ,-0.38912 ,-3.81808 
440 ,82.0139 ,1.36384 ,-0.40281 ,-3.95240 
441 ,82.2061 ,1.36586 ,-0.39255 ,-3.85166 
442 ,82.3980 ,1.36770 ,-0.43019 ,-4.22102 
443 ,82.5902 ,1.36965 ,-0.43019 ,-4.22102 
444 ,82.7662 ,1.37144 ,-0.43361 ,-4.25460 
445 ,82.9424 ,1.37322 ,-0.43361 ,-4.25460 
446 ,83.1182 ,1.37503 ,-0.47126 ,-4.62396 
447 ,83.2943 ,1.37672 ,-0.48494 ,-4.75828 
448 ,83.4865 ,1.37854 ,-0.45414 ,-4.45607 
449 ,83.6627 ,1.38052 ,-0.48152 ,-4.72470 
450 ,83.8709 ,1.38240 ,-0.49521 ,-4.85901 
451 ,84.0629 ,1.38443 ,-0.48152 ,-4.72470 
452 ,84.2390 ,1.38621 ,-0.50206 ,-4.92617 
453 ,84.4156 ,1.38791 ,-0.52259 ,-5.12764 
454 ,84.6228 ,1.38994 ,-0.50890 ,-4.99332 
455 ,84.7993 ,1.39176 ,-0.53628 ,-5.26195 
456 ,84.9912 ,1.39370 ,-0.54654 ,-5.36268 
457 ,85.1673 ,1.39542 ,-0.54654 ,-5.36268 
458 ,85.3434 ,1.39726 ,-0.55339 ,-5.42984 
459 ,85.5193 ,1.39898 ,-0.56365 ,-5.53058 
460 ,85.6953 ,1.40070 ,-0.58761 ,-5.76562 
461 ,85.8713 ,1.40249 ,-0.58761 ,-5.76562 
462 ,86.0479 ,1.40421 ,-0.60130 ,-5.89994 
463 ,86.2718 ,1.40638 ,-0.59788 ,-5.86636 
