Data stamp = , 12-04-2022 11:23:09 685

Calibration Values: 
Slope = , 26.54 , g/V 
Offset Voltage at no contact = , -0.501760 , V 

No , Time , Stage Position ,   Mass , Force 
   ,  (s) ,      (mm)      ,   (g)  , (mN)  

1 ,0.0000 ,0.59929 ,5.02817 ,49.33637 
2 ,0.2121 ,0.59938 ,5.02132 ,49.26921 
3 ,0.4685 ,0.60000 ,5.01790 ,49.23563 
4 ,0.6609 ,0.60120 ,5.02474 ,49.30279 
5 ,0.8528 ,0.60273 ,5.03159 ,49.36995 
6 ,1.0445 ,0.60452 ,5.01790 ,49.23563 
7 ,1.2209 ,0.60627 ,5.02132 ,49.26921 
8 ,1.4130 ,0.60817 ,5.02474 ,49.30279 
9 ,1.6051 ,0.61006 ,5.01448 ,49.20205 
10 ,1.8131 ,0.61209 ,5.00079 ,49.06774 
11 ,2.0053 ,0.61405 ,4.98368 ,48.89985 
12 ,2.1973 ,0.61602 ,4.98368 ,48.89985 
13 ,2.3733 ,0.61780 ,4.95972 ,48.66480 
14 ,2.5814 ,0.61981 ,4.91866 ,48.26186 
15 ,2.7895 ,0.62190 ,4.90497 ,48.12755 
16 ,2.9656 ,0.62367 ,4.87075 ,47.79177 
17 ,3.1573 ,0.62555 ,4.88444 ,47.92608 
18 ,3.3173 ,0.62736 ,4.87075 ,47.79177 
19 ,3.4939 ,0.62899 ,4.85364 ,47.62387 
20 ,3.6699 ,0.63079 ,4.81599 ,47.25451 
21 ,3.8618 ,0.63270 ,4.81941 ,47.28809 
22 ,4.0381 ,0.63446 ,4.80573 ,47.15378 
23 ,4.2141 ,0.63622 ,4.79546 ,47.05304 
24 ,4.3901 ,0.63803 ,4.75782 ,46.68368 
25 ,4.5818 ,0.63984 ,4.75097 ,46.61653 
26 ,4.7582 ,0.64167 ,4.73728 ,46.48221 
27 ,4.9503 ,0.64357 ,4.71333 ,46.24716 
28 ,5.1262 ,0.64535 ,4.69964 ,46.11285 
29 ,5.3182 ,0.64724 ,4.69279 ,46.04569 
30 ,5.5104 ,0.64906 ,4.68253 ,45.94496 
31 ,5.6867 ,0.65094 ,4.63462 ,45.47486 
32 ,5.8946 ,0.65294 ,4.63119 ,45.44128 
33 ,6.0707 ,0.65475 ,4.60724 ,45.20624 
34 ,6.2469 ,0.65650 ,4.60382 ,45.17266 
35 ,6.4390 ,0.65848 ,4.57986 ,44.93761 
36 ,6.6149 ,0.66020 ,4.57302 ,44.87045 
37 ,6.7910 ,0.66193 ,4.55591 ,44.70256 
38 ,6.9672 ,0.66374 ,4.53537 ,44.50109 
39 ,7.1593 ,0.66559 ,4.52511 ,44.40036 
40 ,7.3355 ,0.66741 ,4.51826 ,44.33320 
41 ,7.5273 ,0.66927 ,4.48404 ,43.99742 
42 ,7.7030 ,0.67112 ,4.48062 ,43.96384 
43 ,7.8795 ,0.67282 ,4.46693 ,43.82953 
44 ,8.0556 ,0.67460 ,4.45666 ,43.72879 
45 ,8.2315 ,0.67639 ,4.42586 ,43.42659 
46 ,8.4074 ,0.67813 ,4.40533 ,43.22512 
47 ,8.6154 ,0.68011 ,4.39849 ,43.15796 
48 ,8.7916 ,0.68193 ,4.39164 ,43.09080 
49 ,8.9676 ,0.68378 ,4.36769 ,42.85576 
50 ,9.1437 ,0.68549 ,4.35058 ,42.68786 
51 ,9.3357 ,0.68734 ,4.32662 ,42.45282 
52 ,9.5121 ,0.68919 ,4.32320 ,42.41924 
53 ,9.6882 ,0.69101 ,4.29924 ,42.18419 
54 ,9.8804 ,0.69281 ,4.30609 ,42.25135 
55 ,10.0563 ,0.69463 ,4.28213 ,42.01630 
56 ,10.2325 ,0.69633 ,4.25476 ,41.74767 
57 ,10.4245 ,0.69830 ,4.24791 ,41.68051 
58 ,10.6005 ,0.70002 ,4.23080 ,41.51262 
59 ,10.7766 ,0.70177 ,4.23422 ,41.54620 
60 ,10.9688 ,0.70375 ,4.18631 ,41.07611 
61 ,11.1769 ,0.70579 ,4.18289 ,41.04253 
62 ,11.3530 ,0.70757 ,4.14867 ,40.70674 
63 ,11.5611 ,0.70963 ,4.14867 ,40.70674 
64 ,11.7368 ,0.71146 ,4.11787 ,40.40454 
65 ,11.9132 ,0.71318 ,4.11445 ,40.37096 
66 ,12.1212 ,0.71516 ,4.11445 ,40.37096 
67 ,12.2974 ,0.71699 ,4.08023 ,40.03518 
68 ,12.4893 ,0.71885 ,4.05969 ,39.83371 
69 ,12.6655 ,0.72067 ,4.05969 ,39.83371 
70 ,12.8416 ,0.72247 ,4.04600 ,39.69940 
71 ,13.0175 ,0.72420 ,4.03574 ,39.59866 
72 ,13.2256 ,0.72618 ,4.00836 ,39.33003 
73 ,13.4178 ,0.72821 ,3.99125 ,39.16214 
74 ,13.6095 ,0.73013 ,3.96729 ,38.92709 
75 ,13.7860 ,0.73187 ,3.93992 ,38.65847 
76 ,13.9620 ,0.73360 ,3.95018 ,38.75920 
77 ,14.1701 ,0.73575 ,3.92623 ,38.52415 
78 ,14.3461 ,0.73749 ,3.90570 ,38.32268 
79 ,14.5382 ,0.73936 ,3.89201 ,38.18837 
80 ,14.7303 ,0.74136 ,3.87147 ,37.98690 
81 ,14.9221 ,0.74319 ,3.86463 ,37.91975 
82 ,15.0986 ,0.74500 ,3.86121 ,37.88617 
83 ,15.3065 ,0.74704 ,3.83041 ,37.58396 
84 ,15.4826 ,0.74888 ,3.82699 ,37.55038 
85 ,15.6747 ,0.75077 ,3.80303 ,37.31534 
86 ,15.8505 ,0.75252 ,3.78592 ,37.14744 
87 ,16.0104 ,0.75424 ,3.77565 ,37.04671 
88 ,16.1870 ,0.75592 ,3.75170 ,36.81166 
89 ,16.3788 ,0.75777 ,3.75512 ,36.84524 
90 ,16.5550 ,0.75953 ,3.73117 ,36.61019 
91 ,16.7310 ,0.76133 ,3.71405 ,36.44230 
92 ,16.9072 ,0.76310 ,3.70379 ,36.34157 
93 ,17.0989 ,0.76493 ,3.68668 ,36.17367 
94 ,17.2754 ,0.76678 ,3.68325 ,36.14010 
95 ,17.4673 ,0.76869 ,3.65588 ,35.87147 
96 ,17.6436 ,0.77042 ,3.65246 ,35.83789 
97 ,17.8513 ,0.77248 ,3.61823 ,35.50211 
98 ,18.0277 ,0.77427 ,3.60112 ,35.33422 
99 ,18.2194 ,0.77610 ,3.60797 ,35.40137 
100 ,18.4118 ,0.77812 ,3.58743 ,35.19990 
101 ,18.6039 ,0.78001 ,3.58059 ,35.13275 
102 ,18.7959 ,0.78198 ,3.56348 ,34.96485 
103 ,18.9720 ,0.78373 ,3.52926 ,34.62907 
104 ,19.1641 ,0.78558 ,3.52926 ,34.62907 
105 ,19.3562 ,0.78752 ,3.51215 ,34.46118 
106 ,19.5483 ,0.78943 ,3.49161 ,34.25971 
107 ,19.7243 ,0.79123 ,3.48477 ,34.19255 
108 ,19.9001 ,0.79297 ,3.47450 ,34.09182 
109 ,20.0765 ,0.79479 ,3.45739 ,33.92393 
110 ,20.2686 ,0.79663 ,3.43344 ,33.68888 
111 ,20.4766 ,0.79873 ,3.41290 ,33.48741 
112 ,20.6848 ,0.80075 ,3.39579 ,33.31952 
113 ,20.8768 ,0.80278 ,3.40264 ,33.38667 
114 ,21.0690 ,0.80466 ,3.38553 ,33.21878 
115 ,21.2449 ,0.80645 ,3.35815 ,32.95016 
116 ,21.4206 ,0.80817 ,3.36499 ,33.01731 
117 ,21.5971 ,0.80995 ,3.34788 ,32.84942 
118 ,21.7733 ,0.81173 ,3.32051 ,32.58080 
119 ,21.9493 ,0.81352 ,3.28286 ,32.21143 
120 ,22.1414 ,0.81533 ,3.31024 ,32.48006 
121 ,22.3335 ,0.81724 ,3.27602 ,32.14428 
122 ,22.5094 ,0.81913 ,3.25891 ,31.97639 
123 ,22.7016 ,0.82098 ,3.25548 ,31.94281 
124 ,22.8936 ,0.82283 ,3.22126 ,31.60702 
125 ,23.1017 ,0.82493 ,3.21100 ,31.50629 
126 ,23.2777 ,0.82677 ,3.20757 ,31.47271 
127 ,23.4536 ,0.82855 ,3.18704 ,31.27124 
128 ,23.6138 ,0.83018 ,3.16651 ,31.06977 
129 ,23.7900 ,0.83186 ,3.15624 ,30.96904 
130 ,23.9980 ,0.83381 ,3.14597 ,30.86830 
131 ,24.2222 ,0.83601 ,3.13913 ,30.80115 
132 ,24.3983 ,0.83798 ,3.12544 ,30.66683 
133 ,24.5900 ,0.83990 ,3.08780 ,30.29747 
134 ,24.7663 ,0.84165 ,3.09806 ,30.39821 
135 ,24.9745 ,0.84369 ,3.08095 ,30.23031 
136 ,25.1505 ,0.84547 ,3.06384 ,30.06242 
137 ,25.3427 ,0.84729 ,3.05700 ,29.99527 
138 ,25.5504 ,0.84943 ,3.02620 ,29.69306 
139 ,25.7268 ,0.85124 ,3.00909 ,29.52517 
140 ,25.9030 ,0.85302 ,3.01251 ,29.55875 
141 ,26.0950 ,0.85487 ,2.98171 ,29.25654 
142 ,26.2871 ,0.85674 ,2.95776 ,29.02150 
143 ,26.4791 ,0.85879 ,2.97487 ,29.18939 
144 ,26.6552 ,0.86053 ,2.95091 ,28.95434 
145 ,26.8473 ,0.86245 ,2.93380 ,28.78645 
146 ,27.0234 ,0.86421 ,2.92696 ,28.71929 
147 ,27.2154 ,0.86612 ,2.89616 ,28.41709 
148 ,27.3915 ,0.86786 ,2.87905 ,28.24919 
149 ,27.5832 ,0.86985 ,2.87562 ,28.21562 
150 ,27.7596 ,0.87155 ,2.86193 ,28.08130 
151 ,27.9357 ,0.87332 ,2.84140 ,27.87983 
152 ,28.1277 ,0.87528 ,2.82087 ,27.67836 
153 ,28.3040 ,0.87707 ,2.82087 ,27.67836 
154 ,28.4800 ,0.87880 ,2.81745 ,27.64479 
155 ,28.6557 ,0.88054 ,2.79349 ,27.40974 
156 ,28.8479 ,0.88245 ,2.78322 ,27.30900 
157 ,29.0241 ,0.88418 ,2.77638 ,27.24185 
158 ,29.2322 ,0.88624 ,2.74558 ,26.93964 
159 ,29.4243 ,0.88810 ,2.73531 ,26.83891 
160 ,29.6324 ,0.89025 ,2.71478 ,26.63744 
161 ,29.8565 ,0.89242 ,2.69425 ,26.43597 
162 ,30.0646 ,0.89444 ,2.69083 ,26.40239 
163 ,30.2725 ,0.89659 ,2.67029 ,26.20092 
164 ,30.4648 ,0.89866 ,2.66003 ,26.10018 
165 ,30.6569 ,0.90055 ,2.64292 ,25.93229 
166 ,30.8490 ,0.90247 ,2.63949 ,25.89871 
167 ,31.0406 ,0.90438 ,2.61896 ,25.69724 
168 ,31.2171 ,0.90616 ,2.60527 ,25.56293 
169 ,31.4090 ,0.90797 ,2.60527 ,25.56293 
170 ,31.5851 ,0.90981 ,2.57447 ,25.26073 
171 ,31.7612 ,0.91160 ,2.57789 ,25.29430 
172 ,31.9535 ,0.91351 ,2.52998 ,24.82421 
173 ,32.1452 ,0.91539 ,2.52314 ,24.75705 
174 ,32.3215 ,0.91715 ,2.51630 ,24.68989 
175 ,32.4976 ,0.91890 ,2.49918 ,24.52200 
176 ,32.6738 ,0.92072 ,2.47181 ,24.25338 
177 ,32.8658 ,0.92260 ,2.47181 ,24.25338 
178 ,33.0580 ,0.92447 ,2.44785 ,24.01833 
179 ,33.2659 ,0.92657 ,2.44785 ,24.01833 
180 ,33.4422 ,0.92835 ,2.44443 ,23.98475 
181 ,33.6341 ,0.93023 ,2.43416 ,23.88402 
182 ,33.8102 ,0.93205 ,2.39994 ,23.54823 
183 ,33.9863 ,0.93383 ,2.39994 ,23.54823 
184 ,34.1941 ,0.93577 ,2.36914 ,23.24603 
185 ,34.3702 ,0.93762 ,2.35888 ,23.14529 
186 ,34.5626 ,0.93957 ,2.36914 ,23.24603 
187 ,34.7702 ,0.94145 ,2.32465 ,22.80951 
188 ,34.9466 ,0.94339 ,2.33492 ,22.91024 
189 ,35.1227 ,0.94521 ,2.30754 ,22.64162 
190 ,35.2985 ,0.94690 ,2.28701 ,22.44015 
191 ,35.4910 ,0.94881 ,2.27674 ,22.33941 
192 ,35.6830 ,0.95072 ,2.26306 ,22.20510 
193 ,35.8591 ,0.95254 ,2.26306 ,22.20510 
194 ,36.0508 ,0.95436 ,2.24252 ,22.00363 
195 ,36.2431 ,0.95639 ,2.23226 ,21.90290 
196 ,36.4191 ,0.95808 ,2.21857 ,21.76858 
197 ,36.5953 ,0.95987 ,2.17408 ,21.33206 
198 ,36.7712 ,0.96167 ,2.18777 ,21.46638 
199 ,36.9635 ,0.96349 ,2.16723 ,21.26491 
200 ,37.1553 ,0.96546 ,2.13986 ,20.99628 
201 ,37.3476 ,0.96739 ,2.13644 ,20.96270 
202 ,37.5395 ,0.96926 ,2.13301 ,20.92912 
203 ,37.7158 ,0.97113 ,2.09879 ,20.59334 
204 ,37.8918 ,0.97280 ,2.10221 ,20.62692 
205 ,38.0840 ,0.97465 ,2.08852 ,20.49261 
206 ,38.2759 ,0.97671 ,2.05088 ,20.12325 
207 ,38.4520 ,0.97843 ,2.05088 ,20.12325 
208 ,38.6280 ,0.98029 ,2.05088 ,20.12325 
209 ,38.8042 ,0.98194 ,2.03377 ,19.95535 
210 ,38.9802 ,0.98372 ,2.02693 ,19.88820 
211 ,39.1563 ,0.98551 ,1.99613 ,19.58599 
212 ,39.3644 ,0.98761 ,1.99955 ,19.61957 
213 ,39.5561 ,0.98952 ,1.97559 ,19.38452 
214 ,39.7486 ,0.99140 ,1.96875 ,19.31737 
215 ,39.9408 ,0.99332 ,1.95506 ,19.18305 
216 ,40.1326 ,0.99519 ,1.93453 ,18.98158 
217 ,40.3243 ,0.99707 ,1.92426 ,18.88085 
218 ,40.4845 ,0.99892 ,1.92084 ,18.84727 
219 ,40.6445 ,1.00051 ,1.90373 ,18.67938 
220 ,40.8370 ,1.00216 ,1.88319 ,18.47791 
221 ,41.0453 ,1.00436 ,1.87635 ,18.41075 
222 ,41.2210 ,1.00612 ,1.86266 ,18.27644 
223 ,41.3971 ,1.00790 ,1.84897 ,18.14213 
224 ,41.5893 ,1.00977 ,1.83528 ,18.00781 
225 ,41.7813 ,1.01168 ,1.81817 ,17.83992 
226 ,41.9575 ,1.01351 ,1.78737 ,17.53772 
227 ,42.1495 ,1.01541 ,1.79422 ,17.60487 
228 ,42.3577 ,1.01737 ,1.77026 ,17.36983 
229 ,42.5656 ,1.01947 ,1.75657 ,17.23551 
230 ,42.7415 ,1.02138 ,1.74289 ,17.10120 
231 ,42.9179 ,1.02312 ,1.72920 ,16.96689 
232 ,43.1259 ,1.02517 ,1.71893 ,16.86615 
233 ,43.3018 ,1.02694 ,1.71209 ,16.79899 
234 ,43.4942 ,1.02874 ,1.69498 ,16.63110 
235 ,43.6862 ,1.03074 ,1.68471 ,16.53037 
236 ,43.8779 ,1.03274 ,1.66418 ,16.32890 
237 ,44.0543 ,1.03444 ,1.64022 ,16.09385 
238 ,44.2464 ,1.03638 ,1.63680 ,16.06027 
239 ,44.4225 ,1.03810 ,1.63338 ,16.02669 
240 ,44.6305 ,1.04018 ,1.61627 ,15.85880 
241 ,44.8066 ,1.04196 ,1.59916 ,15.69091 
242 ,44.9987 ,1.04393 ,1.57520 ,15.45586 
243 ,45.1908 ,1.04575 ,1.57862 ,15.48944 
244 ,45.3990 ,1.04784 ,1.53756 ,15.08650 
245 ,45.6069 ,1.04992 ,1.55124 ,15.22081 
246 ,45.7991 ,1.05179 ,1.54440 ,15.15366 
247 ,45.9907 ,1.05378 ,1.51018 ,14.81787 
248 ,46.1832 ,1.05565 ,1.50676 ,14.78430 
249 ,46.3750 ,1.05766 ,1.46569 ,14.38136 
250 ,46.5513 ,1.05938 ,1.48622 ,14.58283 
251 ,46.7275 ,1.06117 ,1.47596 ,14.48209 
252 ,46.9195 ,1.06304 ,1.44174 ,14.14631 
253 ,47.1276 ,1.06501 ,1.45200 ,14.24704 
254 ,47.3196 ,1.06709 ,1.43831 ,14.11273 
255 ,47.4957 ,1.06883 ,1.40409 ,13.77695 
256 ,47.6717 ,1.07062 ,1.38698 ,13.60906 
257 ,47.8480 ,1.07238 ,1.41094 ,13.84410 
258 ,48.0560 ,1.07426 ,1.37671 ,13.50832 
259 ,48.2639 ,1.07638 ,1.36987 ,13.44116 
260 ,48.4404 ,1.07827 ,1.34934 ,13.23969 
261 ,48.6322 ,1.08024 ,1.33907 ,13.13896 
262 ,48.8083 ,1.08193 ,1.33565 ,13.10538 
263 ,49.0001 ,1.08387 ,1.31512 ,12.90391 
264 ,49.1760 ,1.08562 ,1.28089 ,12.56813 
265 ,49.3525 ,1.08742 ,1.28432 ,12.60171 
266 ,49.5447 ,1.08926 ,1.27063 ,12.46739 
267 ,49.7368 ,1.09126 ,1.25694 ,12.33308 
268 ,49.9288 ,1.09312 ,1.26036 ,12.36666 
269 ,50.1208 ,1.09499 ,1.23298 ,12.09803 
270 ,50.2964 ,1.09693 ,1.22956 ,12.06445 
271 ,50.4566 ,1.09855 ,1.21587 ,11.93014 
272 ,50.6166 ,1.10016 ,1.18850 ,11.66151 
273 ,50.7931 ,1.10185 ,1.17823 ,11.56078 
274 ,50.9851 ,1.10375 ,1.18850 ,11.66151 
275 ,51.1613 ,1.10551 ,1.18165 ,11.59436 
276 ,51.3370 ,1.10728 ,1.14743 ,11.25857 
277 ,51.5134 ,1.10900 ,1.13374 ,11.12426 
278 ,51.7055 ,1.11085 ,1.13032 ,11.09068 
279 ,51.9135 ,1.11289 ,1.10636 ,10.85563 
280 ,52.0898 ,1.11474 ,1.11321 ,10.92279 
281 ,52.2814 ,1.11666 ,1.09952 ,10.78848 
282 ,52.4577 ,1.11844 ,1.07214 ,10.51985 
283 ,52.6339 ,1.12020 ,1.06872 ,10.48627 
284 ,52.8259 ,1.12197 ,1.07556 ,10.55343 
285 ,53.0018 ,1.12389 ,1.05503 ,10.35196 
286 ,53.1781 ,1.12564 ,1.02765 ,10.08333 
287 ,53.3540 ,1.12742 ,1.02765 ,10.08333 
288 ,53.5302 ,1.12921 ,1.01396 ,9.94902 
289 ,53.7223 ,1.13103 ,0.98317 ,9.64682 
290 ,53.9145 ,1.13293 ,0.98659 ,9.68039 
291 ,54.1065 ,1.13487 ,0.99001 ,9.71397 
292 ,54.3305 ,1.13704 ,0.95921 ,9.41177 
293 ,54.5063 ,1.13889 ,0.96948 ,9.51250 
294 ,54.6827 ,1.14071 ,0.94552 ,9.27745 
295 ,54.8747 ,1.14261 ,0.92499 ,9.07598 
296 ,55.0506 ,1.14437 ,0.91130 ,8.94167 
297 ,55.2269 ,1.14613 ,0.91130 ,8.94167 
298 ,55.4030 ,1.14791 ,0.90446 ,8.87451 
299 ,55.5787 ,1.14963 ,0.88050 ,8.63947 
300 ,55.7552 ,1.15144 ,0.86339 ,8.47158 
301 ,55.9631 ,1.15341 ,0.85654 ,8.40442 
302 ,56.1393 ,1.15522 ,0.84970 ,8.33726 
303 ,56.3154 ,1.15699 ,0.82917 ,8.13579 
304 ,56.4912 ,1.15882 ,0.82917 ,8.13579 
305 ,56.6671 ,1.16049 ,0.82917 ,8.13579 
306 ,56.8435 ,1.16231 ,0.80863 ,7.93432 
307 ,57.0357 ,1.16412 ,0.79495 ,7.80001 
308 ,57.2273 ,1.16607 ,0.78468 ,7.69927 
309 ,57.4037 ,1.16795 ,0.77441 ,7.59854 
310 ,57.5798 ,1.16964 ,0.75046 ,7.36349 
311 ,57.7555 ,1.17139 ,0.74019 ,7.26276 
312 ,57.9320 ,1.17320 ,0.72992 ,7.16202 
313 ,58.1080 ,1.17494 ,0.71966 ,7.06129 
314 ,58.2842 ,1.17670 ,0.72308 ,7.09486 
315 ,58.4762 ,1.17862 ,0.67859 ,6.65835 
316 ,58.6522 ,1.18037 ,0.67859 ,6.65835 
317 ,58.8280 ,1.18211 ,0.68886 ,6.75908 
318 ,59.0044 ,1.18390 ,0.67517 ,6.62477 
319 ,59.2124 ,1.18591 ,0.65464 ,6.42330 
320 ,59.3885 ,1.18769 ,0.65464 ,6.42330 
321 ,59.5646 ,1.18945 ,0.63410 ,6.22183 
322 ,59.7406 ,1.19123 ,0.62042 ,6.08752 
323 ,59.9166 ,1.19305 ,0.59646 ,5.85247 
324 ,60.0929 ,1.19482 ,0.59304 ,5.81889 
325 ,60.2689 ,1.19660 ,0.58619 ,5.75173 
326 ,60.4453 ,1.19829 ,0.58962 ,5.78531 
327 ,60.6531 ,1.20022 ,0.54855 ,5.38237 
328 ,60.8292 ,1.20213 ,0.54855 ,5.38237 
329 ,61.0211 ,1.20404 ,0.52459 ,5.14732 
330 ,61.1973 ,1.20587 ,0.51091 ,5.01301 
331 ,61.3734 ,1.20760 ,0.49722 ,4.87870 
332 ,61.5655 ,1.20942 ,0.49380 ,4.84512 
333 ,61.7574 ,1.21137 ,0.46642 ,4.57649 
334 ,61.9336 ,1.21320 ,0.46984 ,4.61007 
335 ,62.1097 ,1.21492 ,0.46642 ,4.57649 
336 ,62.3177 ,1.21690 ,0.44931 ,4.40860 
337 ,62.4935 ,1.21878 ,0.43220 ,4.24071 
338 ,62.6699 ,1.22048 ,0.43220 ,4.24071 
339 ,62.8618 ,1.22236 ,0.41166 ,4.03924 
340 ,63.0376 ,1.22417 ,0.39455 ,3.87135 
341 ,63.2140 ,1.22598 ,0.40482 ,3.97208 
342 ,63.4384 ,1.22806 ,0.38086 ,3.73703 
343 ,63.6141 ,1.23000 ,0.36718 ,3.60272 
344 ,63.7901 ,1.23175 ,0.36033 ,3.53557 
345 ,63.9665 ,1.23347 ,0.34664 ,3.40125 
346 ,64.1581 ,1.23532 ,0.33980 ,3.33410 
347 ,64.3347 ,1.23723 ,0.31926 ,3.13263 
348 ,64.5107 ,1.23894 ,0.32611 ,3.19978 
349 ,64.6866 ,1.24067 ,0.31584 ,3.09905 
350 ,64.8627 ,1.24242 ,0.30558 ,2.99831 
351 ,65.0388 ,1.24423 ,0.28504 ,2.79684 
352 ,65.2145 ,1.24596 ,0.27820 ,2.72969 
353 ,65.3909 ,1.24768 ,0.26451 ,2.59537 
354 ,65.5671 ,1.24949 ,0.25767 ,2.52822 
355 ,65.7592 ,1.25137 ,0.24740 ,2.42748 
356 ,65.9354 ,1.25321 ,0.22687 ,2.22601 
357 ,66.1274 ,1.25504 ,0.22687 ,2.22601 
358 ,66.3193 ,1.25694 ,0.19607 ,1.92381 
359 ,66.4951 ,1.25876 ,0.19264 ,1.89023 
360 ,66.6714 ,1.26048 ,0.19949 ,1.95738 
361 ,66.8475 ,1.26227 ,0.19949 ,1.95738 
362 ,67.0237 ,1.26408 ,0.17553 ,1.72234 
363 ,67.2157 ,1.26593 ,0.15842 ,1.55445 
364 ,67.4075 ,1.26783 ,0.16527 ,1.62160 
365 ,67.5839 ,1.26966 ,0.14131 ,1.38655 
366 ,67.7600 ,1.27141 ,0.11736 ,1.15151 
367 ,67.9520 ,1.27328 ,0.11736 ,1.15151 
368 ,68.1442 ,1.27532 ,0.11051 ,1.08435 
369 ,68.3202 ,1.27702 ,0.09340 ,0.91646 
370 ,68.4962 ,1.27885 ,0.09340 ,0.91646 
371 ,68.6883 ,1.28067 ,0.08998 ,0.88288 
372 ,68.8804 ,1.28258 ,0.06602 ,0.64783 
373 ,69.0564 ,1.28438 ,0.05234 ,0.51352 
374 ,69.2323 ,1.28615 ,0.03865 ,0.37920 
375 ,69.4086 ,1.28785 ,0.05576 ,0.54710 
376 ,69.6004 ,1.28975 ,0.01811 ,0.17773 
377 ,69.7928 ,1.29169 ,0.03180 ,0.31205 
378 ,69.9849 ,1.29360 ,0.01127 ,0.11058 
379 ,70.1770 ,1.29556 ,-0.01611 ,-0.15805 
380 ,70.3691 ,1.29744 ,0.00443 ,0.04342 
381 ,70.5447 ,1.29938 ,-0.04006 ,-0.39310 
382 ,70.7211 ,1.30103 ,-0.02637 ,-0.25878 
383 ,70.9292 ,1.30301 ,-0.02980 ,-0.29236 
384 ,71.1053 ,1.30486 ,-0.04348 ,-0.42667 
385 ,71.2814 ,1.30658 ,-0.06744 ,-0.66172 
386 ,71.4574 ,1.30846 ,-0.06060 ,-0.59457 
387 ,71.6492 ,1.31030 ,-0.07086 ,-0.69530 
388 ,71.8257 ,1.31205 ,-0.07428 ,-0.72888 
389 ,72.0175 ,1.31397 ,-0.10508 ,-1.03108 
390 ,72.1937 ,1.31576 ,-0.10508 ,-1.03108 
391 ,72.3699 ,1.31747 ,-0.11877 ,-1.16540 
392 ,72.5618 ,1.31939 ,-0.12904 ,-1.26613 
393 ,72.7379 ,1.32122 ,-0.12219 ,-1.19898 
394 ,72.9140 ,1.32295 ,-0.13588 ,-1.33329 
395 ,73.1061 ,1.32487 ,-0.14615 ,-1.43402 
396 ,73.2821 ,1.32658 ,-0.16668 ,-1.63549 
397 ,73.4901 ,1.32864 ,-0.15984 ,-1.56834 
398 ,73.6663 ,1.33046 ,-0.18037 ,-1.76981 
399 ,73.8584 ,1.33235 ,-0.20775 ,-2.03843 
400 ,74.0664 ,1.33441 ,-0.20090 ,-1.97128 
401 ,74.2586 ,1.33637 ,-0.22144 ,-2.17275 
402 ,74.4346 ,1.33817 ,-0.22828 ,-2.23990 
403 ,74.6266 ,1.34000 ,-0.23513 ,-2.30706 
404 ,74.8183 ,1.34196 ,-0.25224 ,-2.47495 
405 ,74.9948 ,1.34378 ,-0.24881 ,-2.44137 
406 ,75.1866 ,1.34563 ,-0.27277 ,-2.67642 
407 ,75.3628 ,1.34738 ,-0.28304 ,-2.77716 
408 ,75.5391 ,1.34919 ,-0.28304 ,-2.77716 
409 ,75.7310 ,1.35102 ,-0.28304 ,-2.77716 
410 ,75.9390 ,1.35302 ,-0.29673 ,-2.91147 
411 ,76.1152 ,1.35496 ,-0.30015 ,-2.94505 
412 ,76.3233 ,1.35682 ,-0.32410 ,-3.18010 
413 ,76.5152 ,1.35889 ,-0.31384 ,-3.07936 
414 ,76.6914 ,1.36067 ,-0.31726 ,-3.11294 
415 ,76.8835 ,1.36251 ,-0.34806 ,-3.41514 
416 ,77.0916 ,1.36462 ,-0.34806 ,-3.41514 
417 ,77.2837 ,1.36666 ,-0.36175 ,-3.54946 
418 ,77.4758 ,1.36851 ,-0.36859 ,-3.61661 
419 ,77.6518 ,1.37028 ,-0.35832 ,-3.51588 
420 ,77.8279 ,1.37204 ,-0.37886 ,-3.71735 
421 ,78.0197 ,1.37392 ,-0.37886 ,-3.71735 
422 ,78.1800 ,1.37569 ,-0.39939 ,-3.91882 
423 ,78.3882 ,1.37752 ,-0.40281 ,-3.95240 
424 ,78.5963 ,1.37961 ,-0.43361 ,-4.25460 
425 ,78.7723 ,1.38149 ,-0.41650 ,-4.08671 
426 ,78.9645 ,1.38344 ,-0.43703 ,-4.28818 
427 ,79.1404 ,1.38520 ,-0.46099 ,-4.52323 
428 ,79.3325 ,1.38710 ,-0.44388 ,-4.35534 
429 ,79.5087 ,1.38885 ,-0.45757 ,-4.48965 
430 ,79.6848 ,1.39065 ,-0.47126 ,-4.62396 
431 ,79.8607 ,1.39234 ,-0.49179 ,-4.82543 
432 ,80.0528 ,1.39418 ,-0.50206 ,-4.92617 
433 ,80.2289 ,1.39602 ,-0.49863 ,-4.89259 
434 ,80.4209 ,1.39794 ,-0.50890 ,-4.99332 
435 ,80.5968 ,1.39969 ,-0.50206 ,-4.92617 
436 ,80.7730 ,1.40145 ,-0.51574 ,-5.06048 
437 ,80.9492 ,1.40328 ,-0.52601 ,-5.16121 
438 ,81.1413 ,1.40510 ,-0.54312 ,-5.32911 
439 ,81.3493 ,1.40723 ,-0.54654 ,-5.36268 
440 ,81.5414 ,1.40914 ,-0.57392 ,-5.63131 
441 ,81.7175 ,1.41096 ,-0.56365 ,-5.53058 
442 ,81.9095 ,1.41284 ,-0.59445 ,-5.83278 
443 ,82.0857 ,1.41462 ,-0.58419 ,-5.73205 
444 ,82.3096 ,1.41667 ,-0.59788 ,-5.86636 
445 ,82.4859 ,1.41862 ,-0.60472 ,-5.93352 
446 ,82.6937 ,1.42058 ,-0.61156 ,-6.00067 
447 ,82.8700 ,1.42243 ,-0.61499 ,-6.03425 
448 ,83.0619 ,1.42438 ,-0.63552 ,-6.23572 
449 ,83.2381 ,1.42615 ,-0.64236 ,-6.30288 
450 ,83.4141 ,1.42789 ,-0.64236 ,-6.30288 
451 ,83.6061 ,1.42983 ,-0.65605 ,-6.43719 
452 ,83.7663 ,1.43152 ,-0.67316 ,-6.60508 
453 ,83.9425 ,1.43314 ,-0.68001 ,-6.67224 
454 ,84.1345 ,1.43505 ,-0.66974 ,-6.57150 
455 ,84.3104 ,1.43681 ,-0.68001 ,-6.67224 
456 ,84.4865 ,1.43861 ,-0.70054 ,-6.87371 
457 ,84.6786 ,1.44050 ,-0.70054 ,-6.87371 
458 ,84.8547 ,1.44230 ,-0.70739 ,-6.94086 
459 ,85.0629 ,1.44435 ,-0.72450 ,-7.10876 
460 ,85.2547 ,1.44619 ,-0.72792 ,-7.14233 
461 ,85.4306 ,1.44805 ,-0.73134 ,-7.17591 
462 ,85.6069 ,1.44983 ,-0.74161 ,-7.27665 
463 ,85.8152 ,1.45180 ,-0.74161 ,-7.27665 
