Data stamp = , 12-04-2022 16:33:29 628

Calibration Values: 
Slope = , 26.54 , g/V 
Offset Voltage at no contact = , -0.501760 , V 

No , Time , Stage Position ,   Mass , Force 
   ,  (s) ,      (mm)      ,   (g)  , (mN)  

1 ,0.0000 ,0.54944 ,5.44567 ,53.43292 
2 ,0.2125 ,0.54953 ,5.43883 ,53.36576 
3 ,0.5328 ,0.55034 ,5.41487 ,53.13072 
4 ,0.7409 ,0.55180 ,5.42856 ,53.26503 
5 ,0.9492 ,0.55358 ,5.43540 ,53.33219 
6 ,1.1413 ,0.55558 ,5.41829 ,53.16429 
7 ,1.3175 ,0.55730 ,5.44567 ,53.43292 
8 ,1.5096 ,0.55912 ,5.45251 ,53.50008 
9 ,1.7015 ,0.56112 ,5.41829 ,53.16429 
10 ,1.8773 ,0.56292 ,5.41829 ,53.16429 
11 ,2.0536 ,0.56469 ,5.40460 ,53.02998 
12 ,2.2618 ,0.56677 ,5.37723 ,52.76135 
13 ,2.4538 ,0.56868 ,5.36696 ,52.66062 
14 ,2.6460 ,0.57052 ,5.34985 ,52.49273 
15 ,2.8540 ,0.57262 ,5.32247 ,52.22410 
16 ,3.0302 ,0.57448 ,5.31221 ,52.12337 
17 ,3.2222 ,0.57645 ,5.30194 ,52.02263 
18 ,3.3982 ,0.57817 ,5.27114 ,51.72043 
19 ,3.5744 ,0.57987 ,5.27114 ,51.72043 
20 ,3.7662 ,0.58183 ,5.24034 ,51.41822 
21 ,3.9424 ,0.58359 ,5.21296 ,51.14960 
22 ,4.1187 ,0.58543 ,5.22323 ,51.25033 
23 ,4.3105 ,0.58726 ,5.19243 ,50.94813 
24 ,4.5024 ,0.58913 ,5.17532 ,50.78023 
25 ,4.6787 ,0.59094 ,5.16848 ,50.71308 
26 ,4.8549 ,0.59276 ,5.15479 ,50.57876 
27 ,5.0466 ,0.59461 ,5.13083 ,50.34372 
28 ,5.2229 ,0.59640 ,5.11030 ,50.14225 
29 ,5.4310 ,0.59843 ,5.08634 ,49.90720 
30 ,5.5912 ,0.60019 ,5.05212 ,49.57142 
31 ,5.7993 ,0.60204 ,5.06581 ,49.70573 
32 ,6.0230 ,0.60430 ,5.02132 ,49.26921 
33 ,6.1830 ,0.60608 ,5.01790 ,49.23563 
34 ,6.3595 ,0.60779 ,5.01448 ,49.20205 
35 ,6.5676 ,0.60984 ,4.97683 ,48.83269 
36 ,6.7597 ,0.61174 ,4.98368 ,48.89985 
37 ,6.9677 ,0.61376 ,4.94946 ,48.56407 
38 ,7.1595 ,0.61580 ,4.93919 ,48.46333 
39 ,7.3358 ,0.61752 ,4.92892 ,48.36260 
40 ,7.5118 ,0.61929 ,4.90497 ,48.12755 
41 ,7.7039 ,0.62115 ,4.89128 ,47.99324 
42 ,7.8961 ,0.62311 ,4.87417 ,47.82534 
43 ,8.0721 ,0.62487 ,4.86048 ,47.69103 
44 ,8.2480 ,0.62663 ,4.82968 ,47.38883 
45 ,8.4244 ,0.62841 ,4.80915 ,47.18736 
46 ,8.6324 ,0.63041 ,4.80230 ,47.12020 
47 ,8.8402 ,0.63242 ,4.79888 ,47.08662 
48 ,9.0325 ,0.63446 ,4.78519 ,46.95231 
49 ,9.2247 ,0.63641 ,4.74755 ,46.58295 
50 ,9.4007 ,0.63818 ,4.75097 ,46.61653 
51 ,9.5768 ,0.63997 ,4.73386 ,46.44863 
52 ,9.7687 ,0.64176 ,4.70306 ,46.14643 
53 ,9.9609 ,0.64376 ,4.68937 ,46.01212 
54 ,10.1690 ,0.64565 ,4.67568 ,45.87780 
55 ,10.3610 ,0.64772 ,4.65857 ,45.70991 
56 ,10.5531 ,0.64971 ,4.65173 ,45.64275 
57 ,10.7453 ,0.65160 ,4.61751 ,45.30697 
58 ,10.9371 ,0.65352 ,4.61408 ,45.27339 
59 ,11.1293 ,0.65540 ,4.59013 ,45.03835 
60 ,11.3053 ,0.65717 ,4.57302 ,44.87045 
61 ,11.4971 ,0.65912 ,4.57302 ,44.87045 
62 ,11.6735 ,0.66084 ,4.55933 ,44.73614 
63 ,11.8655 ,0.66278 ,4.51826 ,44.33320 
64 ,12.0418 ,0.66454 ,4.51484 ,44.29962 
65 ,12.2178 ,0.66637 ,4.50457 ,44.19889 
66 ,12.3937 ,0.66806 ,4.50115 ,44.16531 
67 ,12.5699 ,0.66982 ,4.47378 ,43.89668 
68 ,12.7459 ,0.67158 ,4.44640 ,43.62806 
69 ,12.9220 ,0.67336 ,4.43613 ,43.52732 
70 ,13.0981 ,0.67513 ,4.42929 ,43.46016 
71 ,13.2742 ,0.67686 ,4.41218 ,43.29227 
72 ,13.4824 ,0.67891 ,4.39507 ,43.12438 
73 ,13.6583 ,0.68082 ,4.38822 ,43.05723 
74 ,13.8344 ,0.68252 ,4.37795 ,42.95649 
75 ,14.0105 ,0.68428 ,4.33004 ,42.48639 
76 ,14.1866 ,0.68603 ,4.32662 ,42.45282 
77 ,14.4107 ,0.68813 ,4.31636 ,42.35208 
78 ,14.6027 ,0.69008 ,4.29240 ,42.11703 
79 ,14.7949 ,0.69209 ,4.28556 ,42.04988 
80 ,14.9869 ,0.69403 ,4.25818 ,41.78125 
81 ,15.1628 ,0.69572 ,4.25476 ,41.74767 
82 ,15.3711 ,0.69776 ,4.22738 ,41.47905 
83 ,15.5472 ,0.69964 ,4.22053 ,41.41189 
84 ,15.7389 ,0.70151 ,4.20000 ,41.21042 
85 ,15.9474 ,0.70347 ,4.18974 ,41.10968 
86 ,16.1394 ,0.70552 ,4.17605 ,40.97537 
87 ,16.3317 ,0.70734 ,4.15209 ,40.74032 
88 ,16.5234 ,0.70931 ,4.13840 ,40.60601 
89 ,16.6995 ,0.71113 ,4.12471 ,40.47170 
90 ,16.8757 ,0.71289 ,4.12129 ,40.43812 
91 ,17.0676 ,0.71481 ,4.10076 ,40.23665 
92 ,17.2437 ,0.71655 ,4.06996 ,39.93444 
93 ,17.4358 ,0.71849 ,4.07338 ,39.96802 
94 ,17.6281 ,0.72025 ,4.04258 ,39.66582 
95 ,17.8197 ,0.72232 ,4.03916 ,39.63224 
96 ,18.0123 ,0.72419 ,4.01178 ,39.36361 
97 ,18.2203 ,0.72626 ,4.01863 ,39.43077 
98 ,18.4123 ,0.72822 ,3.98783 ,39.12856 
99 ,18.6045 ,0.73016 ,3.95361 ,38.79278 
100 ,18.7966 ,0.73203 ,3.95703 ,38.82636 
101 ,18.9724 ,0.73391 ,3.92281 ,38.49058 
102 ,19.1486 ,0.73573 ,3.91254 ,38.38984 
103 ,19.3247 ,0.73733 ,3.90570 ,38.32268 
104 ,19.5007 ,0.73918 ,3.90227 ,38.28911 
105 ,19.6927 ,0.74102 ,3.87832 ,38.05406 
106 ,19.8690 ,0.74283 ,3.86121 ,37.88617 
107 ,20.0610 ,0.74467 ,3.84752 ,37.75185 
108 ,20.2530 ,0.74662 ,3.83041 ,37.58396 
109 ,20.4292 ,0.74841 ,3.82356 ,37.51681 
110 ,20.6053 ,0.75013 ,3.80645 ,37.34891 
111 ,20.7972 ,0.75207 ,3.79619 ,37.24818 
112 ,20.9894 ,0.75389 ,3.79276 ,37.21460 
113 ,21.1815 ,0.75587 ,3.76196 ,36.91240 
114 ,21.3896 ,0.75796 ,3.73459 ,36.64377 
115 ,21.5816 ,0.75984 ,3.73459 ,36.64377 
116 ,21.7578 ,0.76169 ,3.72090 ,36.50946 
117 ,21.9337 ,0.76342 ,3.70721 ,36.37514 
118 ,22.1095 ,0.76526 ,3.68325 ,36.14010 
119 ,22.2859 ,0.76700 ,3.66614 ,35.97220 
120 ,22.4620 ,0.76870 ,3.65246 ,35.83789 
121 ,22.6381 ,0.77049 ,3.65246 ,35.83789 
122 ,22.8303 ,0.77227 ,3.64219 ,35.73716 
123 ,23.0063 ,0.77420 ,3.61139 ,35.43495 
124 ,23.1978 ,0.77602 ,3.59770 ,35.30064 
125 ,23.3744 ,0.77780 ,3.59428 ,35.26706 
126 ,23.5663 ,0.77975 ,3.56006 ,34.93128 
127 ,23.7426 ,0.78153 ,3.55663 ,34.89770 
128 ,23.9345 ,0.78347 ,3.54295 ,34.76338 
129 ,24.1267 ,0.78527 ,3.53952 ,34.72981 
130 ,24.3024 ,0.78709 ,3.50530 ,34.39402 
131 ,24.4788 ,0.78886 ,3.50188 ,34.36045 
132 ,24.6549 ,0.79069 ,3.49504 ,34.29329 
133 ,24.8311 ,0.79239 ,3.46424 ,33.99108 
134 ,25.0231 ,0.79432 ,3.45397 ,33.89035 
135 ,25.1991 ,0.79609 ,3.45397 ,33.89035 
136 ,25.3913 ,0.79800 ,3.41633 ,33.52099 
137 ,25.6152 ,0.80008 ,3.39579 ,33.31952 
138 ,25.7914 ,0.80201 ,3.38210 ,33.18520 
139 ,25.9994 ,0.80402 ,3.38210 ,33.18520 
140 ,26.1755 ,0.80582 ,3.35815 ,32.95016 
141 ,26.3513 ,0.80757 ,3.34446 ,32.81584 
142 ,26.5436 ,0.80947 ,3.34446 ,32.81584 
143 ,26.7358 ,0.81141 ,3.32051 ,32.58080 
144 ,27.0238 ,0.81377 ,3.30339 ,32.41290 
145 ,27.2000 ,0.81607 ,3.28971 ,32.27859 
146 ,27.4077 ,0.81813 ,3.26575 ,32.04354 
147 ,27.5840 ,0.81990 ,3.25891 ,31.97639 
148 ,27.7763 ,0.82180 ,3.24864 ,31.87565 
149 ,27.9523 ,0.82361 ,3.22126 ,31.60702 
150 ,28.1764 ,0.82572 ,3.21784 ,31.57345 
151 ,28.3524 ,0.82763 ,3.18704 ,31.27124 
152 ,28.5122 ,0.82931 ,3.15966 ,31.00262 
153 ,28.6886 ,0.83098 ,3.15624 ,30.96904 
154 ,28.8807 ,0.83280 ,3.15624 ,30.96904 
155 ,29.0568 ,0.83464 ,3.14940 ,30.90188 
156 ,29.2489 ,0.83649 ,3.12886 ,30.70041 
157 ,29.4410 ,0.83843 ,3.11518 ,30.56610 
158 ,29.6170 ,0.84028 ,3.10491 ,30.46536 
159 ,29.7930 ,0.84197 ,3.08438 ,30.26389 
160 ,29.9692 ,0.84376 ,3.07069 ,30.12958 
161 ,30.1611 ,0.84567 ,3.06726 ,30.09600 
162 ,30.3370 ,0.84745 ,3.05015 ,29.92811 
163 ,30.5130 ,0.84916 ,3.02620 ,29.69306 
164 ,30.6891 ,0.85094 ,3.01935 ,29.62590 
165 ,30.8655 ,0.85277 ,2.99540 ,29.39086 
166 ,31.0734 ,0.85478 ,2.98171 ,29.25654 
167 ,31.2497 ,0.85658 ,2.96460 ,29.08865 
168 ,31.4579 ,0.85860 ,2.95433 ,28.98792 
169 ,31.6495 ,0.86051 ,2.93722 ,28.82003 
170 ,31.8262 ,0.86233 ,2.93038 ,28.75287 
171 ,32.0021 ,0.86408 ,2.92696 ,28.71929 
172 ,32.1941 ,0.86590 ,2.89616 ,28.41709 
173 ,32.3862 ,0.86793 ,2.89616 ,28.41709 
174 ,32.5623 ,0.86968 ,2.88247 ,28.28277 
175 ,32.7539 ,0.87156 ,2.84825 ,27.94699 
176 ,32.9144 ,0.87334 ,2.83114 ,27.77910 
177 ,33.0904 ,0.87494 ,2.82087 ,27.67836 
178 ,33.2663 ,0.87672 ,2.82087 ,27.67836 
179 ,33.4425 ,0.87844 ,2.81745 ,27.64479 
180 ,33.6347 ,0.88038 ,2.78665 ,27.34258 
181 ,33.8105 ,0.88216 ,2.76954 ,27.17469 
182 ,33.9868 ,0.88395 ,2.76269 ,27.10753 
183 ,34.1950 ,0.88598 ,2.73531 ,26.83891 
184 ,34.3868 ,0.88783 ,2.73531 ,26.83891 
185 ,34.5630 ,0.88968 ,2.72163 ,26.70459 
186 ,34.7392 ,0.89147 ,2.72163 ,26.70459 
187 ,34.9149 ,0.89326 ,2.68740 ,26.36881 
188 ,35.1073 ,0.89507 ,2.68056 ,26.30165 
189 ,35.2991 ,0.89695 ,2.66003 ,26.10018 
190 ,35.4755 ,0.89883 ,2.64292 ,25.93229 
191 ,35.6675 ,0.90073 ,2.63265 ,25.83156 
192 ,35.8594 ,0.90255 ,2.62923 ,25.79798 
193 ,36.0516 ,0.90465 ,2.61554 ,25.66367 
194 ,36.2435 ,0.90642 ,2.59158 ,25.42862 
195 ,36.4199 ,0.90825 ,2.59158 ,25.42862 
196 ,36.6281 ,0.91027 ,2.57105 ,25.22715 
197 ,36.8201 ,0.91220 ,2.54367 ,24.95852 
198 ,37.0277 ,0.91424 ,2.54710 ,24.99210 
199 ,37.2042 ,0.91606 ,2.52656 ,24.79063 
200 ,37.3963 ,0.91794 ,2.49918 ,24.52200 
201 ,37.5882 ,0.91985 ,2.49576 ,24.48842 
202 ,37.7642 ,0.92163 ,2.47181 ,24.25338 
203 ,37.9564 ,0.92354 ,2.45127 ,24.05191 
204 ,38.1323 ,0.92531 ,2.43759 ,23.91759 
205 ,38.3083 ,0.92714 ,2.43416 ,23.88402 
206 ,38.4846 ,0.92883 ,2.42048 ,23.74970 
207 ,38.6607 ,0.93065 ,2.42048 ,23.74970 
208 ,38.8687 ,0.93256 ,2.39310 ,23.48108 
209 ,39.0770 ,0.93472 ,2.37941 ,23.34676 
210 ,39.2687 ,0.93668 ,2.37599 ,23.31318 
211 ,39.4448 ,0.93843 ,2.34861 ,23.04456 
212 ,39.6209 ,0.94024 ,2.34861 ,23.04456 
213 ,39.7970 ,0.94197 ,2.32465 ,22.80951 
214 ,39.9569 ,0.94374 ,2.30754 ,22.64162 
215 ,40.1330 ,0.94534 ,2.28701 ,22.44015 
216 ,40.3090 ,0.94708 ,2.28701 ,22.44015 
217 ,40.4691 ,0.94884 ,2.28017 ,22.37299 
218 ,40.6452 ,0.95046 ,2.26306 ,22.20510 
219 ,40.8213 ,0.95224 ,2.26648 ,22.23868 
220 ,40.9974 ,0.95398 ,2.23910 ,21.97005 
221 ,41.1735 ,0.95572 ,2.22541 ,21.83574 
222 ,41.3496 ,0.95750 ,2.20488 ,21.63427 
223 ,41.5095 ,0.95922 ,2.18435 ,21.43280 
224 ,41.6857 ,0.96088 ,2.19119 ,21.49996 
225 ,41.8618 ,0.96261 ,2.18435 ,21.43280 
226 ,42.0378 ,0.96451 ,2.15012 ,21.09702 
227 ,42.1979 ,0.96613 ,2.12617 ,20.86197 
228 ,42.3739 ,0.96776 ,2.12617 ,20.86197 
229 ,42.5500 ,0.96949 ,2.10906 ,20.69408 
230 ,42.7260 ,0.97126 ,2.11932 ,20.79481 
231 ,42.9021 ,0.97299 ,2.09879 ,20.59334 
232 ,43.0782 ,0.97478 ,2.08168 ,20.42545 
233 ,43.2543 ,0.97656 ,2.06457 ,20.25756 
234 ,43.4304 ,0.97827 ,2.04746 ,20.08967 
235 ,43.6064 ,0.98010 ,2.04404 ,20.05609 
236 ,43.7825 ,0.98181 ,2.05088 ,20.12325 
237 ,43.9749 ,0.98365 ,2.01666 ,19.78746 
238 ,44.1669 ,0.98569 ,2.01324 ,19.75388 
239 ,44.3591 ,0.98761 ,1.98244 ,19.45168 
240 ,44.5187 ,0.98933 ,1.96533 ,19.28379 
241 ,44.7107 ,0.99107 ,1.96190 ,19.25021 
242 ,44.8871 ,0.99287 ,1.95506 ,19.18305 
243 ,45.0953 ,0.99488 ,1.91742 ,18.81369 
244 ,45.2875 ,0.99678 ,1.92426 ,18.88085 
245 ,45.4793 ,0.99879 ,1.90031 ,18.64580 
246 ,45.6396 ,1.00051 ,1.89004 ,18.54507 
247 ,45.8157 ,1.00216 ,1.87977 ,18.44433 
248 ,45.9914 ,1.00391 ,1.87293 ,18.37717 
249 ,46.1679 ,1.00570 ,1.86266 ,18.27644 
250 ,46.3597 ,1.00755 ,1.83186 ,17.97423 
251 ,46.5360 ,1.00936 ,1.81817 ,17.83992 
252 ,46.6960 ,1.01108 ,1.80791 ,17.73919 
253 ,46.8721 ,1.01270 ,1.79422 ,17.60487 
254 ,47.0642 ,1.01465 ,1.80106 ,17.67203 
255 ,47.2563 ,1.01650 ,1.77026 ,17.36983 
256 ,47.4323 ,1.01834 ,1.74973 ,17.16836 
257 ,47.6083 ,1.02010 ,1.75657 ,17.23551 
258 ,47.8005 ,1.02198 ,1.72578 ,16.93331 
259 ,47.9924 ,1.02383 ,1.71893 ,16.86615 
260 ,48.1847 ,1.02578 ,1.72235 ,16.89973 
261 ,48.3768 ,1.02766 ,1.69840 ,16.66468 
262 ,48.5526 ,1.02953 ,1.67786 ,16.46321 
263 ,48.7606 ,1.03145 ,1.66075 ,16.29532 
264 ,48.9370 ,1.03341 ,1.65049 ,16.19458 
265 ,49.1292 ,1.03527 ,1.65391 ,16.22816 
266 ,49.3050 ,1.03708 ,1.63680 ,16.06027 
267 ,49.4813 ,1.03883 ,1.63338 ,16.02669 
268 ,49.6732 ,1.04072 ,1.59231 ,15.62375 
269 ,49.8490 ,1.04250 ,1.59916 ,15.69091 
270 ,50.0257 ,1.04430 ,1.58204 ,15.52302 
271 ,50.2172 ,1.04613 ,1.56493 ,15.35513 
272 ,50.3936 ,1.04790 ,1.54782 ,15.18724 
273 ,50.5857 ,1.04983 ,1.54782 ,15.18724 
274 ,50.7776 ,1.05167 ,1.51360 ,14.85145 
275 ,50.9534 ,1.05355 ,1.51360 ,14.85145 
276 ,51.1300 ,1.05524 ,1.48965 ,14.61640 
277 ,51.3058 ,1.05709 ,1.50333 ,14.75072 
278 ,51.5140 ,1.05902 ,1.46569 ,14.38136 
279 ,51.7060 ,1.06104 ,1.46227 ,14.34778 
280 ,51.8823 ,1.06279 ,1.44174 ,14.14631 
281 ,52.0581 ,1.06453 ,1.43831 ,14.11273 
282 ,52.2341 ,1.06633 ,1.41436 ,13.87768 
283 ,52.4264 ,1.06820 ,1.41778 ,13.91126 
284 ,52.6185 ,1.07012 ,1.39383 ,13.67621 
285 ,52.7944 ,1.07190 ,1.37671 ,13.50832 
286 ,52.9866 ,1.07374 ,1.36987 ,13.44116 
287 ,53.1786 ,1.07581 ,1.35618 ,13.30685 
288 ,53.3708 ,1.07769 ,1.33565 ,13.10538 
289 ,53.5468 ,1.07947 ,1.34249 ,13.17254 
290 ,53.7227 ,1.08116 ,1.32880 ,13.03822 
291 ,53.8984 ,1.08296 ,1.30143 ,12.76960 
292 ,54.0905 ,1.08483 ,1.30143 ,12.76960 
293 ,54.2666 ,1.08672 ,1.28089 ,12.56813 
294 ,54.4427 ,1.08839 ,1.28432 ,12.60171 
295 ,54.6189 ,1.09018 ,1.24667 ,12.23235 
296 ,54.8592 ,1.09253 ,1.23298 ,12.09803 
297 ,55.0670 ,1.09465 ,1.23983 ,12.16519 
298 ,55.2432 ,1.09640 ,1.20903 ,11.86298 
299 ,55.4356 ,1.09824 ,1.19192 ,11.69509 
300 ,55.6275 ,1.10016 ,1.18850 ,11.66151 
301 ,55.8198 ,1.10215 ,1.17138 ,11.49362 
302 ,55.9958 ,1.10397 ,1.15770 ,11.35931 
303 ,56.2039 ,1.10589 ,1.14743 ,11.25857 
304 ,56.3800 ,1.10782 ,1.13716 ,11.15784 
305 ,56.5717 ,1.10964 ,1.11663 ,10.95637 
306 ,56.7480 ,1.11147 ,1.11321 ,10.92279 
307 ,56.9402 ,1.11330 ,1.08241 ,10.62059 
308 ,57.1163 ,1.11509 ,1.07556 ,10.55343 
309 ,57.3082 ,1.11703 ,1.06872 ,10.48627 
310 ,57.5164 ,1.11899 ,1.05161 ,10.31838 
311 ,57.7085 ,1.12109 ,1.02423 ,10.04976 
312 ,57.9006 ,1.12296 ,1.04134 ,10.21765 
313 ,58.0767 ,1.12471 ,1.00028 ,9.81471 
314 ,58.2687 ,1.12662 ,1.01396 ,9.94902 
315 ,58.4284 ,1.12837 ,0.98659 ,9.68039 
316 ,58.6047 ,1.13006 ,0.98659 ,9.68039 
317 ,58.7969 ,1.13179 ,0.96948 ,9.51250 
318 ,58.9729 ,1.13369 ,0.94552 ,9.27745 
319 ,59.1812 ,1.13568 ,0.95237 ,9.34461 
320 ,59.3573 ,1.13756 ,0.92157 ,9.04241 
321 ,59.5653 ,1.13943 ,0.90446 ,8.87451 
322 ,59.7574 ,1.14156 ,0.90446 ,8.87451 
323 ,59.9332 ,1.14329 ,0.90446 ,8.87451 
324 ,60.1092 ,1.14503 ,0.88734 ,8.70662 
325 ,60.2856 ,1.14678 ,0.87708 ,8.60589 
326 ,60.4776 ,1.14876 ,0.85312 ,8.37084 
327 ,60.6534 ,1.15045 ,0.85312 ,8.37084 
328 ,60.8457 ,1.15242 ,0.82917 ,8.13579 
329 ,61.0218 ,1.15417 ,0.80521 ,7.90074 
330 ,61.1978 ,1.15594 ,0.78810 ,7.73285 
331 ,61.3740 ,1.15766 ,0.80521 ,7.90074 
332 ,61.5818 ,1.15970 ,0.77441 ,7.59854 
333 ,61.7582 ,1.16157 ,0.75730 ,7.43065 
334 ,61.9502 ,1.16342 ,0.76757 ,7.53138 
335 ,62.1262 ,1.16518 ,0.74704 ,7.32991 
336 ,62.3024 ,1.16698 ,0.71966 ,7.06129 
337 ,62.4944 ,1.16881 ,0.72650 ,7.12844 
338 ,62.7024 ,1.17088 ,0.69570 ,6.82624 
339 ,62.8786 ,1.17273 ,0.69228 ,6.79266 
340 ,63.0706 ,1.17459 ,0.67859 ,6.65835 
341 ,63.2467 ,1.17639 ,0.66833 ,6.55761 
342 ,63.4229 ,1.17816 ,0.65121 ,6.38972 
343 ,63.5990 ,1.17995 ,0.63753 ,6.25541 
344 ,63.7909 ,1.18177 ,0.64779 ,6.35614 
345 ,63.9671 ,1.18359 ,0.63753 ,6.25541 
346 ,64.1430 ,1.18543 ,0.62042 ,6.08752 
347 ,64.3193 ,1.18709 ,0.59988 ,5.88605 
348 ,64.5109 ,1.18912 ,0.57935 ,5.68458 
349 ,64.6873 ,1.19081 ,0.58277 ,5.71815 
350 ,64.8633 ,1.19254 ,0.55539 ,5.44953 
351 ,65.0394 ,1.19432 ,0.55539 ,5.44953 
352 ,65.2155 ,1.19611 ,0.55539 ,5.44953 
353 ,65.3916 ,1.19783 ,0.53828 ,5.28164 
354 ,65.5834 ,1.19973 ,0.51091 ,5.01301 
355 ,65.7757 ,1.20159 ,0.51775 ,5.08017 
356 ,65.9517 ,1.20346 ,0.50064 ,4.91228 
357 ,66.1438 ,1.20533 ,0.46300 ,4.54291 
358 ,66.3200 ,1.20712 ,0.45957 ,4.50934 
359 ,66.5118 ,1.20901 ,0.46642 ,4.57649 
360 ,66.7038 ,1.21097 ,0.43904 ,4.30787 
361 ,66.8802 ,1.21274 ,0.42877 ,4.20713 
362 ,67.0722 ,1.21460 ,0.43562 ,4.27429 
363 ,67.2643 ,1.21662 ,0.41509 ,4.07282 
364 ,67.4563 ,1.21844 ,0.39797 ,3.90493 
365 ,67.6325 ,1.22022 ,0.39797 ,3.90493 
366 ,67.8245 ,1.22212 ,0.37744 ,3.70346 
367 ,68.0326 ,1.22407 ,0.36033 ,3.53557 
368 ,68.2243 ,1.22618 ,0.34664 ,3.40125 
369 ,68.4008 ,1.22792 ,0.34322 ,3.36767 
370 ,68.5769 ,1.22971 ,0.32269 ,3.16620 
371 ,68.7848 ,1.23169 ,0.30558 ,2.99831 
372 ,68.9609 ,1.23353 ,0.29873 ,2.93116 
373 ,69.1368 ,1.23526 ,0.29873 ,2.93116 
374 ,69.3292 ,1.23713 ,0.29189 ,2.86400 
375 ,69.5211 ,1.23904 ,0.27135 ,2.66253 
376 ,69.7132 ,1.24114 ,0.25082 ,2.46106 
377 ,69.8893 ,1.24280 ,0.25424 ,2.49464 
378 ,70.0653 ,1.24459 ,0.24398 ,2.39390 
379 ,70.2415 ,1.24633 ,0.22002 ,2.15885 
380 ,70.4334 ,1.24822 ,0.22687 ,2.22601 
381 ,70.6097 ,1.25001 ,0.22344 ,2.19243 
382 ,70.8018 ,1.25192 ,0.18238 ,1.78949 
383 ,71.0257 ,1.25404 ,0.18922 ,1.85665 
384 ,71.2015 ,1.25589 ,0.16869 ,1.65518 
385 ,71.3940 ,1.25774 ,0.16185 ,1.58802 
386 ,71.5859 ,1.25971 ,0.14816 ,1.45371 
387 ,71.7621 ,1.26150 ,0.14131 ,1.38655 
388 ,71.9381 ,1.26328 ,0.13447 ,1.31940 
389 ,72.1141 ,1.26501 ,0.13789 ,1.35298 
390 ,72.2903 ,1.26678 ,0.11393 ,1.11793 
391 ,72.4663 ,1.26860 ,0.10025 ,0.98361 
392 ,72.6745 ,1.27058 ,0.11051 ,1.08435 
393 ,72.8505 ,1.27249 ,0.07629 ,0.74857 
394 ,73.0268 ,1.27418 ,0.06945 ,0.68141 
395 ,73.2188 ,1.27596 ,0.05576 ,0.54710 
396 ,73.4108 ,1.27796 ,0.06260 ,0.61425 
397 ,73.6028 ,1.27984 ,0.04207 ,0.41278 
398 ,73.7789 ,1.28169 ,0.03522 ,0.34563 
399 ,73.9710 ,1.28355 ,0.02838 ,0.27847 
400 ,74.1792 ,1.28562 ,0.00785 ,0.07700 
401 ,74.3548 ,1.28743 ,0.00785 ,0.07700 
402 ,74.5311 ,1.28919 ,0.00100 ,0.00984 
403 ,74.7394 ,1.29123 ,-0.01953 ,-0.19163 
404 ,74.9150 ,1.29310 ,-0.01953 ,-0.19163 
405 ,75.0914 ,1.29478 ,-0.02637 ,-0.25878 
406 ,75.2676 ,1.29657 ,-0.03664 ,-0.35952 
407 ,75.4592 ,1.29849 ,-0.05717 ,-0.56099 
408 ,75.6677 ,1.30055 ,-0.08113 ,-0.79604 
409 ,75.8599 ,1.30244 ,-0.07428 ,-0.72888 
410 ,76.0678 ,1.30440 ,-0.08455 ,-0.82961 
411 ,76.2760 ,1.30648 ,-0.08455 ,-0.82961 
412 ,76.4677 ,1.30854 ,-0.11193 ,-1.09824 
413 ,76.6281 ,1.31028 ,-0.13246 ,-1.29971 
414 ,76.8204 ,1.31208 ,-0.12219 ,-1.19898 
415 ,76.9963 ,1.31388 ,-0.13588 ,-1.33329 
416 ,77.1883 ,1.31574 ,-0.14273 ,-1.40045 
417 ,77.3804 ,1.31757 ,-0.15299 ,-1.50118 
418 ,77.5721 ,1.31955 ,-0.15642 ,-1.53476 
419 ,77.7486 ,1.32138 ,-0.16668 ,-1.63549 
420 ,77.9406 ,1.32324 ,-0.19064 ,-1.87054 
421 ,78.1328 ,1.32521 ,-0.18379 ,-1.80338 
422 ,78.3248 ,1.32713 ,-0.20433 ,-2.00485 
423 ,78.5168 ,1.32903 ,-0.21117 ,-2.07201 
424 ,78.6926 ,1.33079 ,-0.21459 ,-2.10559 
425 ,78.8690 ,1.33259 ,-0.21802 ,-2.13917 
426 ,79.0451 ,1.33438 ,-0.25908 ,-2.54211 
427 ,79.2213 ,1.33613 ,-0.25224 ,-2.47495 
428 ,79.3972 ,1.33788 ,-0.25224 ,-2.47495 
429 ,79.5732 ,1.33957 ,-0.25566 ,-2.50853 
430 ,79.7490 ,1.34145 ,-0.26935 ,-2.64284 
431 ,79.9254 ,1.34315 ,-0.29330 ,-2.87789 
432 ,80.1017 ,1.34490 ,-0.29673 ,-2.91147 
433 ,80.2936 ,1.34674 ,-0.29673 ,-2.91147 
434 ,80.4856 ,1.34866 ,-0.32410 ,-3.18010 
435 ,80.6778 ,1.35059 ,-0.32410 ,-3.18010 
436 ,80.8537 ,1.35242 ,-0.32410 ,-3.18010 
437 ,81.0300 ,1.35417 ,-0.32410 ,-3.18010 
438 ,81.2381 ,1.35615 ,-0.34464 ,-3.38156 
439 ,81.4301 ,1.35814 ,-0.35148 ,-3.44872 
440 ,81.6059 ,1.35991 ,-0.36859 ,-3.61661 
441 ,81.7982 ,1.36172 ,-0.39255 ,-3.85166 
442 ,81.9902 ,1.36378 ,-0.37544 ,-3.68377 
443 ,82.1823 ,1.36563 ,-0.39939 ,-3.91882 
444 ,82.3584 ,1.36746 ,-0.39255 ,-3.85166 
445 ,82.5344 ,1.36924 ,-0.40281 ,-3.95240 
446 ,82.7105 ,1.37096 ,-0.41308 ,-4.05313 
447 ,82.9185 ,1.37290 ,-0.43019 ,-4.22102 
448 ,83.1107 ,1.37496 ,-0.42335 ,-4.15387 
449 ,83.3188 ,1.37698 ,-0.44046 ,-4.32176 
450 ,83.5107 ,1.37891 ,-0.45757 ,-4.48965 
451 ,83.7028 ,1.38089 ,-0.46783 ,-4.59038 
452 ,83.8950 ,1.38280 ,-0.46441 ,-4.55681 
453 ,84.0871 ,1.38485 ,-0.49179 ,-4.82543 
454 ,84.2629 ,1.38650 ,-0.48837 ,-4.79185 
455 ,84.4551 ,1.38838 ,-0.48837 ,-4.79185 
456 ,84.6314 ,1.39014 ,-0.49521 ,-4.85901 
457 ,84.8233 ,1.39204 ,-0.52259 ,-5.12764 
458 ,85.0155 ,1.39392 ,-0.50890 ,-4.99332 
459 ,85.2076 ,1.39587 ,-0.53970 ,-5.29553 
460 ,85.4156 ,1.39793 ,-0.52601 ,-5.16121 
461 ,85.5917 ,1.39973 ,-0.54997 ,-5.39626 
462 ,85.7836 ,1.40164 ,-0.56708 ,-5.56415 
463 ,85.9919 ,1.40361 ,-0.57734 ,-5.66489 
464 ,86.1838 ,1.40564 ,-0.58077 ,-5.69847 
