Data stamp = , 12-04-2022 19:50:36 016

Calibration Values: 
Slope = , 26.54 , g/V 
Offset Voltage at no contact = , -0.501760 , V 

No , Time , Stage Position ,   Mass , Force 
   ,  (s) ,      (mm)      ,   (g)  , (mN)  

1 ,0.0000 ,0.54932 ,5.41487 ,53.13072 
2 ,0.2221 ,0.54943 ,5.41829 ,53.16429 
3 ,0.4624 ,0.55008 ,5.41145 ,53.09714 
4 ,0.6702 ,0.55129 ,5.41487 ,53.13072 
5 ,0.8464 ,0.55266 ,5.42172 ,53.19787 
6 ,1.0388 ,0.55438 ,5.42514 ,53.23145 
7 ,1.2627 ,0.55657 ,5.41487 ,53.13072 
8 ,1.4387 ,0.55842 ,5.40803 ,53.06356 
9 ,1.6148 ,0.56021 ,5.39434 ,52.92925 
10 ,1.7910 ,0.56203 ,5.37381 ,52.72778 
11 ,1.9672 ,0.56381 ,5.39434 ,52.92925 
12 ,2.1430 ,0.56552 ,5.37038 ,52.69420 
13 ,2.3193 ,0.56730 ,5.34643 ,52.45915 
14 ,2.5112 ,0.56915 ,5.33274 ,52.32484 
15 ,2.6874 ,0.57097 ,5.31221 ,52.12337 
16 ,2.8634 ,0.57272 ,5.30878 ,52.08979 
17 ,3.0395 ,0.57448 ,5.28483 ,51.85474 
18 ,3.2314 ,0.57636 ,5.27798 ,51.78758 
19 ,3.4237 ,0.57824 ,5.24376 ,51.45180 
20 ,3.5998 ,0.58015 ,5.22665 ,51.28391 
21 ,3.7920 ,0.58197 ,5.21981 ,51.21675 
22 ,3.9838 ,0.58388 ,5.20612 ,51.08244 
23 ,4.1600 ,0.58569 ,5.18901 ,50.91455 
24 ,4.3518 ,0.58758 ,5.16848 ,50.71308 
25 ,4.5283 ,0.58936 ,5.16505 ,50.67950 
26 ,4.6881 ,0.59110 ,5.14452 ,50.47803 
27 ,4.8803 ,0.59285 ,5.12399 ,50.27656 
28 ,5.0403 ,0.59458 ,5.08977 ,49.94078 
29 ,5.2324 ,0.59642 ,5.08634 ,49.90720 
30 ,5.4245 ,0.59827 ,5.06923 ,49.73931 
31 ,5.6005 ,0.60008 ,5.05554 ,49.60499 
32 ,5.7767 ,0.60184 ,5.03501 ,49.40352 
33 ,5.9688 ,0.60368 ,5.01790 ,49.23563 
34 ,6.1448 ,0.60551 ,5.02132 ,49.26921 
35 ,6.3210 ,0.60731 ,4.99052 ,48.96701 
36 ,6.4969 ,0.60907 ,4.96315 ,48.69838 
37 ,6.7048 ,0.61096 ,4.95630 ,48.63122 
38 ,6.8811 ,0.61287 ,4.95288 ,48.59764 
39 ,7.0892 ,0.61497 ,4.92892 ,48.36260 
40 ,7.2974 ,0.61701 ,4.90839 ,48.16113 
41 ,7.4731 ,0.61881 ,4.88101 ,47.89250 
42 ,7.6494 ,0.62055 ,4.87759 ,47.85892 
43 ,7.8251 ,0.62229 ,4.86732 ,47.75819 
44 ,8.0015 ,0.62405 ,4.84679 ,47.55672 
45 ,8.1935 ,0.62592 ,4.81599 ,47.25451 
46 ,8.3697 ,0.62775 ,4.81599 ,47.25451 
47 ,8.5457 ,0.62953 ,4.80573 ,47.15378 
48 ,8.7216 ,0.63125 ,4.78177 ,46.91873 
49 ,8.8979 ,0.63306 ,4.75782 ,46.68368 
50 ,9.0738 ,0.63477 ,4.74755 ,46.58295 
51 ,9.2501 ,0.63657 ,4.74070 ,46.51579 
52 ,9.4423 ,0.63845 ,4.71675 ,46.28074 
53 ,9.6342 ,0.64041 ,4.69964 ,46.11285 
54 ,9.8102 ,0.64220 ,4.70306 ,46.14643 
55 ,10.0340 ,0.64439 ,4.66884 ,45.81065 
56 ,10.2104 ,0.64619 ,4.65515 ,45.67633 
57 ,10.4022 ,0.64800 ,4.64831 ,45.60918 
58 ,10.5945 ,0.64997 ,4.61066 ,45.23981 
59 ,10.7707 ,0.65178 ,4.60040 ,45.13908 
60 ,10.9624 ,0.65367 ,4.58671 ,45.00477 
61 ,11.1389 ,0.65546 ,4.55591 ,44.70256 
62 ,11.3310 ,0.65737 ,4.56617 ,44.80330 
63 ,11.5229 ,0.65927 ,4.54222 ,44.56825 
64 ,11.7310 ,0.66131 ,4.51826 ,44.33320 
65 ,11.9230 ,0.66320 ,4.50457 ,44.19889 
66 ,12.0992 ,0.66511 ,4.49431 ,44.09815 
67 ,12.2752 ,0.66680 ,4.47378 ,43.89668 
68 ,12.4513 ,0.66854 ,4.46693 ,43.82953 
69 ,12.6593 ,0.67062 ,4.42929 ,43.46016 
70 ,12.8356 ,0.67237 ,4.41560 ,43.32585 
71 ,13.0112 ,0.67419 ,4.40533 ,43.22512 
72 ,13.2035 ,0.67603 ,4.39164 ,43.09080 
73 ,13.3957 ,0.67808 ,4.37453 ,42.92291 
74 ,13.5874 ,0.67991 ,4.36769 ,42.85576 
75 ,13.7636 ,0.68164 ,4.34031 ,42.58713 
76 ,13.9398 ,0.68342 ,4.31293 ,42.31850 
77 ,14.1159 ,0.68518 ,4.30951 ,42.28492 
78 ,14.2918 ,0.68693 ,4.30609 ,42.25135 
79 ,14.4842 ,0.68884 ,4.28556 ,42.04988 
80 ,14.6602 ,0.69063 ,4.26502 ,41.84841 
81 ,14.8683 ,0.69257 ,4.26502 ,41.84841 
82 ,15.0439 ,0.69451 ,4.23765 ,41.57978 
83 ,15.2201 ,0.69623 ,4.21369 ,41.34473 
84 ,15.3967 ,0.69805 ,4.20000 ,41.21042 
85 ,15.6042 ,0.70002 ,4.18974 ,41.10968 
86 ,15.7806 ,0.70184 ,4.17262 ,40.94179 
87 ,15.9567 ,0.70359 ,4.16236 ,40.84106 
88 ,16.1327 ,0.70533 ,4.14867 ,40.70674 
89 ,16.3244 ,0.70728 ,4.12814 ,40.50527 
90 ,16.5008 ,0.70903 ,4.11787 ,40.40454 
91 ,16.6767 ,0.71084 ,4.10418 ,40.27023 
92 ,16.8527 ,0.71254 ,4.09391 ,40.16949 
93 ,17.0290 ,0.71432 ,4.08023 ,40.03518 
94 ,17.2209 ,0.71621 ,4.04600 ,39.69940 
95 ,17.3973 ,0.71804 ,4.03916 ,39.63224 
96 ,17.5893 ,0.71992 ,4.03574 ,39.59866 
97 ,17.7655 ,0.72171 ,4.00494 ,39.29646 
98 ,17.9734 ,0.72369 ,3.99809 ,39.22930 
99 ,18.1496 ,0.72554 ,3.99809 ,39.22930 
100 ,18.3256 ,0.72731 ,3.96387 ,38.89352 
101 ,18.5015 ,0.72900 ,3.95018 ,38.75920 
102 ,18.6938 ,0.73092 ,3.94676 ,38.72562 
103 ,18.8859 ,0.73282 ,3.90912 ,38.35626 
104 ,19.0938 ,0.73499 ,3.92281 ,38.49058 
105 ,19.2860 ,0.73691 ,3.89543 ,38.22195 
106 ,19.4617 ,0.73869 ,3.88516 ,38.12122 
107 ,19.6542 ,0.74048 ,3.88174 ,38.08764 
108 ,19.8302 ,0.74239 ,3.82356 ,37.51681 
109 ,20.0063 ,0.74410 ,3.83041 ,37.58396 
110 ,20.1824 ,0.74583 ,3.81672 ,37.44965 
111 ,20.3745 ,0.74773 ,3.81330 ,37.41607 
112 ,20.5660 ,0.74966 ,3.78250 ,37.11387 
113 ,20.7425 ,0.75141 ,3.76196 ,36.91240 
114 ,20.9187 ,0.75324 ,3.75854 ,36.87882 
115 ,21.0948 ,0.75500 ,3.74485 ,36.74450 
116 ,21.3025 ,0.75700 ,3.71748 ,36.47588 
117 ,21.4790 ,0.75882 ,3.71063 ,36.40872 
118 ,21.6709 ,0.76067 ,3.69010 ,36.20725 
119 ,21.8471 ,0.76251 ,3.67983 ,36.10652 
120 ,22.0551 ,0.76452 ,3.67299 ,36.03936 
121 ,22.2471 ,0.76657 ,3.64219 ,35.73716 
122 ,22.4392 ,0.76839 ,3.63192 ,35.63642 
123 ,22.6152 ,0.77020 ,3.63192 ,35.63642 
124 ,22.8075 ,0.77205 ,3.58743 ,35.19990 
125 ,22.9835 ,0.77390 ,3.58743 ,35.19990 
126 ,23.1595 ,0.77559 ,3.57375 ,35.06559 
127 ,23.3357 ,0.77736 ,3.58059 ,35.13275 
128 ,23.5277 ,0.77930 ,3.54637 ,34.79696 
129 ,23.7037 ,0.78103 ,3.52241 ,34.56192 
130 ,23.8794 ,0.78282 ,3.50872 ,34.42760 
131 ,24.0555 ,0.78454 ,3.50872 ,34.42760 
132 ,24.2154 ,0.78626 ,3.50188 ,34.36045 
133 ,24.4077 ,0.78806 ,3.48477 ,34.19255 
134 ,24.5837 ,0.78985 ,3.45397 ,33.89035 
135 ,24.7600 ,0.79161 ,3.44713 ,33.82319 
136 ,24.9681 ,0.79364 ,3.43686 ,33.72246 
137 ,25.1443 ,0.79545 ,3.42317 ,33.58814 
138 ,25.3204 ,0.79721 ,3.40948 ,33.45383 
139 ,25.4965 ,0.79900 ,3.40948 ,33.45383 
140 ,25.6723 ,0.80077 ,3.37868 ,33.15163 
141 ,25.8487 ,0.80249 ,3.36157 ,32.98374 
142 ,26.0247 ,0.80431 ,3.36499 ,33.01731 
143 ,26.2168 ,0.80619 ,3.35473 ,32.91658 
144 ,26.3927 ,0.80792 ,3.34104 ,32.78227 
145 ,26.5689 ,0.80970 ,3.30339 ,32.41290 
146 ,26.7450 ,0.81141 ,3.28628 ,32.24501 
147 ,26.9529 ,0.81348 ,3.29997 ,32.37933 
148 ,27.1290 ,0.81527 ,3.25548 ,31.94281 
149 ,27.3213 ,0.81718 ,3.25548 ,31.94281 
150 ,27.4976 ,0.81900 ,3.23837 ,31.77492 
151 ,27.6735 ,0.82074 ,3.23153 ,31.70776 
152 ,27.8652 ,0.82257 ,3.20073 ,31.40555 
153 ,28.0412 ,0.82438 ,3.19046 ,31.30482 
154 ,28.2176 ,0.82617 ,3.19046 ,31.30482 
155 ,28.3935 ,0.82794 ,3.18020 ,31.20409 
156 ,28.5698 ,0.82970 ,3.14940 ,30.90188 
157 ,28.7459 ,0.83149 ,3.13571 ,30.76757 
158 ,28.9379 ,0.83337 ,3.13229 ,30.73399 
159 ,29.0977 ,0.83506 ,3.12202 ,30.63325 
160 ,29.2741 ,0.83678 ,3.10491 ,30.46536 
161 ,29.4662 ,0.83860 ,3.08438 ,30.26389 
162 ,29.6743 ,0.84066 ,3.08780 ,30.29747 
163 ,29.8984 ,0.84289 ,3.05015 ,29.92811 
164 ,30.0904 ,0.84493 ,3.03647 ,29.79380 
165 ,30.2823 ,0.84675 ,3.02962 ,29.72664 
166 ,30.4586 ,0.84857 ,3.02278 ,29.65948 
167 ,30.6346 ,0.85040 ,3.00567 ,29.49159 
168 ,30.8268 ,0.85225 ,2.97487 ,29.18939 
169 ,31.0027 ,0.85407 ,2.98855 ,29.32370 
170 ,31.1949 ,0.85592 ,2.96460 ,29.08865 
171 ,31.3870 ,0.85783 ,2.94407 ,28.88718 
172 ,31.5791 ,0.85978 ,2.92353 ,28.68571 
173 ,31.7711 ,0.86163 ,2.89616 ,28.41709 
174 ,31.9472 ,0.86346 ,2.88931 ,28.34993 
175 ,32.1393 ,0.86538 ,2.88589 ,28.31635 
176 ,32.3309 ,0.86722 ,2.86536 ,28.11488 
177 ,32.5233 ,0.86916 ,2.85509 ,28.01415 
178 ,32.6996 ,0.87101 ,2.83456 ,27.81268 
179 ,32.8915 ,0.87284 ,2.81745 ,27.64479 
180 ,33.0835 ,0.87475 ,2.81060 ,27.57763 
181 ,33.2595 ,0.87657 ,2.80376 ,27.51047 
182 ,33.4358 ,0.87834 ,2.79349 ,27.40974 
183 ,33.6276 ,0.88026 ,2.77296 ,27.20827 
184 ,33.8037 ,0.88205 ,2.76269 ,27.10753 
185 ,33.9799 ,0.88376 ,2.74216 ,26.90606 
186 ,34.1561 ,0.88557 ,2.73531 ,26.83891 
187 ,34.3319 ,0.88733 ,2.71478 ,26.63744 
188 ,34.5083 ,0.88902 ,2.69425 ,26.43597 
189 ,34.7004 ,0.89099 ,2.69767 ,26.46954 
190 ,34.9086 ,0.89299 ,2.67029 ,26.20092 
191 ,35.1165 ,0.89504 ,2.67029 ,26.20092 
192 ,35.3085 ,0.89701 ,2.63607 ,25.86514 
193 ,35.4842 ,0.89880 ,2.63265 ,25.83156 
194 ,35.6607 ,0.90057 ,2.61212 ,25.63009 
195 ,35.8687 ,0.90259 ,2.59501 ,25.46220 
196 ,36.0448 ,0.90444 ,2.58132 ,25.32788 
197 ,36.2369 ,0.90631 ,2.58474 ,25.36146 
198 ,36.4129 ,0.90810 ,2.57105 ,25.22715 
199 ,36.6209 ,0.91003 ,2.54367 ,24.95852 
200 ,36.7971 ,0.91193 ,2.54025 ,24.92494 
201 ,36.9731 ,0.91365 ,2.51630 ,24.68989 
202 ,37.1494 ,0.91543 ,2.48207 ,24.35411 
203 ,37.3253 ,0.91724 ,2.48207 ,24.35411 
204 ,37.5335 ,0.91928 ,2.48550 ,24.38769 
205 ,37.7094 ,0.92103 ,2.46496 ,24.18622 
206 ,37.9014 ,0.92294 ,2.46154 ,24.15264 
207 ,38.0776 ,0.92476 ,2.44443 ,23.98475 
208 ,38.2536 ,0.92647 ,2.42390 ,23.78328 
209 ,38.4457 ,0.92845 ,2.40336 ,23.58181 
210 ,38.6378 ,0.93027 ,2.39652 ,23.51465 
211 ,38.8299 ,0.93224 ,2.36914 ,23.24603 
212 ,39.0219 ,0.93415 ,2.35545 ,23.11171 
213 ,39.2138 ,0.93607 ,2.34861 ,23.04456 
214 ,39.3902 ,0.93786 ,2.33150 ,22.87667 
215 ,39.5820 ,0.93972 ,2.33492 ,22.91024 
216 ,39.7739 ,0.94158 ,2.29728 ,22.54088 
217 ,39.9499 ,0.94345 ,2.27674 ,22.33941 
218 ,40.1424 ,0.94536 ,2.28017 ,22.37299 
219 ,40.3344 ,0.94719 ,2.25279 ,22.10437 
220 ,40.5266 ,0.94922 ,2.24594 ,22.03721 
221 ,40.7186 ,0.95110 ,2.23568 ,21.93647 
222 ,40.8783 ,0.95282 ,2.21172 ,21.70143 
223 ,41.0384 ,0.95441 ,2.21515 ,21.73500 
224 ,41.2144 ,0.95605 ,2.20146 ,21.60069 
225 ,41.3905 ,0.95783 ,2.17750 ,21.36564 
226 ,41.5666 ,0.95957 ,2.16039 ,21.19775 
227 ,41.7265 ,0.96132 ,2.15355 ,21.13059 
228 ,41.8868 ,0.96295 ,2.15012 ,21.09702 
229 ,42.0467 ,0.96454 ,2.13986 ,20.99628 
230 ,42.2228 ,0.96617 ,2.13301 ,20.92912 
231 ,42.4152 ,0.96806 ,2.09879 ,20.59334 
232 ,42.6233 ,0.97008 ,2.08510 ,20.45903 
233 ,42.7995 ,0.97194 ,2.09195 ,20.52619 
234 ,42.9752 ,0.97369 ,2.07141 ,20.32472 
235 ,43.1676 ,0.97553 ,2.03719 ,19.98893 
236 ,43.3757 ,0.97763 ,2.03035 ,19.92178 
237 ,43.5517 ,0.97943 ,2.02693 ,19.88820 
238 ,43.7279 ,0.98126 ,2.00297 ,19.65315 
239 ,43.9039 ,0.98298 ,2.00297 ,19.65315 
240 ,44.0795 ,0.98477 ,1.97559 ,19.38452 
241 ,44.2561 ,0.98652 ,1.96875 ,19.31737 
242 ,44.4480 ,0.98837 ,1.95164 ,19.14948 
243 ,44.6240 ,0.99021 ,1.94822 ,19.11590 
244 ,44.8003 ,0.99195 ,1.92768 ,18.91443 
245 ,44.9764 ,0.99369 ,1.92426 ,18.88085 
246 ,45.1524 ,0.99548 ,1.90373 ,18.67938 
247 ,45.3285 ,0.99722 ,1.86608 ,18.31002 
248 ,45.5367 ,0.99923 ,1.87635 ,18.41075 
249 ,45.7287 ,1.00114 ,1.85582 ,18.20928 
250 ,45.9048 ,1.00300 ,1.85240 ,18.17570 
251 ,46.0969 ,1.00482 ,1.84897 ,18.14213 
252 ,46.2889 ,1.00682 ,1.81133 ,17.77276 
253 ,46.4967 ,1.00889 ,1.80106 ,17.67203 
254 ,46.6728 ,1.01068 ,1.79764 ,17.63845 
255 ,46.8488 ,1.01248 ,1.77711 ,17.43698 
256 ,47.0248 ,1.01415 ,1.77026 ,17.36983 
257 ,47.2171 ,1.01609 ,1.75657 ,17.23551 
258 ,47.4414 ,1.01820 ,1.73262 ,17.00046 
259 ,47.6495 ,1.02036 ,1.72578 ,16.93331 
260 ,47.8254 ,1.02218 ,1.70182 ,16.69826 
261 ,48.0177 ,1.02411 ,1.70182 ,16.69826 
262 ,48.1937 ,1.02589 ,1.67444 ,16.42963 
263 ,48.3694 ,1.02768 ,1.68813 ,16.56395 
264 ,48.5457 ,1.02933 ,1.65391 ,16.22816 
265 ,48.7218 ,1.03110 ,1.66760 ,16.36248 
266 ,48.9140 ,1.03303 ,1.62653 ,15.95954 
267 ,49.1062 ,1.03503 ,1.62653 ,15.95954 
268 ,49.2821 ,1.03673 ,1.60942 ,15.79164 
269 ,49.4581 ,1.03861 ,1.58547 ,15.55660 
270 ,49.6342 ,1.04020 ,1.56836 ,15.38871 
271 ,49.8102 ,1.04202 ,1.55124 ,15.22081 
272 ,49.9865 ,1.04374 ,1.56836 ,15.38871 
273 ,50.1945 ,1.04578 ,1.53413 ,15.05292 
274 ,50.3706 ,1.04759 ,1.52729 ,14.98577 
275 ,50.5467 ,1.04940 ,1.51702 ,14.88503 
276 ,50.7226 ,1.05113 ,1.51360 ,14.85145 
277 ,50.9149 ,1.05301 ,1.48280 ,14.54925 
278 ,51.1228 ,1.05507 ,1.47596 ,14.48209 
279 ,51.2989 ,1.05692 ,1.47253 ,14.44851 
280 ,51.4750 ,1.05862 ,1.44858 ,14.21346 
281 ,51.6512 ,1.06037 ,1.43147 ,14.04557 
282 ,51.8270 ,1.06216 ,1.41778 ,13.91126 
283 ,52.0192 ,1.06400 ,1.41778 ,13.91126 
284 ,52.1954 ,1.06585 ,1.39725 ,13.70979 
285 ,52.3715 ,1.06762 ,1.38356 ,13.57548 
286 ,52.5794 ,1.06963 ,1.38356 ,13.57548 
287 ,52.7555 ,1.07148 ,1.36645 ,13.40759 
288 ,52.9472 ,1.07333 ,1.34591 ,13.20612 
289 ,53.1237 ,1.07511 ,1.33223 ,13.07180 
290 ,53.3156 ,1.07694 ,1.31854 ,12.93749 
291 ,53.4919 ,1.07880 ,1.30143 ,12.76960 
292 ,53.6836 ,1.08073 ,1.30485 ,12.80318 
293 ,53.8761 ,1.08257 ,1.28089 ,12.56813 
294 ,54.0841 ,1.08465 ,1.27405 ,12.50097 
295 ,54.2763 ,1.08656 ,1.25694 ,12.33308 
296 ,54.4842 ,1.08863 ,1.25009 ,12.26592 
297 ,54.6604 ,1.09050 ,1.23641 ,12.13161 
298 ,54.8683 ,1.09257 ,1.21245 ,11.89656 
299 ,55.0606 ,1.09445 ,1.20218 ,11.79583 
300 ,55.2364 ,1.09629 ,1.19192 ,11.69509 
301 ,55.4286 ,1.09811 ,1.18165 ,11.59436 
302 ,55.6046 ,1.09989 ,1.18165 ,11.59436 
303 ,55.7967 ,1.10178 ,1.16454 ,11.42647 
304 ,55.9889 ,1.10373 ,1.16796 ,11.46004 
305 ,56.1810 ,1.10567 ,1.14743 ,11.25857 
306 ,56.3571 ,1.10748 ,1.11321 ,10.92279 
307 ,56.5651 ,1.10939 ,1.10294 ,10.82206 
308 ,56.7412 ,1.11127 ,1.10294 ,10.82206 
309 ,56.9169 ,1.11319 ,1.06872 ,10.48627 
310 ,57.0933 ,1.11486 ,1.06872 ,10.48627 
311 ,57.2854 ,1.11665 ,1.05845 ,10.38554 
312 ,57.4614 ,1.11850 ,1.05503 ,10.35196 
313 ,57.6535 ,1.12031 ,1.02765 ,10.08333 
314 ,57.8297 ,1.12217 ,1.01739 ,9.98260 
315 ,58.0216 ,1.12401 ,1.00028 ,9.81471 
316 ,58.2136 ,1.12589 ,0.99001 ,9.71397 
317 ,58.4217 ,1.12802 ,0.97974 ,9.61324 
318 ,58.5980 ,1.12985 ,0.96263 ,9.44535 
319 ,58.7741 ,1.13156 ,0.95579 ,9.37819 
320 ,58.9502 ,1.13340 ,0.93183 ,9.14314 
321 ,59.1582 ,1.13539 ,0.93525 ,9.17672 
322 ,59.3503 ,1.13736 ,0.91814 ,9.00883 
323 ,59.5264 ,1.13909 ,0.91472 ,8.97525 
324 ,59.7345 ,1.14118 ,0.89419 ,8.77378 
325 ,59.9265 ,1.14309 ,0.88392 ,8.67305 
326 ,60.0862 ,1.14482 ,0.87708 ,8.60589 
327 ,60.2626 ,1.14647 ,0.87023 ,8.53873 
328 ,60.4707 ,1.14851 ,0.85654 ,8.40442 
329 ,60.6468 ,1.15033 ,0.82575 ,8.10221 
330 ,60.8227 ,1.15211 ,0.82575 ,8.10221 
331 ,61.0148 ,1.15390 ,0.80521 ,7.90074 
332 ,61.1907 ,1.15578 ,0.78810 ,7.73285 
333 ,61.3672 ,1.15756 ,0.77784 ,7.63212 
334 ,61.5592 ,1.15944 ,0.76757 ,7.53138 
335 ,61.7353 ,1.16125 ,0.75388 ,7.39707 
336 ,61.9272 ,1.16313 ,0.75388 ,7.39707 
337 ,62.1033 ,1.16489 ,0.74361 ,7.29633 
338 ,62.2791 ,1.16661 ,0.72308 ,7.09486 
339 ,62.4556 ,1.16844 ,0.70255 ,6.89340 
340 ,62.6637 ,1.17042 ,0.69913 ,6.85982 
341 ,62.8558 ,1.17233 ,0.67175 ,6.59119 
342 ,63.0319 ,1.17418 ,0.65806 ,6.45688 
343 ,63.2239 ,1.17606 ,0.65121 ,6.38972 
344 ,63.4000 ,1.17785 ,0.65464 ,6.42330 
345 ,63.5761 ,1.17963 ,0.62042 ,6.08752 
346 ,63.7519 ,1.18136 ,0.62042 ,6.08752 
347 ,63.9603 ,1.18340 ,0.60330 ,5.91962 
348 ,64.1840 ,1.18559 ,0.59304 ,5.81889 
349 ,64.3604 ,1.18747 ,0.57935 ,5.68458 
350 ,64.5522 ,1.18935 ,0.57593 ,5.65100 
351 ,64.7604 ,1.19142 ,0.56566 ,5.55026 
352 ,64.9365 ,1.19317 ,0.54513 ,5.34879 
353 ,65.1125 ,1.19496 ,0.53828 ,5.28164 
354 ,65.3046 ,1.19678 ,0.54171 ,5.31522 
355 ,65.4963 ,1.19881 ,0.51091 ,5.01301 
356 ,65.6727 ,1.20057 ,0.49380 ,4.84512 
357 ,65.8490 ,1.20237 ,0.50064 ,4.91228 
358 ,66.0569 ,1.20429 ,0.47326 ,4.64365 
359 ,66.2171 ,1.20611 ,0.46984 ,4.61007 
360 ,66.3930 ,1.20776 ,0.45957 ,4.50934 
361 ,66.5688 ,1.20952 ,0.45615 ,4.47576 
362 ,66.7453 ,1.21133 ,0.44246 ,4.34144 
363 ,66.9375 ,1.21324 ,0.41509 ,4.07282 
364 ,67.1295 ,1.21506 ,0.42877 ,4.20713 
365 ,67.3215 ,1.21704 ,0.39455 ,3.87135 
366 ,67.4977 ,1.21881 ,0.38771 ,3.80419 
367 ,67.7057 ,1.22085 ,0.37744 ,3.70346 
368 ,67.8978 ,1.22286 ,0.35006 ,3.43483 
369 ,68.0738 ,1.22458 ,0.35691 ,3.50199 
370 ,68.2500 ,1.22631 ,0.35349 ,3.46841 
371 ,68.4420 ,1.22821 ,0.31926 ,3.13263 
372 ,68.6181 ,1.23005 ,0.31242 ,3.06547 
373 ,68.7941 ,1.23180 ,0.30900 ,3.03189 
374 ,68.9863 ,1.23370 ,0.30900 ,3.03189 
375 ,69.1783 ,1.23556 ,0.29189 ,2.86400 
376 ,69.3544 ,1.23735 ,0.27478 ,2.69611 
377 ,69.5463 ,1.23935 ,0.27820 ,2.72969 
378 ,69.7222 ,1.24111 ,0.26109 ,2.56179 
379 ,69.8986 ,1.24283 ,0.24055 ,2.36032 
380 ,70.0904 ,1.24480 ,0.22687 ,2.22601 
381 ,70.2827 ,1.24660 ,0.22344 ,2.19243 
382 ,70.4909 ,1.24867 ,0.22687 ,2.22601 
383 ,70.6829 ,1.25060 ,0.19264 ,1.89023 
384 ,70.8586 ,1.25242 ,0.18922 ,1.85665 
385 ,71.0351 ,1.25414 ,0.17211 ,1.68876 
386 ,71.2270 ,1.25609 ,0.17211 ,1.68876 
387 ,71.4190 ,1.25802 ,0.15842 ,1.55445 
388 ,71.5954 ,1.25977 ,0.14816 ,1.45371 
389 ,71.8033 ,1.26170 ,0.13447 ,1.31940 
390 ,71.9794 ,1.26360 ,0.12078 ,1.18508 
391 ,72.1716 ,1.26554 ,0.12420 ,1.21866 
392 ,72.3476 ,1.26734 ,0.12078 ,1.18508 
393 ,72.5236 ,1.26905 ,0.09340 ,0.91646 
394 ,72.7478 ,1.27118 ,0.09340 ,0.91646 
395 ,72.9396 ,1.27315 ,0.06260 ,0.61425 
396 ,73.1320 ,1.27508 ,0.07287 ,0.71499 
397 ,73.3398 ,1.27715 ,0.04549 ,0.44636 
398 ,73.5160 ,1.27895 ,0.04207 ,0.41278 
399 ,73.6919 ,1.28071 ,0.03522 ,0.34563 
400 ,73.8681 ,1.28250 ,0.03522 ,0.34563 
401 ,74.0599 ,1.28440 ,0.01127 ,0.11058 
402 ,74.2360 ,1.28618 ,0.00100 ,0.00984 
403 ,74.4283 ,1.28800 ,-0.01953 ,-0.19163 
404 ,74.6044 ,1.28988 ,-0.02980 ,-0.29236 
405 ,74.7805 ,1.29157 ,-0.02637 ,-0.25878 
406 ,74.9566 ,1.29338 ,-0.03664 ,-0.35952 
407 ,75.1323 ,1.29513 ,-0.04006 ,-0.39310 
408 ,75.3088 ,1.29690 ,-0.04348 ,-0.42667 
409 ,75.4848 ,1.29865 ,-0.06744 ,-0.66172 
410 ,75.6608 ,1.30040 ,-0.08113 ,-0.79604 
411 ,75.8370 ,1.30214 ,-0.08455 ,-0.82961 
412 ,76.0450 ,1.30425 ,-0.10851 ,-1.06466 
413 ,76.2208 ,1.30598 ,-0.11193 ,-1.09824 
414 ,76.3972 ,1.30776 ,-0.10508 ,-1.03108 
415 ,76.5893 ,1.30964 ,-0.12562 ,-1.23255 
416 ,76.7654 ,1.31149 ,-0.12904 ,-1.26613 
417 ,76.9575 ,1.31329 ,-0.12904 ,-1.26613 
418 ,77.1495 ,1.31527 ,-0.14273 ,-1.40045 
419 ,77.3416 ,1.31719 ,-0.15299 ,-1.50118 
420 ,77.5497 ,1.31926 ,-0.17353 ,-1.70265 
421 ,77.7417 ,1.32119 ,-0.17353 ,-1.70265 
422 ,77.9659 ,1.32333 ,-0.17695 ,-1.73623 
423 ,78.1579 ,1.32536 ,-0.18379 ,-1.80338 
424 ,78.3176 ,1.32710 ,-0.19748 ,-1.93770 
425 ,78.4941 ,1.32875 ,-0.20433 ,-2.00485 
426 ,78.7020 ,1.33075 ,-0.22486 ,-2.20632 
427 ,78.8941 ,1.33267 ,-0.23855 ,-2.34064 
428 ,79.3263 ,1.33584 ,-0.24539 ,-2.40779 
429 ,79.5344 ,1.33907 ,-0.25908 ,-2.54211 
430 ,79.7425 ,1.34114 ,-0.27961 ,-2.74358 
431 ,79.9186 ,1.34296 ,-0.28988 ,-2.84431 
432 ,80.1104 ,1.34493 ,-0.29673 ,-2.91147 
433 ,80.2868 ,1.34665 ,-0.30357 ,-2.97863 
434 ,80.4945 ,1.34860 ,-0.30015 ,-2.94505 
435 ,80.6710 ,1.35048 ,-0.31384 ,-3.07936 
436 ,80.8630 ,1.35239 ,-0.33779 ,-3.31441 
437 ,81.0551 ,1.35436 ,-0.33095 ,-3.24725 
438 ,81.2471 ,1.35624 ,-0.35148 ,-3.44872 
439 ,81.4232 ,1.35802 ,-0.36175 ,-3.54946 
440 ,81.6153 ,1.35991 ,-0.34806 ,-3.41514 
441 ,81.7913 ,1.36166 ,-0.36517 ,-3.58303 
442 ,81.9833 ,1.36357 ,-0.38228 ,-3.75093 
443 ,82.1756 ,1.36554 ,-0.38228 ,-3.75093 
444 ,82.3677 ,1.36738 ,-0.41650 ,-4.08671 
445 ,82.5437 ,1.36927 ,-0.42335 ,-4.15387 
446 ,82.7197 ,1.37102 ,-0.42677 ,-4.18744 
447 ,82.9278 ,1.37292 ,-0.43019 ,-4.22102 
448 ,83.1038 ,1.37485 ,-0.44046 ,-4.32176 
449 ,83.2800 ,1.37655 ,-0.44046 ,-4.32176 
450 ,83.4563 ,1.37835 ,-0.45072 ,-4.42249 
451 ,83.6322 ,1.38010 ,-0.46441 ,-4.55681 
452 ,83.8078 ,1.38185 ,-0.47126 ,-4.62396 
453 ,83.9999 ,1.38376 ,-0.48494 ,-4.75828 
454 ,84.1760 ,1.38552 ,-0.47810 ,-4.69112 
455 ,84.3522 ,1.38727 ,-0.48494 ,-4.75828 
456 ,84.5284 ,1.38904 ,-0.50206 ,-4.92617 
457 ,84.7046 ,1.39080 ,-0.51232 ,-5.02690 
458 ,84.9123 ,1.39280 ,-0.52259 ,-5.12764 
459 ,85.0882 ,1.39466 ,-0.54312 ,-5.32911 
460 ,85.2483 ,1.39640 ,-0.53285 ,-5.22837 
461 ,85.4249 ,1.39801 ,-0.54654 ,-5.36268 
462 ,85.6329 ,1.40003 ,-0.56023 ,-5.49700 
463 ,85.8091 ,1.40186 ,-0.56365 ,-5.53058 
464 ,86.0011 ,1.40374 ,-0.55681 ,-5.46342 
