Data stamp = , 11-04-2022 17:13:49 051

Calibration Values: 
Slope = , 26.54 , g/V 
Offset Voltage at no contact = , -0.501760 , V 

No , Time , Stage Position ,   Mass , Force 
   ,  (s) ,      (mm)      ,   (g)  , (mN)  

1 ,0.0000 ,0.59935 ,5.11372 ,50.17583 
2 ,0.2307 ,0.59942 ,5.11372 ,50.17583 
3 ,0.4710 ,0.60010 ,5.11372 ,50.17583 
4 ,0.6788 ,0.60136 ,5.10688 ,50.10867 
5 ,0.8711 ,0.60282 ,5.10345 ,50.07509 
6 ,1.0634 ,0.60464 ,5.11714 ,50.20940 
7 ,1.2714 ,0.60671 ,5.10345 ,50.07509 
8 ,1.4472 ,0.60853 ,5.10003 ,50.04151 
9 ,1.6397 ,0.61034 ,5.12056 ,50.24298 
10 ,1.8475 ,0.61254 ,5.07608 ,49.80646 
11 ,2.0719 ,0.61467 ,5.08977 ,49.94078 
12 ,2.2799 ,0.61681 ,5.06923 ,49.73931 
13 ,2.4559 ,0.61863 ,5.05554 ,49.60499 
14 ,2.6640 ,0.62069 ,5.04528 ,49.50426 
15 ,2.8398 ,0.62248 ,5.03501 ,49.40352 
16 ,3.0323 ,0.62430 ,5.01106 ,49.16848 
17 ,3.2244 ,0.62622 ,5.00421 ,49.10132 
18 ,3.4164 ,0.62815 ,4.96999 ,48.76554 
19 ,3.6244 ,0.63029 ,4.95288 ,48.59764 
20 ,3.8165 ,0.63220 ,4.94946 ,48.56407 
21 ,4.0084 ,0.63405 ,4.92892 ,48.36260 
22 ,4.2007 ,0.63612 ,4.90839 ,48.16113 
23 ,4.3927 ,0.63790 ,4.87759 ,47.85892 
24 ,4.5844 ,0.63991 ,4.87417 ,47.82534 
25 ,4.7765 ,0.64173 ,4.86390 ,47.72461 
26 ,4.9526 ,0.64364 ,4.85021 ,47.59030 
27 ,5.1450 ,0.64541 ,4.82968 ,47.38883 
28 ,5.3691 ,0.64772 ,4.80915 ,47.18736 
29 ,5.5772 ,0.64973 ,4.79546 ,47.05304 
30 ,5.7692 ,0.65169 ,4.76466 ,46.75084 
31 ,5.9614 ,0.65355 ,4.75782 ,46.68368 
32 ,6.1694 ,0.65558 ,4.72702 ,46.38148 
33 ,6.3776 ,0.65774 ,4.71675 ,46.28074 
34 ,6.5697 ,0.65965 ,4.70648 ,46.18001 
35 ,6.7617 ,0.66169 ,4.68937 ,46.01212 
36 ,6.9540 ,0.66355 ,4.67226 ,45.84422 
37 ,7.1298 ,0.66542 ,4.65173 ,45.64275 
38 ,7.3059 ,0.66712 ,4.63804 ,45.50844 
39 ,7.5141 ,0.66912 ,4.63119 ,45.44128 
40 ,7.7060 ,0.67106 ,4.59697 ,45.10550 
41 ,7.8818 ,0.67288 ,4.59013 ,45.03835 
42 ,8.0582 ,0.67463 ,4.57302 ,44.87045 
43 ,8.2505 ,0.67651 ,4.55591 ,44.70256 
44 ,8.4424 ,0.67842 ,4.54564 ,44.60183 
45 ,8.6185 ,0.68023 ,4.54222 ,44.56825 
46 ,8.8265 ,0.68224 ,4.50800 ,44.23247 
47 ,9.0346 ,0.68421 ,4.49431 ,44.09815 
48 ,9.2264 ,0.68622 ,4.50457 ,44.19889 
49 ,9.4029 ,0.68808 ,4.47720 ,43.93026 
50 ,9.5950 ,0.68989 ,4.45666 ,43.72879 
51 ,9.7709 ,0.69179 ,4.43955 ,43.56090 
52 ,9.9467 ,0.69352 ,4.43613 ,43.52732 
53 ,10.1231 ,0.69523 ,4.40875 ,43.25870 
54 ,10.3150 ,0.69716 ,4.39849 ,43.15796 
55 ,10.5234 ,0.69928 ,4.37453 ,42.92291 
56 ,10.7314 ,0.70130 ,4.34373 ,42.62071 
57 ,10.9391 ,0.70342 ,4.34031 ,42.58713 
58 ,11.1153 ,0.70524 ,4.32662 ,42.45282 
59 ,11.2914 ,0.70694 ,4.30267 ,42.21777 
60 ,11.4836 ,0.70885 ,4.30609 ,42.25135 
61 ,11.7076 ,0.71108 ,4.28898 ,42.08345 
62 ,11.9319 ,0.71312 ,4.28213 ,42.01630 
63 ,12.1400 ,0.71538 ,4.25818 ,41.78125 
64 ,12.3320 ,0.71726 ,4.22053 ,41.41189 
65 ,12.5242 ,0.71917 ,4.22738 ,41.47905 
66 ,12.7322 ,0.72133 ,4.17947 ,41.00895 
67 ,12.9403 ,0.72336 ,4.17947 ,41.00895 
68 ,13.1321 ,0.72527 ,4.15209 ,40.74032 
69 ,13.3243 ,0.72719 ,4.14525 ,40.67317 
70 ,13.5161 ,0.72926 ,4.13156 ,40.53885 
71 ,13.6925 ,0.73094 ,4.10418 ,40.27023 
72 ,13.9005 ,0.73300 ,4.10760 ,40.30380 
73 ,14.0767 ,0.73477 ,4.08023 ,40.03518 
74 ,14.3167 ,0.73703 ,4.05627 ,39.80013 
75 ,14.5085 ,0.73902 ,4.04600 ,39.69940 
76 ,14.7008 ,0.74093 ,4.03574 ,39.59866 
77 ,14.8930 ,0.74290 ,4.01520 ,39.39719 
78 ,15.0851 ,0.74478 ,4.01178 ,39.36361 
79 ,15.2931 ,0.74695 ,3.96729 ,38.92709 
80 ,15.4852 ,0.74883 ,3.98098 ,39.06141 
81 ,15.6613 ,0.75060 ,3.95018 ,38.75920 
82 ,15.8533 ,0.75254 ,3.91938 ,38.45700 
83 ,16.0614 ,0.75456 ,3.92281 ,38.49058 
84 ,16.2374 ,0.75637 ,3.89201 ,38.18837 
85 ,16.4136 ,0.75819 ,3.88858 ,38.15479 
86 ,16.6056 ,0.75997 ,3.86805 ,37.95332 
87 ,16.7978 ,0.76197 ,3.86805 ,37.95332 
88 ,16.9898 ,0.76401 ,3.84410 ,37.71828 
89 ,17.1657 ,0.76570 ,3.82699 ,37.55038 
90 ,17.3580 ,0.76752 ,3.79619 ,37.24818 
91 ,17.5658 ,0.76960 ,3.80303 ,37.31534 
92 ,17.7257 ,0.77140 ,3.78934 ,37.18102 
93 ,17.9183 ,0.77309 ,3.75170 ,36.81166 
94 ,18.1104 ,0.77503 ,3.73459 ,36.64377 
95 ,18.3182 ,0.77717 ,3.72090 ,36.50946 
96 ,18.5104 ,0.77909 ,3.71748 ,36.47588 
97 ,18.7025 ,0.78096 ,3.71063 ,36.40872 
98 ,18.8787 ,0.78281 ,3.68325 ,36.14010 
99 ,19.0865 ,0.78479 ,3.66957 ,36.00578 
100 ,19.2627 ,0.78660 ,3.65930 ,35.90505 
101 ,19.4551 ,0.78854 ,3.62166 ,35.53569 
102 ,19.6468 ,0.79037 ,3.63534 ,35.67000 
103 ,19.8226 ,0.79221 ,3.62508 ,35.56926 
104 ,20.0311 ,0.79411 ,3.59086 ,35.23348 
105 ,20.2391 ,0.79628 ,3.56690 ,34.99843 
106 ,20.4152 ,0.79816 ,3.54295 ,34.76338 
107 ,20.6072 ,0.79995 ,3.54979 ,34.83054 
108 ,20.8154 ,0.80201 ,3.53952 ,34.72981 
109 ,21.0395 ,0.80425 ,3.51899 ,34.52834 
110 ,21.2154 ,0.80612 ,3.49161 ,34.25971 
111 ,21.4076 ,0.80798 ,3.49161 ,34.25971 
112 ,21.5997 ,0.80989 ,3.46081 ,33.95751 
113 ,21.7918 ,0.81183 ,3.43686 ,33.72246 
114 ,21.9672 ,0.81374 ,3.44370 ,33.78961 
115 ,22.1437 ,0.81546 ,3.43344 ,33.68888 
116 ,22.3200 ,0.81721 ,3.39579 ,33.31952 
117 ,22.5121 ,0.81903 ,3.39921 ,33.35310 
118 ,22.7202 ,0.82103 ,3.37868 ,33.15163 
119 ,22.9123 ,0.82301 ,3.37184 ,33.08447 
120 ,23.1043 ,0.82493 ,3.34104 ,32.78227 
121 ,23.2964 ,0.82686 ,3.33419 ,32.71511 
122 ,23.5045 ,0.82900 ,3.33077 ,32.68153 
123 ,23.6805 ,0.83085 ,3.29655 ,32.34575 
124 ,23.8726 ,0.83267 ,3.28286 ,32.21143 
125 ,24.0488 ,0.83448 ,3.28286 ,32.21143 
126 ,24.2409 ,0.83639 ,3.24522 ,31.84207 
127 ,24.4488 ,0.83849 ,3.22126 ,31.60702 
128 ,24.6410 ,0.84030 ,3.21442 ,31.53987 
129 ,24.8491 ,0.84244 ,3.21100 ,31.50629 
130 ,25.0412 ,0.84435 ,3.16993 ,31.10335 
131 ,25.2328 ,0.84623 ,3.18020 ,31.20409 
132 ,25.4254 ,0.84818 ,3.16309 ,31.03619 
133 ,25.6173 ,0.85010 ,3.12202 ,30.63325 
134 ,25.8255 ,0.85219 ,3.13229 ,30.73399 
135 ,26.0176 ,0.85405 ,3.10149 ,30.43178 
136 ,26.1933 ,0.85595 ,3.10149 ,30.43178 
137 ,26.3855 ,0.85783 ,3.10149 ,30.43178 
138 ,26.6098 ,0.86005 ,3.06726 ,30.09600 
139 ,26.8018 ,0.86193 ,3.03304 ,29.76022 
140 ,26.9780 ,0.86376 ,3.03304 ,29.76022 
141 ,27.1859 ,0.86579 ,3.02278 ,29.65948 
142 ,27.3782 ,0.86768 ,3.00909 ,29.52517 
143 ,27.5861 ,0.86983 ,2.97144 ,29.15581 
144 ,27.7783 ,0.87166 ,2.95091 ,28.95434 
145 ,27.9701 ,0.87356 ,2.96460 ,29.08865 
146 ,28.1625 ,0.87555 ,2.93722 ,28.82003 
147 ,28.3543 ,0.87746 ,2.93038 ,28.75287 
148 ,28.5467 ,0.87933 ,2.89616 ,28.41709 
149 ,28.7388 ,0.88130 ,2.87220 ,28.18204 
150 ,28.9304 ,0.88329 ,2.88247 ,28.28277 
151 ,29.1069 ,0.88501 ,2.88247 ,28.28277 
152 ,29.3149 ,0.88717 ,2.84825 ,27.94699 
153 ,29.4909 ,0.88892 ,2.84482 ,27.91341 
154 ,29.6829 ,0.89074 ,2.79691 ,27.44332 
155 ,29.8591 ,0.89255 ,2.78665 ,27.34258 
156 ,30.0674 ,0.89456 ,2.79007 ,27.37616 
157 ,30.2594 ,0.89647 ,2.76611 ,27.14111 
158 ,30.4670 ,0.89848 ,2.76954 ,27.17469 
159 ,30.6595 ,0.90045 ,2.72847 ,26.77175 
160 ,30.8676 ,0.90255 ,2.71478 ,26.63744 
161 ,31.0756 ,0.90457 ,2.71478 ,26.63744 
162 ,31.2678 ,0.90656 ,2.70109 ,26.50312 
163 ,31.4756 ,0.90857 ,2.68056 ,26.30165 
164 ,31.6679 ,0.91054 ,2.66687 ,26.16734 
165 ,31.8760 ,0.91265 ,2.66345 ,26.13376 
166 ,32.0680 ,0.91459 ,2.64976 ,25.99945 
167 ,32.2761 ,0.91661 ,2.60869 ,25.59651 
168 ,32.4681 ,0.91854 ,2.59843 ,25.49577 
169 ,32.6443 ,0.92042 ,2.56421 ,25.15999 
170 ,32.8363 ,0.92225 ,2.58474 ,25.36146 
171 ,33.0285 ,0.92412 ,2.56421 ,25.15999 
172 ,33.2206 ,0.92606 ,2.55052 ,25.02568 
173 ,33.4286 ,0.92820 ,2.53683 ,24.89136 
174 ,33.6045 ,0.92996 ,2.49918 ,24.52200 
175 ,33.8128 ,0.93206 ,2.51287 ,24.65632 
176 ,34.0046 ,0.93394 ,2.47865 ,24.32053 
177 ,34.1969 ,0.93579 ,2.47523 ,24.28696 
178 ,34.3890 ,0.93781 ,2.47181 ,24.25338 
179 ,34.5971 ,0.93993 ,2.43416 ,23.88402 
180 ,34.7728 ,0.94170 ,2.42048 ,23.74970 
181 ,34.9649 ,0.94348 ,2.39994 ,23.54823 
182 ,35.1412 ,0.94539 ,2.38625 ,23.41392 
183 ,35.3173 ,0.94713 ,2.38283 ,23.38034 
184 ,35.5415 ,0.94934 ,2.36230 ,23.17887 
185 ,35.7492 ,0.95136 ,2.35888 ,23.14529 
186 ,35.9416 ,0.95330 ,2.34861 ,23.04456 
187 ,36.1498 ,0.95541 ,2.32123 ,22.77593 
188 ,36.3418 ,0.95732 ,2.30754 ,22.64162 
189 ,36.5338 ,0.95923 ,2.30754 ,22.64162 
190 ,36.7579 ,0.96145 ,2.29385 ,22.50731 
191 ,36.9498 ,0.96336 ,2.25621 ,22.13794 
192 ,37.1580 ,0.96547 ,2.26306 ,22.20510 
193 ,37.3502 ,0.96735 ,2.22541 ,21.83574 
194 ,37.5583 ,0.96949 ,2.21172 ,21.70143 
195 ,37.7662 ,0.97162 ,2.21515 ,21.73500 
196 ,37.9421 ,0.97336 ,2.18435 ,21.43280 
197 ,38.1183 ,0.97513 ,2.18777 ,21.46638 
198 ,38.3264 ,0.97720 ,2.15697 ,21.16417 
199 ,38.5024 ,0.97897 ,2.14328 ,21.02986 
200 ,38.6787 ,0.98072 ,2.15355 ,21.13059 
201 ,38.8546 ,0.98251 ,2.13301 ,20.92912 
202 ,39.0628 ,0.98448 ,2.10221 ,20.62692 
203 ,39.2707 ,0.98646 ,2.11248 ,20.72766 
204 ,39.4631 ,0.98853 ,2.09195 ,20.52619 
205 ,39.6712 ,0.99061 ,2.07141 ,20.32472 
206 ,39.8791 ,0.99262 ,2.06799 ,20.29114 
207 ,40.0713 ,0.99455 ,2.04746 ,20.08967 
208 ,40.2473 ,0.99637 ,2.03377 ,19.95535 
209 ,40.4232 ,0.99813 ,1.98244 ,19.45168 
210 ,40.6154 ,1.00004 ,2.01324 ,19.75388 
211 ,40.7914 ,1.00181 ,1.98928 ,19.51884 
212 ,40.9514 ,1.00354 ,1.95848 ,19.21663 
213 ,41.1277 ,1.00517 ,1.97217 ,19.35094 
214 ,41.3038 ,1.00692 ,1.93453 ,18.98158 
215 ,41.4958 ,1.00886 ,1.93453 ,18.98158 
216 ,41.6720 ,1.01065 ,1.93795 ,19.01516 
217 ,41.8640 ,1.01262 ,1.91057 ,18.74654 
218 ,42.0561 ,1.01447 ,1.89346 ,18.57864 
219 ,42.2642 ,1.01647 ,1.88662 ,18.51149 
220 ,42.4724 ,1.01845 ,1.87293 ,18.37717 
221 ,42.6639 ,1.02048 ,1.84555 ,18.10855 
222 ,42.8404 ,1.02232 ,1.83186 ,17.97423 
223 ,43.0326 ,1.02417 ,1.82502 ,17.90708 
224 ,43.2565 ,1.02640 ,1.79422 ,17.60487 
225 ,43.4489 ,1.02836 ,1.79080 ,17.57129 
226 ,43.6407 ,1.03024 ,1.77711 ,17.43698 
227 ,43.8328 ,1.03220 ,1.75315 ,17.20193 
228 ,44.0247 ,1.03411 ,1.75315 ,17.20193 
229 ,44.2167 ,1.03605 ,1.73604 ,17.03404 
230 ,44.4091 ,1.03794 ,1.70524 ,16.73184 
231 ,44.6170 ,1.04001 ,1.70182 ,16.69826 
232 ,44.7931 ,1.04177 ,1.70182 ,16.69826 
233 ,44.9854 ,1.04371 ,1.68471 ,16.53037 
234 ,45.1773 ,1.04561 ,1.67102 ,16.39605 
235 ,45.3850 ,1.04768 ,1.65391 ,16.22816 
236 ,45.5613 ,1.04953 ,1.64364 ,16.12743 
237 ,45.7695 ,1.05161 ,1.62995 ,15.99311 
238 ,45.9776 ,1.05364 ,1.62653 ,15.95954 
239 ,46.1696 ,1.05553 ,1.58889 ,15.59018 
240 ,46.3616 ,1.05744 ,1.58889 ,15.59018 
241 ,46.5698 ,1.05953 ,1.55809 ,15.28797 
242 ,46.7780 ,1.06158 ,1.56836 ,15.38871 
243 ,46.9699 ,1.06352 ,1.56493 ,15.35513 
244 ,47.1462 ,1.06533 ,1.52387 ,14.95219 
245 ,47.3544 ,1.06741 ,1.52387 ,14.95219 
246 ,47.5302 ,1.06926 ,1.50333 ,14.75072 
247 ,47.7224 ,1.07107 ,1.51360 ,14.85145 
248 ,47.9304 ,1.07314 ,1.46911 ,14.41493 
249 ,48.1065 ,1.07493 ,1.46569 ,14.38136 
250 ,48.3147 ,1.07689 ,1.45542 ,14.28062 
251 ,48.5383 ,1.07920 ,1.43831 ,14.11273 
252 ,48.7306 ,1.08114 ,1.43147 ,14.04557 
253 ,48.9390 ,1.08318 ,1.42120 ,13.94484 
254 ,49.1309 ,1.08515 ,1.38698 ,13.60906 
255 ,49.3391 ,1.08728 ,1.38356 ,13.57548 
256 ,49.5312 ,1.08914 ,1.36645 ,13.40759 
257 ,49.7071 ,1.09102 ,1.37329 ,13.47474 
258 ,49.8994 ,1.09288 ,1.35618 ,13.30685 
259 ,50.1072 ,1.09490 ,1.32880 ,13.03822 
260 ,50.2832 ,1.09675 ,1.32196 ,12.97107 
261 ,50.4752 ,1.09865 ,1.30485 ,12.80318 
262 ,50.6514 ,1.10038 ,1.27405 ,12.50097 
263 ,50.8435 ,1.10222 ,1.27747 ,12.53455 
264 ,51.0519 ,1.10435 ,1.25352 ,12.29950 
265 ,51.2439 ,1.10626 ,1.24325 ,12.19877 
266 ,51.4360 ,1.10819 ,1.25009 ,12.26592 
267 ,51.6440 ,1.11025 ,1.22956 ,12.06445 
268 ,51.8201 ,1.11206 ,1.22614 ,12.03088 
269 ,52.0282 ,1.11402 ,1.18850 ,11.66151 
270 ,52.2203 ,1.11602 ,1.18507 ,11.62794 
271 ,52.3963 ,1.11789 ,1.17138 ,11.49362 
272 ,52.5885 ,1.11971 ,1.16454 ,11.42647 
273 ,52.7962 ,1.12178 ,1.14743 ,11.25857 
274 ,52.9723 ,1.12369 ,1.14058 ,11.19142 
275 ,53.1486 ,1.12536 ,1.12347 ,11.02353 
276 ,53.3247 ,1.12717 ,1.11663 ,10.95637 
277 ,53.5168 ,1.12899 ,1.10636 ,10.85563 
278 ,53.6928 ,1.13083 ,1.08241 ,10.62059 
279 ,53.8849 ,1.13267 ,1.06872 ,10.48627 
280 ,54.0612 ,1.13447 ,1.06872 ,10.48627 
281 ,54.2690 ,1.13638 ,1.03108 ,10.11691 
282 ,54.4612 ,1.13844 ,1.04476 ,10.25123 
283 ,54.6692 ,1.14048 ,1.01739 ,9.98260 
284 ,54.8772 ,1.14249 ,0.99685 ,9.78113 
285 ,55.0693 ,1.14453 ,0.98317 ,9.64682 
286 ,55.2615 ,1.14644 ,0.97290 ,9.54608 
287 ,55.4694 ,1.14838 ,0.95579 ,9.37819 
288 ,55.6617 ,1.15043 ,0.96948 ,9.51250 
289 ,55.8536 ,1.15233 ,0.94210 ,9.24388 
290 ,56.0458 ,1.15422 ,0.92841 ,9.10956 
291 ,56.2539 ,1.15638 ,0.91130 ,8.94167 
292 ,56.4458 ,1.15828 ,0.91814 ,9.00883 
293 ,56.6379 ,1.16021 ,0.88050 ,8.63947 
294 ,56.8300 ,1.16217 ,0.84628 ,8.30368 
295 ,57.0380 ,1.16405 ,0.85654 ,8.40442 
296 ,57.2302 ,1.16612 ,0.84970 ,8.33726 
297 ,57.4223 ,1.16801 ,0.85312 ,8.37084 
298 ,57.6305 ,1.16998 ,0.80863 ,7.93432 
299 ,57.8226 ,1.17202 ,0.82232 ,8.06864 
300 ,58.0305 ,1.17413 ,0.79495 ,7.80001 
301 ,58.2227 ,1.17600 ,0.78810 ,7.73285 
302 ,58.4308 ,1.17814 ,0.77099 ,7.56496 
303 ,58.6229 ,1.18002 ,0.76415 ,7.49780 
304 ,58.8310 ,1.18215 ,0.74704 ,7.32991 
305 ,59.0230 ,1.18402 ,0.74361 ,7.29633 
306 ,59.1985 ,1.18593 ,0.70939 ,6.96055 
307 ,59.3751 ,1.18759 ,0.70597 ,6.92697 
308 ,59.5675 ,1.18939 ,0.69913 ,6.85982 
309 ,59.7594 ,1.19141 ,0.68886 ,6.75908 
310 ,59.9513 ,1.19327 ,0.66490 ,6.52403 
311 ,60.1436 ,1.19521 ,0.66833 ,6.55761 
312 ,60.3356 ,1.19713 ,0.63410 ,6.22183 
313 ,60.5437 ,1.19926 ,0.63068 ,6.18825 
314 ,60.7520 ,1.20135 ,0.62384 ,6.12109 
315 ,60.9439 ,1.20323 ,0.61699 ,6.05394 
316 ,61.1521 ,1.20531 ,0.59646 ,5.85247 
317 ,61.3440 ,1.20726 ,0.59646 ,5.85247 
318 ,61.5523 ,1.20932 ,0.57251 ,5.61742 
319 ,61.7441 ,1.21124 ,0.56908 ,5.58384 
320 ,61.9359 ,1.21312 ,0.54171 ,5.31522 
321 ,62.1603 ,1.21530 ,0.54171 ,5.31522 
322 ,62.3684 ,1.21755 ,0.53144 ,5.21448 
323 ,62.5765 ,1.21955 ,0.48695 ,4.77796 
324 ,62.7844 ,1.22165 ,0.50064 ,4.91228 
325 ,62.9767 ,1.22353 ,0.45615 ,4.47576 
326 ,63.1846 ,1.22562 ,0.46984 ,4.61007 
327 ,63.3607 ,1.22750 ,0.44931 ,4.40860 
328 ,63.5530 ,1.22933 ,0.43220 ,4.24071 
329 ,63.7449 ,1.23123 ,0.43220 ,4.24071 
330 ,63.9531 ,1.23335 ,0.41166 ,4.03924 
331 ,64.1292 ,1.23512 ,0.41509 ,4.07282 
332 ,64.3371 ,1.23713 ,0.40140 ,3.93850 
333 ,64.5133 ,1.23894 ,0.36375 ,3.56914 
334 ,64.6894 ,1.24067 ,0.38086 ,3.73703 
335 ,64.8814 ,1.24254 ,0.34664 ,3.40125 
336 ,65.0735 ,1.24449 ,0.35006 ,3.43483 
337 ,65.2491 ,1.24640 ,0.34664 ,3.40125 
338 ,65.4412 ,1.24815 ,0.32611 ,3.19978 
339 ,65.6337 ,1.25009 ,0.31926 ,3.13263 
340 ,65.8737 ,1.25249 ,0.28162 ,2.76326 
341 ,66.0659 ,1.25439 ,0.30558 ,2.99831 
342 ,66.2737 ,1.25649 ,0.26793 ,2.62895 
343 ,66.4821 ,1.25848 ,0.26109 ,2.56179 
344 ,66.6738 ,1.26049 ,0.25424 ,2.49464 
345 ,66.8663 ,1.26251 ,0.25082 ,2.46106 
346 ,67.0581 ,1.26430 ,0.23029 ,2.25959 
347 ,67.2662 ,1.26646 ,0.24055 ,2.36032 
348 ,67.4585 ,1.26831 ,0.18238 ,1.78949 
349 ,67.6502 ,1.27023 ,0.18580 ,1.82307 
350 ,67.8262 ,1.27207 ,0.18238 ,1.78949 
351 ,68.0027 ,1.27382 ,0.17211 ,1.68876 
352 ,68.1788 ,1.27558 ,0.16527 ,1.62160 
353 ,68.4029 ,1.27772 ,0.14473 ,1.42013 
354 ,68.6110 ,1.27975 ,0.15158 ,1.48729 
355 ,68.8030 ,1.28191 ,0.11051 ,1.08435 
356 ,69.0112 ,1.28376 ,0.12078 ,1.18508 
357 ,69.2192 ,1.28593 ,0.09340 ,0.91646 
358 ,69.4114 ,1.28781 ,0.10367 ,1.01719 
359 ,69.6354 ,1.29008 ,0.07629 ,0.74857 
360 ,69.8275 ,1.29201 ,0.06602 ,0.64783 
361 ,70.0354 ,1.29411 ,0.04549 ,0.44636 
362 ,70.2277 ,1.29604 ,0.03865 ,0.37920 
363 ,70.4356 ,1.29813 ,0.01811 ,0.17773 
364 ,70.6279 ,1.30004 ,0.01469 ,0.14416 
365 ,70.8356 ,1.30208 ,-0.00926 ,-0.09089 
366 ,71.0115 ,1.30394 ,0.00100 ,0.00984 
367 ,71.1716 ,1.30562 ,-0.00584 ,-0.05731 
368 ,71.3639 ,1.30733 ,-0.01611 ,-0.15805 
369 ,71.5720 ,1.30944 ,-0.04006 ,-0.39310 
370 ,71.7641 ,1.31138 ,-0.04691 ,-0.46025 
371 ,71.9402 ,1.31320 ,-0.07428 ,-0.72888 
372 ,72.1323 ,1.31504 ,-0.04006 ,-0.39310 
373 ,72.3404 ,1.31718 ,-0.08113 ,-0.79604 
374 ,72.5326 ,1.31904 ,-0.06744 ,-0.66172 
375 ,72.7406 ,1.32113 ,-0.09482 ,-0.93035 
376 ,72.9167 ,1.32298 ,-0.11535 ,-1.13182 
377 ,73.1249 ,1.32496 ,-0.11193 ,-1.09824 
378 ,73.3490 ,1.32722 ,-0.12219 ,-1.19898 
379 ,73.5410 ,1.32915 ,-0.15299 ,-1.50118 
380 ,73.7329 ,1.33107 ,-0.13931 ,-1.36687 
381 ,73.9092 ,1.33291 ,-0.13931 ,-1.36687 
382 ,74.1332 ,1.33500 ,-0.16326 ,-1.60191 
383 ,74.3414 ,1.33719 ,-0.19748 ,-1.93770 
384 ,74.5335 ,1.33903 ,-0.17695 ,-1.73623 
385 ,74.7414 ,1.34116 ,-0.19064 ,-1.87054 
386 ,74.9015 ,1.34292 ,-0.22144 ,-2.17275 
387 ,75.0933 ,1.34467 ,-0.23170 ,-2.27348 
388 ,75.2856 ,1.34658 ,-0.23513 ,-2.30706 
389 ,75.4619 ,1.34841 ,-0.22828 ,-2.23990 
390 ,75.6541 ,1.35028 ,-0.23170 ,-2.27348 
391 ,75.8460 ,1.35220 ,-0.24881 ,-2.44137 
392 ,76.0381 ,1.35408 ,-0.25224 ,-2.47495 
393 ,76.2301 ,1.35604 ,-0.25908 ,-2.54211 
394 ,76.4222 ,1.35793 ,-0.30699 ,-3.01220 
395 ,76.6142 ,1.35983 ,-0.28988 ,-2.84431 
396 ,76.7904 ,1.36168 ,-0.29673 ,-2.91147 
397 ,76.9819 ,1.36362 ,-0.31041 ,-3.04578 
398 ,77.1743 ,1.36548 ,-0.32752 ,-3.21367 
399 ,77.3664 ,1.36741 ,-0.31041 ,-3.04578 
400 ,77.5746 ,1.36946 ,-0.33095 ,-3.24725 
401 ,77.7667 ,1.37134 ,-0.33779 ,-3.31441 
402 ,77.9748 ,1.37347 ,-0.36175 ,-3.54946 
403 ,78.1829 ,1.37555 ,-0.38228 ,-3.75093 
404 ,78.3748 ,1.37757 ,-0.37544 ,-3.68377 
405 ,78.5670 ,1.37942 ,-0.38912 ,-3.81808 
406 ,78.7748 ,1.38149 ,-0.40623 ,-3.98597 
407 ,78.9515 ,1.38329 ,-0.40281 ,-3.95240 
408 ,79.1593 ,1.38528 ,-0.40623 ,-3.98597 
409 ,79.3668 ,1.38739 ,-0.42335 ,-4.15387 
410 ,79.5435 ,1.38923 ,-0.43703 ,-4.28818 
411 ,79.7355 ,1.39116 ,-0.42677 ,-4.18744 
412 ,79.9596 ,1.39316 ,-0.44730 ,-4.38891 
413 ,80.1674 ,1.39536 ,-0.45757 ,-4.48965 
414 ,80.3597 ,1.39720 ,-0.45757 ,-4.48965 
415 ,80.5517 ,1.39924 ,-0.49179 ,-4.82543 
416 ,80.7439 ,1.40113 ,-0.49521 ,-4.85901 
417 ,80.9359 ,1.40319 ,-0.48837 ,-4.79185 
418 ,81.1121 ,1.40488 ,-0.50890 ,-4.99332 
419 ,81.3041 ,1.40676 ,-0.52601 ,-5.16121 
420 ,81.5118 ,1.40884 ,-0.50890 ,-4.99332 
421 ,81.6882 ,1.41065 ,-0.51574 ,-5.06048 
422 ,81.8644 ,1.41246 ,-0.56365 ,-5.53058 
423 ,82.0405 ,1.41416 ,-0.56708 ,-5.56415 
424 ,82.2486 ,1.41613 ,-0.54312 ,-5.32911 
425 ,82.4567 ,1.41825 ,-0.56708 ,-5.56415 
426 ,82.6648 ,1.42027 ,-0.57050 ,-5.59773 
427 ,82.8568 ,1.42225 ,-0.58419 ,-5.73205 
428 ,83.0649 ,1.42432 ,-0.60472 ,-5.93352 
429 ,83.2569 ,1.42634 ,-0.60472 ,-5.93352 
430 ,83.4649 ,1.42836 ,-0.60130 ,-5.89994 
431 ,83.6410 ,1.43014 ,-0.62183 ,-6.10141 
432 ,83.8173 ,1.43190 ,-0.65947 ,-6.47077 
433 ,84.0251 ,1.43393 ,-0.63894 ,-6.26930 
434 ,84.2174 ,1.43584 ,-0.63552 ,-6.23572 
435 ,84.4250 ,1.43798 ,-0.66632 ,-6.53793 
436 ,84.6016 ,1.43976 ,-0.67659 ,-6.63866 
437 ,84.8094 ,1.44184 ,-0.65263 ,-6.40361 
438 ,85.0176 ,1.44387 ,-0.68685 ,-6.73940 
439 ,85.1936 ,1.44566 ,-0.68343 ,-6.70582 
440 ,85.4018 ,1.44783 ,-0.69712 ,-6.84013 
441 ,85.5940 ,1.44969 ,-0.71765 ,-7.04160 
442 ,85.7700 ,1.45142 ,-0.70739 ,-6.94086 
443 ,85.9775 ,1.45353 ,-0.72792 ,-7.14233 
444 ,86.1701 ,1.45541 ,-0.71423 ,-7.00802 
445 ,86.3621 ,1.45731 ,-0.75530 ,-7.41096 
446 ,86.5544 ,1.45923 ,-0.73134 ,-7.17591 
447 ,86.7620 ,1.46132 ,-0.77241 ,-7.57885 
448 ,86.9705 ,1.46327 ,-0.75872 ,-7.44454 
449 ,87.1786 ,1.46554 ,-0.79636 ,-7.81390 
450 ,87.3862 ,1.46750 ,-0.79978 ,-7.84748 
451 ,87.5627 ,1.46938 ,-0.78610 ,-7.71317 
452 ,87.7549 ,1.47123 ,-0.81005 ,-7.94821 
453 ,87.9469 ,1.47315 ,-0.81005 ,-7.94821 
454 ,88.1709 ,1.47540 ,-0.81689 ,-8.01537 
455 ,88.3791 ,1.47741 ,-0.83401 ,-8.18326 
456 ,88.5552 ,1.47927 ,-0.84427 ,-8.28400 
457 ,88.7474 ,1.48117 ,-0.84769 ,-8.31758 
458 ,88.9550 ,1.48317 ,-0.85112 ,-8.35115 
459 ,89.1474 ,1.48523 ,-0.85112 ,-8.35115 
460 ,89.3557 ,1.48722 ,-0.87507 ,-8.58620 
461 ,89.5315 ,1.48910 ,-0.87507 ,-8.58620 
462 ,89.7397 ,1.49099 ,-0.88534 ,-8.68694 
463 ,89.9317 ,1.49299 ,-0.90245 ,-8.85483 
