Data stamp = , 11-04-2022 23:30:51 168

Calibration Values: 
Slope = , 26.54 , g/V 
Offset Voltage at no contact = , -0.501760 , V 

No , Time , Stage Position ,   Mass , Force 
   ,  (s) ,      (mm)      ,   (g)  , (mN)  

1 ,0.0000 ,0.59938 ,5.02132 ,49.26921 
2 ,0.2261 ,0.59949 ,5.00421 ,49.10132 
3 ,0.5943 ,0.60047 ,5.00421 ,49.10132 
4 ,0.8024 ,0.60228 ,4.99052 ,48.96701 
5 ,1.0108 ,0.60417 ,5.00763 ,49.13490 
6 ,1.2191 ,0.60620 ,5.00763 ,49.13490 
7 ,1.4107 ,0.60808 ,5.02474 ,49.30279 
8 ,1.5866 ,0.60993 ,5.01790 ,49.23563 
9 ,1.7951 ,0.61188 ,5.01790 ,49.23563 
10 ,1.9871 ,0.61398 ,4.96999 ,48.76554 
11 ,2.1793 ,0.61586 ,4.98710 ,48.93343 
12 ,2.3712 ,0.61774 ,4.96315 ,48.69838 
13 ,2.5630 ,0.61971 ,4.93919 ,48.46333 
14 ,2.7554 ,0.62160 ,4.93919 ,48.46333 
15 ,2.9475 ,0.62350 ,4.91523 ,48.22828 
16 ,3.1233 ,0.62536 ,4.91866 ,48.26186 
17 ,3.2995 ,0.62714 ,4.90839 ,48.16113 
18 ,3.4916 ,0.62891 ,4.88444 ,47.92608 
19 ,3.6674 ,0.63083 ,4.85364 ,47.62387 
20 ,3.8759 ,0.63267 ,4.84337 ,47.52314 
21 ,4.0837 ,0.63488 ,4.81599 ,47.25451 
22 ,4.2757 ,0.63681 ,4.81257 ,47.22093 
23 ,4.4521 ,0.63863 ,4.78861 ,46.98589 
24 ,4.6282 ,0.64036 ,4.76466 ,46.75084 
25 ,4.8201 ,0.64220 ,4.75782 ,46.68368 
26 ,5.0124 ,0.64420 ,4.74070 ,46.51579 
27 ,5.2204 ,0.64627 ,4.73386 ,46.44863 
28 ,5.4284 ,0.64835 ,4.69622 ,46.07927 
29 ,5.6205 ,0.65026 ,4.69964 ,46.11285 
30 ,5.7963 ,0.65205 ,4.66884 ,45.81065 
31 ,5.9728 ,0.65379 ,4.65173 ,45.64275 
32 ,6.1485 ,0.65562 ,4.63462 ,45.47486 
33 ,6.3249 ,0.65731 ,4.61408 ,45.27339 
34 ,6.5166 ,0.65921 ,4.60724 ,45.20624 
35 ,6.6929 ,0.66097 ,4.59013 ,45.03835 
36 ,6.8852 ,0.66285 ,4.58328 ,44.97119 
37 ,7.0611 ,0.66469 ,4.56617 ,44.80330 
38 ,7.2690 ,0.66664 ,4.53880 ,44.53467 
39 ,7.4769 ,0.66878 ,4.53880 ,44.53467 
40 ,7.6689 ,0.67071 ,4.49773 ,44.13173 
41 ,7.8612 ,0.67263 ,4.50115 ,44.16531 
42 ,8.0856 ,0.67482 ,4.46009 ,43.76237 
43 ,8.2937 ,0.67701 ,4.44298 ,43.59448 
44 ,8.5015 ,0.67897 ,4.42929 ,43.46016 
45 ,8.6776 ,0.68091 ,4.41902 ,43.35943 
46 ,8.8536 ,0.68259 ,4.41218 ,43.29227 
47 ,9.0296 ,0.68432 ,4.39164 ,43.09080 
48 ,9.2219 ,0.68625 ,4.38822 ,43.05723 
49 ,9.4302 ,0.68837 ,4.36084 ,42.78860 
50 ,9.6382 ,0.69042 ,4.36769 ,42.85576 
51 ,9.8299 ,0.69230 ,4.33004 ,42.48639 
52 ,10.0221 ,0.69425 ,4.31978 ,42.38566 
53 ,10.2145 ,0.69609 ,4.29582 ,42.15061 
54 ,10.4225 ,0.69827 ,4.29582 ,42.15061 
55 ,10.5987 ,0.70006 ,4.27871 ,41.98272 
56 ,10.8066 ,0.70206 ,4.26160 ,41.81483 
57 ,10.9829 ,0.70390 ,4.25133 ,41.71409 
58 ,11.1749 ,0.70575 ,4.21711 ,41.37831 
59 ,11.3829 ,0.70783 ,4.21369 ,41.34473 
60 ,11.5751 ,0.70976 ,4.19316 ,41.14326 
61 ,11.7672 ,0.71168 ,4.16578 ,40.87464 
62 ,11.9592 ,0.71360 ,4.16236 ,40.84106 
63 ,12.1669 ,0.71570 ,4.13156 ,40.53885 
64 ,12.3593 ,0.71760 ,4.13840 ,40.60601 
65 ,12.5514 ,0.71951 ,4.10760 ,40.30380 
66 ,12.7594 ,0.72161 ,4.10418 ,40.27023 
67 ,12.9676 ,0.72353 ,4.06654 ,39.90087 
68 ,13.1755 ,0.72576 ,4.04258 ,39.66582 
69 ,13.3677 ,0.72764 ,4.04600 ,39.69940 
70 ,13.5599 ,0.72958 ,4.04258 ,39.66582 
71 ,13.7517 ,0.73152 ,4.00494 ,39.29646 
72 ,13.9276 ,0.73331 ,3.99125 ,39.16214 
73 ,14.1041 ,0.73512 ,3.99125 ,39.16214 
74 ,14.2959 ,0.73697 ,3.95703 ,38.82636 
75 ,14.4883 ,0.73892 ,3.93992 ,38.65847 
76 ,14.6962 ,0.74099 ,3.92965 ,38.55773 
77 ,14.8885 ,0.74286 ,3.92623 ,38.52415 
78 ,15.0963 ,0.74500 ,3.89885 ,38.25553 
79 ,15.3043 ,0.74700 ,3.89885 ,38.25553 
80 ,15.5125 ,0.74899 ,3.87832 ,38.05406 
81 ,15.7205 ,0.75131 ,3.84067 ,37.68470 
82 ,15.8968 ,0.75305 ,3.84067 ,37.68470 
83 ,16.1048 ,0.75500 ,3.82699 ,37.55038 
84 ,16.2968 ,0.75698 ,3.78592 ,37.14744 
85 ,16.4724 ,0.75879 ,3.78592 ,37.14744 
86 ,16.6491 ,0.76054 ,3.76539 ,36.94597 
87 ,16.8410 ,0.76239 ,3.75512 ,36.84524 
88 ,17.0492 ,0.76449 ,3.74143 ,36.71093 
89 ,17.2413 ,0.76644 ,3.74143 ,36.71093 
90 ,17.4173 ,0.76828 ,3.70037 ,36.30799 
91 ,17.6254 ,0.77027 ,3.70037 ,36.30799 
92 ,17.8177 ,0.77220 ,3.66957 ,36.00578 
93 ,18.0256 ,0.77412 ,3.66272 ,35.93863 
94 ,18.2495 ,0.77645 ,3.63192 ,35.63642 
95 ,18.4256 ,0.77828 ,3.62166 ,35.53569 
96 ,18.5854 ,0.78001 ,3.62166 ,35.53569 
97 ,18.7779 ,0.78177 ,3.59428 ,35.26706 
98 ,18.9859 ,0.78373 ,3.60112 ,35.33422 
99 ,19.1780 ,0.78580 ,3.56348 ,34.96485 
100 ,19.3700 ,0.78774 ,3.55321 ,34.86412 
101 ,19.5462 ,0.78947 ,3.55321 ,34.86412 
102 ,19.7221 ,0.79126 ,3.52926 ,34.62907 
103 ,19.9305 ,0.79332 ,3.51557 ,34.49476 
104 ,20.1225 ,0.79521 ,3.50530 ,34.39402 
105 ,20.3303 ,0.79725 ,3.47108 ,34.05824 
106 ,20.5064 ,0.79911 ,3.46766 ,34.02466 
107 ,20.6983 ,0.80093 ,3.44028 ,33.75604 
108 ,20.8907 ,0.80287 ,3.43344 ,33.68888 
109 ,21.0828 ,0.80479 ,3.41975 ,33.55457 
110 ,21.2587 ,0.80660 ,3.39921 ,33.35310 
111 ,21.4509 ,0.80849 ,3.37868 ,33.15163 
112 ,21.6270 ,0.81030 ,3.38210 ,33.18520 
113 ,21.8191 ,0.81216 ,3.34104 ,32.78227 
114 ,22.0111 ,0.81409 ,3.35130 ,32.88300 
115 ,22.1875 ,0.81591 ,3.33762 ,32.74869 
116 ,22.3794 ,0.81779 ,3.33762 ,32.74869 
117 ,22.5555 ,0.81961 ,3.28628 ,32.24501 
118 ,22.7635 ,0.82161 ,3.28628 ,32.24501 
119 ,22.9715 ,0.82369 ,3.26233 ,32.00996 
120 ,23.1795 ,0.82581 ,3.25891 ,31.97639 
121 ,23.3717 ,0.82770 ,3.24522 ,31.84207 
122 ,23.5637 ,0.82960 ,3.22811 ,31.67418 
123 ,23.7718 ,0.83170 ,3.19388 ,31.33840 
124 ,23.9479 ,0.83356 ,3.20073 ,31.40555 
125 ,24.1238 ,0.83525 ,3.18362 ,31.23766 
126 ,24.3000 ,0.83702 ,3.17335 ,31.13693 
127 ,24.4762 ,0.83879 ,3.12544 ,30.66683 
128 ,24.6843 ,0.84073 ,3.12886 ,30.70041 
129 ,24.8602 ,0.84260 ,3.11175 ,30.53252 
130 ,25.0365 ,0.84441 ,3.10833 ,30.49894 
131 ,25.2445 ,0.84639 ,3.08438 ,30.26389 
132 ,25.4206 ,0.84820 ,3.07069 ,30.12958 
133 ,25.6287 ,0.85027 ,3.06042 ,30.02884 
134 ,25.8048 ,0.85207 ,3.05700 ,29.99527 
135 ,25.9966 ,0.85389 ,3.02278 ,29.65948 
136 ,26.1888 ,0.85583 ,3.02278 ,29.65948 
137 ,26.3646 ,0.85766 ,3.00909 ,29.52517 
138 ,26.5410 ,0.85940 ,2.99198 ,29.35728 
139 ,26.7491 ,0.86147 ,2.98171 ,29.25654 
140 ,26.9252 ,0.86325 ,2.97829 ,29.22297 
141 ,27.1173 ,0.86515 ,2.93380 ,28.78645 
142 ,27.2934 ,0.86695 ,2.90985 ,28.55140 
143 ,27.5175 ,0.86913 ,2.91327 ,28.58498 
144 ,27.7255 ,0.87118 ,2.90642 ,28.51782 
145 ,27.9177 ,0.87309 ,2.86878 ,28.14846 
146 ,28.1094 ,0.87515 ,2.88247 ,28.28277 
147 ,28.3017 ,0.87694 ,2.85509 ,28.01415 
148 ,28.4940 ,0.87891 ,2.82087 ,27.67836 
149 ,28.7181 ,0.88114 ,2.80718 ,27.54405 
150 ,28.9100 ,0.88302 ,2.81402 ,27.61121 
151 ,29.0864 ,0.88484 ,2.79007 ,27.37616 
152 ,29.2461 ,0.88656 ,2.77638 ,27.24185 
153 ,29.4222 ,0.88819 ,2.76611 ,27.14111 
154 ,29.5985 ,0.88998 ,2.74558 ,26.93964 
155 ,29.7905 ,0.89185 ,2.74900 ,26.97322 
156 ,29.9826 ,0.89373 ,2.71136 ,26.60386 
157 ,30.1904 ,0.89584 ,2.72505 ,26.73817 
158 ,30.3828 ,0.89777 ,2.69425 ,26.43597 
159 ,30.6068 ,0.90001 ,2.66687 ,26.16734 
160 ,30.8149 ,0.90204 ,2.66345 ,26.13376 
161 ,31.0069 ,0.90401 ,2.63949 ,25.89871 
162 ,31.1831 ,0.90584 ,2.62923 ,25.79798 
163 ,31.4070 ,0.90809 ,2.60185 ,25.52935 
164 ,31.6152 ,0.91014 ,2.58816 ,25.39504 
165 ,31.8073 ,0.91202 ,2.57447 ,25.26073 
166 ,32.0153 ,0.91411 ,2.56763 ,25.19357 
167 ,32.1914 ,0.91588 ,2.56421 ,25.15999 
168 ,32.3994 ,0.91795 ,2.52656 ,24.79063 
169 ,32.5755 ,0.91975 ,2.50603 ,24.58916 
170 ,32.7516 ,0.92147 ,2.51630 ,24.68989 
171 ,32.9596 ,0.92355 ,2.48892 ,24.42127 
172 ,33.1518 ,0.92546 ,2.48550 ,24.38769 
173 ,33.3598 ,0.92753 ,2.46154 ,24.15264 
174 ,33.5198 ,0.92931 ,2.44443 ,23.98475 
175 ,33.7119 ,0.93098 ,2.43416 ,23.88402 
176 ,33.9041 ,0.93294 ,2.43074 ,23.85044 
177 ,34.1121 ,0.93511 ,2.41363 ,23.68255 
178 ,34.3043 ,0.93696 ,2.38283 ,23.38034 
179 ,34.4959 ,0.93900 ,2.38625 ,23.41392 
180 ,34.6886 ,0.94082 ,2.37256 ,23.27961 
181 ,34.8804 ,0.94276 ,2.34177 ,22.97740 
182 ,35.1046 ,0.94489 ,2.33834 ,22.94382 
183 ,35.3127 ,0.94709 ,2.33492 ,22.91024 
184 ,35.5205 ,0.94913 ,2.29043 ,22.47373 
185 ,35.7289 ,0.95122 ,2.29385 ,22.50731 
186 ,35.9206 ,0.95310 ,2.26648 ,22.23868 
187 ,36.0970 ,0.95493 ,2.25963 ,22.17152 
188 ,36.2731 ,0.95670 ,2.26306 ,22.20510 
189 ,36.4811 ,0.95882 ,2.24252 ,22.00363 
190 ,36.6569 ,0.96051 ,2.22199 ,21.80216 
191 ,36.8334 ,0.96232 ,2.21857 ,21.76858 
192 ,37.0254 ,0.96423 ,2.19461 ,21.53353 
193 ,37.2174 ,0.96604 ,2.19803 ,21.56711 
194 ,37.4095 ,0.96799 ,2.16039 ,21.19775 
195 ,37.6176 ,0.97009 ,2.15355 ,21.13059 
196 ,37.8097 ,0.97201 ,2.13986 ,20.99628 
197 ,38.0338 ,0.97416 ,2.12617 ,20.86197 
198 ,38.2098 ,0.97602 ,2.11248 ,20.72766 
199 ,38.4018 ,0.97785 ,2.08168 ,20.42545 
200 ,38.5781 ,0.97975 ,2.06457 ,20.25756 
201 ,38.7698 ,0.98162 ,2.07484 ,20.35829 
202 ,38.9622 ,0.98350 ,2.05088 ,20.12325 
203 ,39.1383 ,0.98531 ,2.03719 ,19.98893 
204 ,39.3303 ,0.98717 ,2.01324 ,19.75388 
205 ,39.5225 ,0.98916 ,1.99270 ,19.55241 
206 ,39.6986 ,0.99092 ,2.00297 ,19.65315 
207 ,39.8906 ,0.99280 ,1.98244 ,19.45168 
208 ,40.0825 ,0.99471 ,1.97217 ,19.35094 
209 ,40.2748 ,0.99663 ,1.96190 ,19.25021 
210 ,40.4827 ,0.99872 ,1.92768 ,18.91443 
211 ,40.6588 ,1.00052 ,1.92768 ,18.91443 
212 ,40.8507 ,1.00236 ,1.90715 ,18.71296 
213 ,41.0430 ,1.00430 ,1.87977 ,18.44433 
214 ,41.2830 ,1.00660 ,1.87977 ,18.44433 
215 ,41.4753 ,1.00861 ,1.89004 ,18.54507 
216 ,41.6832 ,1.01076 ,1.84213 ,18.07497 
217 ,41.8753 ,1.01268 ,1.82844 ,17.94066 
218 ,42.0515 ,1.01443 ,1.83871 ,18.04139 
219 ,42.2755 ,1.01666 ,1.81133 ,17.77276 
220 ,42.4516 ,1.01848 ,1.80449 ,17.70561 
221 ,42.6595 ,1.02048 ,1.79080 ,17.57129 
222 ,42.8676 ,1.02259 ,1.77026 ,17.36983 
223 ,43.0438 ,1.02438 ,1.73604 ,17.03404 
224 ,43.2199 ,1.02618 ,1.72578 ,16.93331 
225 ,43.3958 ,1.02791 ,1.73946 ,17.06762 
226 ,43.5721 ,1.02970 ,1.72578 ,16.93331 
227 ,43.7642 ,1.03157 ,1.69498 ,16.63110 
228 ,43.9563 ,1.03349 ,1.68813 ,16.56395 
229 ,44.1480 ,1.03532 ,1.66418 ,16.32890 
230 ,44.3244 ,1.03715 ,1.66075 ,16.29532 
231 ,44.5164 ,1.03899 ,1.65391 ,16.22816 
232 ,44.7082 ,1.04096 ,1.63680 ,16.06027 
233 ,44.9007 ,1.04284 ,1.63680 ,16.06027 
234 ,45.1086 ,1.04498 ,1.60600 ,15.75807 
235 ,45.3007 ,1.04685 ,1.58204 ,15.52302 
236 ,45.5089 ,1.04893 ,1.56836 ,15.38871 
237 ,45.7169 ,1.05106 ,1.56493 ,15.35513 
238 ,45.9250 ,1.05316 ,1.53413 ,15.05292 
239 ,46.1011 ,1.05501 ,1.53413 ,15.05292 
240 ,46.2771 ,1.05671 ,1.53756 ,15.08650 
241 ,46.4853 ,1.05864 ,1.50333 ,14.75072 
242 ,46.6933 ,1.06078 ,1.50676 ,14.78430 
243 ,46.8857 ,1.06276 ,1.48965 ,14.61640 
244 ,47.0774 ,1.06464 ,1.46569 ,14.38136 
245 ,47.2853 ,1.06665 ,1.45200 ,14.24704 
246 ,47.4616 ,1.06852 ,1.44516 ,14.17989 
247 ,47.6857 ,1.07074 ,1.42805 ,14.01199 
248 ,47.8618 ,1.07257 ,1.41436 ,13.87768 
249 ,48.0698 ,1.07457 ,1.38698 ,13.60906 
250 ,48.2459 ,1.07639 ,1.38014 ,13.54190 
251 ,48.4541 ,1.07846 ,1.37671 ,13.50832 
252 ,48.6619 ,1.08056 ,1.34934 ,13.23969 
253 ,48.8539 ,1.08238 ,1.34249 ,13.17254 
254 ,49.0942 ,1.08465 ,1.32880 ,13.03822 
255 ,49.3024 ,1.08681 ,1.31512 ,12.90391 
256 ,49.4943 ,1.08885 ,1.30485 ,12.80318 
257 ,49.6703 ,1.09060 ,1.27747 ,12.53455 
258 ,49.8626 ,1.09250 ,1.28774 ,12.63528 
259 ,50.0706 ,1.09460 ,1.25009 ,12.26592 
260 ,50.2627 ,1.09643 ,1.26378 ,12.40024 
261 ,50.4227 ,1.09827 ,1.25009 ,12.26592 
262 ,50.6151 ,1.10005 ,1.23298 ,12.09803 
263 ,50.8230 ,1.10212 ,1.21929 ,11.96372 
264 ,51.0149 ,1.10404 ,1.18850 ,11.66151 
265 ,51.2071 ,1.10588 ,1.17823 ,11.56078 
266 ,51.4312 ,1.10811 ,1.17138 ,11.49362 
267 ,51.6232 ,1.11023 ,1.16796 ,11.46004 
268 ,51.8154 ,1.11207 ,1.14743 ,11.25857 
269 ,52.0234 ,1.11408 ,1.12690 ,11.05710 
270 ,52.1996 ,1.11592 ,1.12005 ,10.98995 
271 ,52.4075 ,1.11790 ,1.10636 ,10.85563 
272 ,52.5994 ,1.11983 ,1.09610 ,10.75490 
273 ,52.7916 ,1.12175 ,1.07214 ,10.51985 
274 ,52.9999 ,1.12385 ,1.06872 ,10.48627 
275 ,53.1919 ,1.12579 ,1.03792 ,10.18407 
276 ,53.3836 ,1.12773 ,1.03792 ,10.18407 
277 ,53.5596 ,1.12953 ,1.02765 ,10.08333 
278 ,53.7520 ,1.13135 ,1.01054 ,9.91544 
279 ,53.9763 ,1.13360 ,0.98659 ,9.68039 
280 ,54.1845 ,1.13570 ,0.99685 ,9.78113 
281 ,54.3763 ,1.13764 ,0.96948 ,9.51250 
282 ,54.5524 ,1.13937 ,0.94552 ,9.27745 
283 ,54.7604 ,1.14131 ,0.94210 ,9.24388 
284 ,54.9685 ,1.14353 ,0.92157 ,9.04241 
285 ,55.1447 ,1.14535 ,0.91472 ,8.97525 
286 ,55.3367 ,1.14720 ,0.89419 ,8.77378 
287 ,55.5128 ,1.14908 ,0.88734 ,8.70662 
288 ,55.7048 ,1.15086 ,0.88734 ,8.70662 
289 ,55.8970 ,1.15278 ,0.85654 ,8.40442 
290 ,56.1049 ,1.15492 ,0.85654 ,8.40442 
291 ,56.2973 ,1.15680 ,0.82917 ,8.13579 
292 ,56.5053 ,1.15892 ,0.83601 ,8.20295 
293 ,56.7133 ,1.16102 ,0.80179 ,7.86717 
294 ,56.9213 ,1.16304 ,0.80179 ,7.86717 
295 ,57.0975 ,1.16489 ,0.78468 ,7.69927 
296 ,57.3053 ,1.16689 ,0.78468 ,7.69927 
297 ,57.4815 ,1.16871 ,0.76072 ,7.46423 
298 ,57.6738 ,1.17053 ,0.72992 ,7.16202 
299 ,57.8655 ,1.17250 ,0.75046 ,7.36349 
300 ,58.0579 ,1.17441 ,0.72308 ,7.09486 
301 ,58.2977 ,1.17679 ,0.70597 ,6.92697 
302 ,58.4741 ,1.17865 ,0.69913 ,6.85982 
303 ,58.6821 ,1.18069 ,0.68886 ,6.75908 
304 ,58.9058 ,1.18278 ,0.68886 ,6.75908 
305 ,59.0984 ,1.18480 ,0.64437 ,6.32256 
306 ,59.2905 ,1.18674 ,0.64779 ,6.35614 
307 ,59.4984 ,1.18886 ,0.63410 ,6.22183 
308 ,59.6745 ,1.19063 ,0.62042 ,6.08752 
309 ,59.8503 ,1.19237 ,0.60330 ,5.91962 
310 ,60.0264 ,1.19412 ,0.59988 ,5.88605 
311 ,60.2185 ,1.19604 ,0.58277 ,5.71815 
312 ,60.4269 ,1.19815 ,0.56224 ,5.51668 
313 ,60.6187 ,1.19999 ,0.54855 ,5.38237 
314 ,60.8109 ,1.20196 ,0.54513 ,5.34879 
315 ,61.0189 ,1.20406 ,0.52117 ,5.11375 
316 ,61.1951 ,1.20588 ,0.51775 ,5.08017 
317 ,61.4030 ,1.20783 ,0.51091 ,5.01301 
318 ,61.6274 ,1.21000 ,0.49380 ,4.84512 
319 ,61.8192 ,1.21199 ,0.48695 ,4.77796 
320 ,62.0275 ,1.21413 ,0.47668 ,4.67723 
321 ,62.2193 ,1.21595 ,0.45615 ,4.47576 
322 ,62.4115 ,1.21788 ,0.46300 ,4.54291 
323 ,62.6197 ,1.21992 ,0.44246 ,4.34144 
324 ,62.8118 ,1.22190 ,0.43220 ,4.24071 
325 ,63.0040 ,1.22384 ,0.41166 ,4.03924 
326 ,63.1956 ,1.22589 ,0.38429 ,3.77061 
327 ,63.3884 ,1.22770 ,0.38429 ,3.77061 
328 ,63.5962 ,1.22975 ,0.35349 ,3.46841 
329 ,63.7882 ,1.23168 ,0.36718 ,3.60272 
330 ,63.9804 ,1.23359 ,0.34322 ,3.36767 
331 ,64.1723 ,1.23553 ,0.33295 ,3.26694 
332 ,64.3484 ,1.23738 ,0.32953 ,3.23336 
333 ,64.5245 ,1.23908 ,0.31926 ,3.13263 
334 ,64.7006 ,1.24089 ,0.29873 ,2.93116 
335 ,64.8927 ,1.24273 ,0.29873 ,2.93116 
336 ,65.0688 ,1.24455 ,0.28847 ,2.83042 
337 ,65.2770 ,1.24665 ,0.25424 ,2.49464 
338 ,65.4849 ,1.24863 ,0.25767 ,2.52822 
339 ,65.6930 ,1.25071 ,0.24055 ,2.36032 
340 ,65.9009 ,1.25270 ,0.24055 ,2.36032 
341 ,66.1089 ,1.25487 ,0.23029 ,2.25959 
342 ,66.3013 ,1.25678 ,0.20291 ,1.99096 
343 ,66.5092 ,1.25885 ,0.20291 ,1.99096 
344 ,66.7174 ,1.26099 ,0.18580 ,1.82307 
345 ,66.8936 ,1.26280 ,0.17896 ,1.75592 
346 ,67.0697 ,1.26456 ,0.16527 ,1.62160 
347 ,67.2617 ,1.26641 ,0.15842 ,1.55445 
348 ,67.4535 ,1.26832 ,0.15842 ,1.55445 
349 ,67.6618 ,1.27035 ,0.14816 ,1.45371 
350 ,67.8535 ,1.27236 ,0.12420 ,1.21866 
351 ,68.0455 ,1.27427 ,0.12420 ,1.21866 
352 ,68.2377 ,1.27616 ,0.08998 ,0.88288 
353 ,68.4297 ,1.27807 ,0.10709 ,1.05077 
354 ,68.6383 ,1.28020 ,0.06602 ,0.64783 
355 ,68.8299 ,1.28215 ,0.07629 ,0.74857 
356 ,69.0061 ,1.28387 ,0.07629 ,0.74857 
357 ,69.1985 ,1.28577 ,0.04207 ,0.41278 
358 ,69.4065 ,1.28787 ,0.04549 ,0.44636 
359 ,69.5824 ,1.28969 ,0.02496 ,0.24489 
360 ,69.7748 ,1.29155 ,0.01811 ,0.17773 
361 ,69.9829 ,1.29365 ,0.00100 ,0.00984 
362 ,70.1907 ,1.29568 ,0.00785 ,0.07700 
363 ,70.3665 ,1.29753 ,-0.00584 ,-0.05731 
364 ,70.5590 ,1.29935 ,-0.02980 ,-0.29236 
365 ,70.7509 ,1.30123 ,-0.02295 ,-0.22520 
366 ,70.9432 ,1.30319 ,-0.05033 ,-0.49383 
367 ,71.1191 ,1.30507 ,-0.04348 ,-0.42667 
368 ,71.3273 ,1.30705 ,-0.05717 ,-0.56099 
369 ,71.5033 ,1.30889 ,-0.07086 ,-0.69530 
370 ,71.6954 ,1.31074 ,-0.07086 ,-0.69530 
371 ,71.8875 ,1.31265 ,-0.09140 ,-0.89677 
372 ,72.0635 ,1.31444 ,-0.09824 ,-0.96393 
373 ,72.2557 ,1.31628 ,-0.09482 ,-0.93035 
374 ,72.4478 ,1.31826 ,-0.12562 ,-1.23255 
375 ,72.6399 ,1.32018 ,-0.11877 ,-1.16540 
376 ,72.8478 ,1.32224 ,-0.13246 ,-1.29971 
377 ,73.0239 ,1.32407 ,-0.15299 ,-1.50118 
378 ,73.2001 ,1.32578 ,-0.15984 ,-1.56834 
379 ,73.4081 ,1.32776 ,-0.14273 ,-1.40045 
380 ,73.6000 ,1.32976 ,-0.18037 ,-1.76981 
381 ,73.7762 ,1.33158 ,-0.18379 ,-1.80338 
382 ,73.9683 ,1.33342 ,-0.21117 ,-2.07201 
383 ,74.1601 ,1.33535 ,-0.19064 ,-1.87054 
384 ,74.3525 ,1.33726 ,-0.19406 ,-1.90412 
385 ,74.5766 ,1.33954 ,-0.20433 ,-2.00485 
386 ,74.7847 ,1.34146 ,-0.22828 ,-2.23990 
387 ,74.9927 ,1.34372 ,-0.22486 ,-2.20632 
388 ,75.2007 ,1.34576 ,-0.24197 ,-2.37422 
389 ,75.3929 ,1.34761 ,-0.23855 ,-2.34064 
390 ,75.5850 ,1.34967 ,-0.26593 ,-2.60926 
391 ,75.7610 ,1.35137 ,-0.28304 ,-2.77716 
392 ,75.9532 ,1.35324 ,-0.27619 ,-2.71000 
393 ,76.1612 ,1.35538 ,-0.29673 ,-2.91147 
394 ,76.3534 ,1.35731 ,-0.29673 ,-2.91147 
395 ,76.5613 ,1.35939 ,-0.31384 ,-3.07936 
396 ,76.7535 ,1.36124 ,-0.31726 ,-3.11294 
397 ,76.9454 ,1.36321 ,-0.34464 ,-3.38156 
398 ,77.1056 ,1.36496 ,-0.33095 ,-3.24725 
399 ,77.2978 ,1.36671 ,-0.33437 ,-3.28083 
400 ,77.4894 ,1.36866 ,-0.35832 ,-3.51588 
401 ,77.6817 ,1.37060 ,-0.36175 ,-3.54946 
402 ,77.8739 ,1.37242 ,-0.37886 ,-3.71735 
403 ,78.0499 ,1.37430 ,-0.38228 ,-3.75093 
404 ,78.2580 ,1.37638 ,-0.38912 ,-3.81808 
405 ,78.4661 ,1.37845 ,-0.40966 ,-4.01955 
406 ,78.6423 ,1.38023 ,-0.41650 ,-4.08671 
407 ,78.8503 ,1.38226 ,-0.41308 ,-4.05313 
408 ,79.0424 ,1.38412 ,-0.43019 ,-4.22102 
409 ,79.2504 ,1.38624 ,-0.44046 ,-4.32176 
410 ,79.4265 ,1.38803 ,-0.46441 ,-4.55681 
411 ,79.6347 ,1.39016 ,-0.45414 ,-4.45607 
412 ,79.8267 ,1.39204 ,-0.49521 ,-4.85901 
413 ,80.0189 ,1.39393 ,-0.47468 ,-4.65754 
414 ,80.2267 ,1.39606 ,-0.48837 ,-4.79185 
415 ,80.4350 ,1.39809 ,-0.49179 ,-4.82543 
416 ,80.6430 ,1.40019 ,-0.50548 ,-4.95975 
417 ,80.8352 ,1.40210 ,-0.50548 ,-4.95975 
418 ,81.0431 ,1.40408 ,-0.53285 ,-5.22837 
419 ,81.2354 ,1.40606 ,-0.53285 ,-5.22837 
420 ,81.4272 ,1.40800 ,-0.54997 ,-5.39626 
421 ,81.6353 ,1.41010 ,-0.55339 ,-5.42984 
422 ,81.8114 ,1.41189 ,-0.56365 ,-5.53058 
423 ,82.0036 ,1.41377 ,-0.57392 ,-5.63131 
424 ,82.2114 ,1.41586 ,-0.58761 ,-5.76562 
425 ,82.4034 ,1.41781 ,-0.57734 ,-5.66489 
426 ,82.5956 ,1.41966 ,-0.58419 ,-5.73205 
427 ,82.8037 ,1.42185 ,-0.59788 ,-5.86636 
428 ,83.0116 ,1.42383 ,-0.61841 ,-6.06783 
429 ,83.1881 ,1.42566 ,-0.62525 ,-6.13499 
430 ,83.3800 ,1.42753 ,-0.60472 ,-5.93352 
431 ,83.5721 ,1.42943 ,-0.63552 ,-6.23572 
432 ,83.7802 ,1.43154 ,-0.63210 ,-6.20214 
433 ,84.0044 ,1.43367 ,-0.66290 ,-6.50435 
434 ,84.1964 ,1.43571 ,-0.66290 ,-6.50435 
435 ,84.3724 ,1.43750 ,-0.68001 ,-6.67224 
436 ,84.5804 ,1.43956 ,-0.68685 ,-6.73940 
437 ,84.7727 ,1.44139 ,-0.70054 ,-6.87371 
438 ,84.9807 ,1.44356 ,-0.69027 ,-6.77297 
439 ,85.1727 ,1.44541 ,-0.72107 ,-7.07518 
440 ,85.3806 ,1.44746 ,-0.69712 ,-6.84013 
441 ,85.5568 ,1.44936 ,-0.71423 ,-7.00802 
442 ,85.7491 ,1.45120 ,-0.72107 ,-7.07518 
443 ,85.9251 ,1.45311 ,-0.73476 ,-7.20949 
444 ,86.1011 ,1.45476 ,-0.74161 ,-7.27665 
445 ,86.3091 ,1.45681 ,-0.74845 ,-7.34380 
446 ,86.4851 ,1.45869 ,-0.74845 ,-7.34380 
447 ,86.6935 ,1.46056 ,-0.77583 ,-7.61243 
448 ,86.9016 ,1.46272 ,-0.77925 ,-7.64601 
449 ,87.1095 ,1.46481 ,-0.78952 ,-7.74674 
450 ,87.3016 ,1.46672 ,-0.78267 ,-7.67959 
451 ,87.5097 ,1.46879 ,-0.79978 ,-7.84748 
452 ,87.6858 ,1.47066 ,-0.81689 ,-8.01537 
453 ,87.8781 ,1.47251 ,-0.81347 ,-7.98179 
454 ,88.0863 ,1.47458 ,-0.83401 ,-8.18326 
455 ,88.2782 ,1.47653 ,-0.84085 ,-8.25042 
456 ,88.4864 ,1.47860 ,-0.84085 ,-8.25042 
457 ,88.6784 ,1.48056 ,-0.86823 ,-8.51904 
458 ,88.8705 ,1.48242 ,-0.87165 ,-8.55262 
459 ,89.0946 ,1.48468 ,-0.88534 ,-8.68694 
460 ,89.2862 ,1.48659 ,-0.86138 ,-8.45189 
461 ,89.4785 ,1.48849 ,-0.88876 ,-8.72051 
462 ,89.6707 ,1.49039 ,-0.89560 ,-8.78767 
463 ,89.8464 ,1.49229 ,-0.89560 ,-8.78767 
