Data stamp = , 12-04-2022 02:45:41 789

Calibration Values: 
Slope = , 26.54 , g/V 
Offset Voltage at no contact = , -0.501760 , V 

No , Time , Stage Position ,   Mass , Force 
   ,  (s) ,      (mm)      ,   (g)  , (mN)  

1 ,0.0000 ,0.59932 ,5.05554 ,49.60499 
2 ,0.2096 ,0.59939 ,5.06923 ,49.73931 
3 ,0.5298 ,0.60018 ,5.05897 ,49.63857 
4 ,0.7383 ,0.60162 ,5.06239 ,49.67215 
5 ,0.9622 ,0.60354 ,5.05554 ,49.60499 
6 ,1.1702 ,0.60561 ,5.05897 ,49.63857 
7 ,1.3624 ,0.60745 ,5.06923 ,49.73931 
8 ,1.5384 ,0.60932 ,5.05897 ,49.63857 
9 ,1.7142 ,0.61120 ,5.02474 ,49.30279 
10 ,1.8905 ,0.61287 ,5.01448 ,49.20205 
11 ,2.0825 ,0.61481 ,5.02474 ,49.30279 
12 ,2.2909 ,0.61693 ,4.99394 ,49.00058 
13 ,2.4826 ,0.61881 ,4.97341 ,48.79911 
14 ,2.6585 ,0.62057 ,4.96315 ,48.69838 
15 ,2.8509 ,0.62249 ,4.93235 ,48.39618 
16 ,3.0431 ,0.62431 ,4.91181 ,48.19471 
17 ,3.2351 ,0.62627 ,4.88444 ,47.92608 
18 ,3.4112 ,0.62808 ,4.88101 ,47.89250 
19 ,3.5873 ,0.62985 ,4.86048 ,47.69103 
20 ,3.7631 ,0.63162 ,4.85706 ,47.65745 
21 ,3.9559 ,0.63351 ,4.83652 ,47.45598 
22 ,4.1477 ,0.63544 ,4.82626 ,47.35525 
23 ,4.3396 ,0.63733 ,4.82284 ,47.32167 
24 ,4.5318 ,0.63924 ,4.77835 ,46.88515 
25 ,4.7237 ,0.64115 ,4.77493 ,46.85157 
26 ,4.8997 ,0.64302 ,4.75097 ,46.61653 
27 ,5.0918 ,0.64491 ,4.72702 ,46.38148 
28 ,5.2840 ,0.64682 ,4.73386 ,46.44863 
29 ,5.4601 ,0.64857 ,4.72702 ,46.38148 
30 ,5.6522 ,0.65045 ,4.69964 ,46.11285 
31 ,5.8282 ,0.65230 ,4.66542 ,45.77707 
32 ,6.0203 ,0.65409 ,4.67226 ,45.84422 
33 ,6.2124 ,0.65600 ,4.64146 ,45.54202 
34 ,6.4046 ,0.65797 ,4.64488 ,45.57560 
35 ,6.5967 ,0.65991 ,4.61066 ,45.23981 
36 ,6.8047 ,0.66202 ,4.60040 ,45.13908 
37 ,6.9967 ,0.66389 ,4.58328 ,44.97119 
38 ,7.1729 ,0.66572 ,4.55591 ,44.70256 
39 ,7.3809 ,0.66768 ,4.55249 ,44.66898 
40 ,7.5890 ,0.66986 ,4.53195 ,44.46751 
41 ,7.7971 ,0.67180 ,4.51142 ,44.26604 
42 ,7.9889 ,0.67396 ,4.50115 ,44.16531 
43 ,8.1813 ,0.67582 ,4.48404 ,43.99742 
44 ,8.3893 ,0.67785 ,4.45666 ,43.72879 
45 ,8.5654 ,0.67970 ,4.45324 ,43.69521 
46 ,8.7416 ,0.68138 ,4.44298 ,43.59448 
47 ,8.9176 ,0.68313 ,4.41560 ,43.32585 
48 ,9.1093 ,0.68498 ,4.38822 ,43.05723 
49 ,9.2857 ,0.68684 ,4.38480 ,43.02365 
50 ,9.4778 ,0.68870 ,4.36427 ,42.82218 
51 ,9.6699 ,0.69056 ,4.34031 ,42.58713 
52 ,9.8619 ,0.69253 ,4.34373 ,42.62071 
53 ,10.0700 ,0.69467 ,4.31636 ,42.35208 
54 ,10.2942 ,0.69678 ,4.30609 ,42.25135 
55 ,10.5022 ,0.69891 ,4.29240 ,42.11703 
56 ,10.6782 ,0.70082 ,4.26502 ,41.84841 
57 ,10.8543 ,0.70251 ,4.25133 ,41.71409 
58 ,11.0625 ,0.70458 ,4.25133 ,41.71409 
59 ,11.2705 ,0.70662 ,4.20685 ,41.27758 
60 ,11.4787 ,0.70872 ,4.21027 ,41.31115 
61 ,11.6707 ,0.71062 ,4.17262 ,40.94179 
62 ,11.8785 ,0.71267 ,4.17262 ,40.94179 
63 ,12.0707 ,0.71465 ,4.14867 ,40.70674 
64 ,12.2467 ,0.71649 ,4.13840 ,40.60601 
65 ,12.4550 ,0.71836 ,4.12129 ,40.43812 
66 ,12.6471 ,0.72038 ,4.11103 ,40.33738 
67 ,12.8392 ,0.72228 ,4.10076 ,40.23665 
68 ,13.0312 ,0.72417 ,4.07680 ,40.00160 
69 ,13.2071 ,0.72604 ,4.06312 ,39.86729 
70 ,13.3833 ,0.72782 ,4.03574 ,39.59866 
71 ,13.5755 ,0.72967 ,4.01520 ,39.39719 
72 ,13.7676 ,0.73158 ,4.01520 ,39.39719 
73 ,13.9436 ,0.73338 ,3.99809 ,39.22930 
74 ,14.1517 ,0.73542 ,3.96045 ,38.85994 
75 ,14.3437 ,0.73729 ,3.96045 ,38.85994 
76 ,14.5194 ,0.73923 ,3.93650 ,38.62489 
77 ,14.7119 ,0.74108 ,3.92623 ,38.52415 
78 ,14.8879 ,0.74292 ,3.91596 ,38.42342 
79 ,15.0799 ,0.74471 ,3.90912 ,38.35626 
80 ,15.2399 ,0.74647 ,3.89543 ,38.22195 
81 ,15.4318 ,0.74818 ,3.86805 ,37.95332 
82 ,15.6243 ,0.75010 ,3.86121 ,37.88617 
83 ,15.8163 ,0.75207 ,3.83383 ,37.61754 
84 ,16.0563 ,0.75449 ,3.82699 ,37.55038 
85 ,16.2324 ,0.75627 ,3.80303 ,37.31534 
86 ,16.4246 ,0.75813 ,3.79619 ,37.24818 
87 ,16.6165 ,0.76006 ,3.78250 ,37.11387 
88 ,16.7928 ,0.76188 ,3.76196 ,36.91240 
89 ,17.0168 ,0.76398 ,3.74485 ,36.74450 
90 ,17.1930 ,0.76590 ,3.72090 ,36.50946 
91 ,17.3851 ,0.76772 ,3.71748 ,36.47588 
92 ,17.5926 ,0.76985 ,3.70379 ,36.34157 
93 ,17.7690 ,0.77163 ,3.66957 ,36.00578 
94 ,17.9933 ,0.77385 ,3.66272 ,35.93863 
95 ,18.1849 ,0.77589 ,3.65930 ,35.90505 
96 ,18.3610 ,0.77752 ,3.64219 ,35.73716 
97 ,18.5370 ,0.77934 ,3.60797 ,35.40137 
98 ,18.7292 ,0.78113 ,3.60797 ,35.40137 
99 ,18.9214 ,0.78314 ,3.60112 ,35.33422 
100 ,19.0977 ,0.78489 ,3.58743 ,35.19990 
101 ,19.2897 ,0.78680 ,3.56690 ,34.99843 
102 ,19.4978 ,0.78886 ,3.54979 ,34.83054 
103 ,19.6735 ,0.79074 ,3.53268 ,34.66265 
104 ,19.8660 ,0.79252 ,3.52926 ,34.62907 
105 ,20.0900 ,0.79472 ,3.51557 ,34.49476 
106 ,20.2822 ,0.79667 ,3.48477 ,34.19255 
107 ,20.4743 ,0.79865 ,3.46766 ,34.02466 
108 ,20.6663 ,0.80055 ,3.46424 ,33.99108 
109 ,20.8580 ,0.80244 ,3.44370 ,33.78961 
110 ,21.0344 ,0.80428 ,3.41290 ,33.48741 
111 ,21.2266 ,0.80607 ,3.39921 ,33.35310 
112 ,21.4185 ,0.80805 ,3.39579 ,33.31952 
113 ,21.6267 ,0.81014 ,3.39579 ,33.31952 
114 ,21.8024 ,0.81193 ,3.37184 ,33.08447 
115 ,22.0109 ,0.81393 ,3.36157 ,32.98374 
116 ,22.2025 ,0.81584 ,3.34104 ,32.78227 
117 ,22.3790 ,0.81770 ,3.32735 ,32.64795 
118 ,22.5711 ,0.81958 ,3.29313 ,32.31217 
119 ,22.7471 ,0.82143 ,3.30682 ,32.44648 
120 ,22.9389 ,0.82317 ,3.28971 ,32.27859 
121 ,23.1152 ,0.82511 ,3.25891 ,31.97639 
122 ,23.3230 ,0.82706 ,3.25891 ,31.97639 
123 ,23.5152 ,0.82900 ,3.21784 ,31.57345 
124 ,23.6913 ,0.83085 ,3.20415 ,31.43913 
125 ,23.8994 ,0.83283 ,3.20073 ,31.40555 
126 ,24.0915 ,0.83477 ,3.17677 ,31.17051 
127 ,24.2834 ,0.83671 ,3.17677 ,31.17051 
128 ,24.4601 ,0.83849 ,3.16309 ,31.03619 
129 ,24.6679 ,0.84056 ,3.14597 ,30.86830 
130 ,24.8759 ,0.84266 ,3.12886 ,30.70041 
131 ,25.0677 ,0.84454 ,3.11518 ,30.56610 
132 ,25.2439 ,0.84636 ,3.09806 ,30.39821 
133 ,25.4526 ,0.84841 ,3.07411 ,30.16316 
134 ,25.6280 ,0.85024 ,3.07411 ,30.16316 
135 ,25.8204 ,0.85209 ,3.06042 ,30.02884 
136 ,26.0444 ,0.85427 ,3.03989 ,29.82737 
137 ,26.2205 ,0.85614 ,3.03989 ,29.82737 
138 ,26.4287 ,0.85815 ,3.00224 ,29.45801 
139 ,26.6205 ,0.86002 ,3.00224 ,29.45801 
140 ,26.8284 ,0.86201 ,2.97829 ,29.22297 
141 ,27.0368 ,0.86423 ,2.95776 ,29.02150 
142 ,27.2290 ,0.86614 ,2.94749 ,28.92076 
143 ,27.4370 ,0.86822 ,2.93722 ,28.82003 
144 ,27.6451 ,0.87036 ,2.91327 ,28.58498 
145 ,27.8372 ,0.87220 ,2.89273 ,28.38351 
146 ,28.0292 ,0.87417 ,2.87905 ,28.24919 
147 ,28.2368 ,0.87617 ,2.86536 ,28.11488 
148 ,28.4455 ,0.87818 ,2.84825 ,27.94699 
149 ,28.6536 ,0.88038 ,2.82087 ,27.67836 
150 ,28.8457 ,0.88233 ,2.82087 ,27.67836 
151 ,29.0377 ,0.88417 ,2.81060 ,27.57763 
152 ,29.2458 ,0.88624 ,2.78322 ,27.30900 
153 ,29.4697 ,0.88847 ,2.76954 ,27.17469 
154 ,29.6779 ,0.89064 ,2.74900 ,26.97322 
155 ,29.8538 ,0.89243 ,2.76611 ,27.14111 
156 ,30.0622 ,0.89440 ,2.71820 ,26.67101 
157 ,30.2540 ,0.89637 ,2.70109 ,26.50312 
158 ,30.4463 ,0.89829 ,2.70452 ,26.53670 
159 ,30.6383 ,0.90024 ,2.70794 ,26.57028 
160 ,30.8462 ,0.90224 ,2.68056 ,26.30165 
161 ,31.0223 ,0.90412 ,2.66003 ,26.10018 
162 ,31.1984 ,0.90584 ,2.65660 ,26.06661 
163 ,31.3904 ,0.90777 ,2.62923 ,25.79798 
164 ,31.5827 ,0.90972 ,2.61896 ,25.69724 
165 ,31.7906 ,0.91176 ,2.59501 ,25.46220 
166 ,31.9829 ,0.91364 ,2.59501 ,25.46220 
167 ,32.1907 ,0.91581 ,2.56078 ,25.12641 
168 ,32.3670 ,0.91756 ,2.55052 ,25.02568 
169 ,32.5270 ,0.91928 ,2.55052 ,25.02568 
170 ,32.7032 ,0.92094 ,2.55052 ,25.02568 
171 ,32.9110 ,0.92292 ,2.51972 ,24.72347 
172 ,33.1034 ,0.92483 ,2.51287 ,24.65632 
173 ,33.2953 ,0.92677 ,2.48550 ,24.38769 
174 ,33.4715 ,0.92862 ,2.46154 ,24.15264 
175 ,33.6795 ,0.93053 ,2.46496 ,24.18622 
176 ,33.8713 ,0.93268 ,2.44101 ,23.95117 
177 ,34.0478 ,0.93435 ,2.42390 ,23.78328 
178 ,34.2397 ,0.93620 ,2.42390 ,23.78328 
179 ,34.4158 ,0.93801 ,2.41705 ,23.71612 
180 ,34.6076 ,0.93988 ,2.39310 ,23.48108 
181 ,34.8159 ,0.94186 ,2.36572 ,23.21245 
182 ,35.0079 ,0.94393 ,2.35203 ,23.07814 
183 ,35.1841 ,0.94574 ,2.34519 ,23.01098 
184 ,35.3603 ,0.94746 ,2.34861 ,23.04456 
185 ,35.5525 ,0.94939 ,2.30070 ,22.57446 
186 ,35.7602 ,0.95141 ,2.30412 ,22.60804 
187 ,35.9526 ,0.95331 ,2.26648 ,22.23868 
188 ,36.1285 ,0.95527 ,2.26990 ,22.27226 
189 ,36.3205 ,0.95710 ,2.27332 ,22.30584 
190 ,36.4967 ,0.95882 ,2.25621 ,22.13794 
191 ,36.6886 ,0.96069 ,2.22541 ,21.83574 
192 ,36.8808 ,0.96266 ,2.22883 ,21.86932 
193 ,37.0888 ,0.96473 ,2.20146 ,21.60069 
194 ,37.2650 ,0.96649 ,2.18092 ,21.39922 
195 ,37.4411 ,0.96830 ,2.19119 ,21.49996 
196 ,37.6652 ,0.97046 ,2.17408 ,21.33206 
197 ,37.8412 ,0.97226 ,2.15697 ,21.16417 
198 ,38.0333 ,0.97411 ,2.12275 ,20.82839 
199 ,38.2414 ,0.97611 ,2.11248 ,20.72766 
200 ,38.4491 ,0.97831 ,2.08510 ,20.45903 
201 ,38.6416 ,0.98018 ,2.08168 ,20.42545 
202 ,38.8653 ,0.98245 ,2.08168 ,20.42545 
203 ,39.0579 ,0.98438 ,2.05430 ,20.15682 
204 ,39.2497 ,0.98633 ,2.03719 ,19.98893 
205 ,39.4578 ,0.98835 ,2.03035 ,19.92178 
206 ,39.6340 ,0.99021 ,2.00639 ,19.68673 
207 ,39.8259 ,0.99207 ,2.01324 ,19.75388 
208 ,39.9860 ,0.99382 ,1.99270 ,19.55241 
209 ,40.1781 ,0.99560 ,1.97559 ,19.38452 
210 ,40.3543 ,0.99741 ,1.95506 ,19.18305 
211 ,40.5784 ,0.99953 ,1.94137 ,19.04874 
212 ,40.7700 ,1.00150 ,1.92768 ,18.91443 
213 ,40.9622 ,1.00338 ,1.93453 ,18.98158 
214 ,41.1546 ,1.00536 ,1.89346 ,18.57864 
215 ,41.3467 ,1.00726 ,1.90031 ,18.64580 
216 ,41.5388 ,1.00920 ,1.87977 ,18.44433 
217 ,41.7308 ,1.01115 ,1.84213 ,18.07497 
218 ,41.9069 ,1.01302 ,1.85924 ,18.24286 
219 ,42.0990 ,1.01479 ,1.84555 ,18.10855 
220 ,42.3070 ,1.01683 ,1.81817 ,17.83992 
221 ,42.4832 ,1.01872 ,1.81475 ,17.80634 
222 ,42.6912 ,1.02071 ,1.77711 ,17.43698 
223 ,42.8674 ,1.02250 ,1.78053 ,17.47056 
224 ,43.0751 ,1.02455 ,1.75315 ,17.20193 
225 ,43.2674 ,1.02645 ,1.74973 ,17.16836 
226 ,43.4432 ,1.02829 ,1.74973 ,17.16836 
227 ,43.6357 ,1.03010 ,1.72235 ,16.89973 
228 ,43.8597 ,1.03230 ,1.71209 ,16.79899 
229 ,44.0679 ,1.03444 ,1.69840 ,16.66468 
230 ,44.2600 ,1.03635 ,1.67444 ,16.42963 
231 ,44.4521 ,1.03829 ,1.65391 ,16.22816 
232 ,44.6600 ,1.04040 ,1.65049 ,16.19458 
233 ,44.8362 ,1.04220 ,1.62311 ,15.92596 
234 ,45.0443 ,1.04428 ,1.62311 ,15.92596 
235 ,45.2360 ,1.04612 ,1.59573 ,15.65733 
236 ,45.4124 ,1.04798 ,1.58547 ,15.55660 
237 ,45.5886 ,1.04969 ,1.57862 ,15.48944 
238 ,45.7806 ,1.05160 ,1.57862 ,15.48944 
239 ,45.9727 ,1.05354 ,1.54782 ,15.18724 
240 ,46.1807 ,1.05561 ,1.55124 ,15.22081 
241 ,46.3889 ,1.05769 ,1.53071 ,15.01934 
242 ,46.5969 ,1.05975 ,1.51360 ,14.85145 
243 ,46.7890 ,1.06161 ,1.48622 ,14.58283 
244 ,46.9811 ,1.06358 ,1.49649 ,14.68356 
245 ,47.1891 ,1.06566 ,1.46569 ,14.38136 
246 ,47.3651 ,1.06746 ,1.47938 ,14.51567 
247 ,47.5413 ,1.06922 ,1.47253 ,14.44851 
248 ,47.7492 ,1.07126 ,1.43147 ,14.04557 
249 ,47.9254 ,1.07313 ,1.43831 ,14.11273 
250 ,48.1016 ,1.07487 ,1.42805 ,14.01199 
251 ,48.2936 ,1.07668 ,1.38698 ,13.60906 
252 ,48.5177 ,1.07890 ,1.38014 ,13.54190 
253 ,48.7256 ,1.08110 ,1.36645 ,13.40759 
254 ,48.9338 ,1.08312 ,1.33907 ,13.13896 
255 ,49.1259 ,1.08505 ,1.34591 ,13.20612 
256 ,49.3341 ,1.08716 ,1.32196 ,12.97107 
257 ,49.5260 ,1.08913 ,1.32538 ,13.00465 
258 ,49.7182 ,1.09098 ,1.30485 ,12.80318 
259 ,49.8942 ,1.09276 ,1.29800 ,12.73602 
260 ,50.0863 ,1.09465 ,1.28432 ,12.60171 
261 ,50.2784 ,1.09655 ,1.25352 ,12.29950 
262 ,50.4701 ,1.09847 ,1.23641 ,12.13161 
263 ,50.6627 ,1.10043 ,1.24667 ,12.23235 
264 ,50.8546 ,1.10231 ,1.20218 ,11.79583 
265 ,51.1908 ,1.10572 ,1.19192 ,11.69509 
266 ,51.3989 ,1.10777 ,1.18507 ,11.62794 
267 ,51.5746 ,1.10962 ,1.15427 ,11.32573 
268 ,51.7669 ,1.11140 ,1.17138 ,11.49362 
269 ,51.9430 ,1.11324 ,1.15085 ,11.29215 
270 ,52.1190 ,1.11497 ,1.14058 ,11.19142 
271 ,52.3272 ,1.11691 ,1.12690 ,11.05710 
272 ,52.5353 ,1.11910 ,1.09952 ,10.78848 
273 ,52.7270 ,1.12098 ,1.10636 ,10.85563 
274 ,52.9191 ,1.12287 ,1.07556 ,10.55343 
275 ,53.0951 ,1.12483 ,1.06187 ,10.41912 
276 ,53.2873 ,1.12663 ,1.05503 ,10.35196 
277 ,53.4957 ,1.12873 ,1.04819 ,10.28480 
278 ,53.6874 ,1.13074 ,1.04134 ,10.21765 
279 ,53.8796 ,1.13255 ,1.02423 ,10.04976 
280 ,54.1040 ,1.13468 ,0.99685 ,9.78113 
281 ,54.3119 ,1.13684 ,0.97974 ,9.61324 
282 ,54.5041 ,1.13885 ,0.97632 ,9.57966 
283 ,54.6800 ,1.14060 ,0.97290 ,9.54608 
284 ,54.8882 ,1.14264 ,0.94894 ,9.31103 
285 ,55.1124 ,1.14481 ,0.93525 ,9.17672 
286 ,55.3365 ,1.14705 ,0.90103 ,8.84094 
287 ,55.5283 ,1.14918 ,0.92841 ,9.10956 
288 ,55.7204 ,1.15089 ,0.89419 ,8.77378 
289 ,55.8966 ,1.15272 ,0.88734 ,8.70662 
290 ,56.0885 ,1.15460 ,0.87366 ,8.57231 
291 ,56.2808 ,1.15651 ,0.86339 ,8.47158 
292 ,56.4885 ,1.15858 ,0.84628 ,8.30368 
293 ,56.6649 ,1.16045 ,0.84628 ,8.30368 
294 ,56.8409 ,1.16224 ,0.82232 ,8.06864 
295 ,57.0171 ,1.16403 ,0.80863 ,7.93432 
296 ,57.2411 ,1.16610 ,0.79837 ,7.83359 
297 ,57.4495 ,1.16827 ,0.77784 ,7.63212 
298 ,57.6413 ,1.17023 ,0.77784 ,7.63212 
299 ,57.8491 ,1.17230 ,0.74704 ,7.32991 
300 ,58.0254 ,1.17402 ,0.74019 ,7.26276 
301 ,58.2015 ,1.17580 ,0.75388 ,7.39707 
302 ,58.3775 ,1.17753 ,0.74361 ,7.29633 
303 ,58.5696 ,1.17940 ,0.71624 ,7.02771 
304 ,58.7458 ,1.18126 ,0.69228 ,6.79266 
305 ,58.9539 ,1.18329 ,0.67517 ,6.62477 
306 ,59.1299 ,1.18510 ,0.67859 ,6.65835 
307 ,59.3220 ,1.18692 ,0.66148 ,6.49046 
308 ,59.5300 ,1.18907 ,0.64095 ,6.28899 
309 ,59.7062 ,1.19084 ,0.64437 ,6.32256 
310 ,59.8977 ,1.19275 ,0.63410 ,6.22183 
311 ,60.0740 ,1.19466 ,0.59646 ,5.85247 
312 ,60.2665 ,1.19639 ,0.59646 ,5.85247 
313 ,60.4587 ,1.19836 ,0.59988 ,5.88605 
314 ,60.6665 ,1.20038 ,0.58277 ,5.71815 
315 ,60.8588 ,1.20229 ,0.56566 ,5.55026 
316 ,61.0509 ,1.20426 ,0.54171 ,5.31522 
317 ,61.2268 ,1.20614 ,0.55539 ,5.44953 
318 ,61.4188 ,1.20792 ,0.53144 ,5.21448 
319 ,61.6110 ,1.20984 ,0.51091 ,5.01301 
320 ,61.8188 ,1.21186 ,0.50406 ,4.94585 
321 ,62.0111 ,1.21381 ,0.48353 ,4.74438 
322 ,62.2029 ,1.21573 ,0.49380 ,4.84512 
323 ,62.3950 ,1.21770 ,0.45615 ,4.47576 
324 ,62.5874 ,1.21962 ,0.45957 ,4.50934 
325 ,62.7956 ,1.22158 ,0.44588 ,4.37502 
326 ,63.0036 ,1.22381 ,0.44588 ,4.37502 
327 ,63.1957 ,1.22567 ,0.41851 ,4.10640 
328 ,63.3876 ,1.22761 ,0.40482 ,3.97208 
329 ,63.5958 ,1.22971 ,0.39113 ,3.83777 
330 ,63.7878 ,1.23159 ,0.39113 ,3.83777 
331 ,63.9800 ,1.23354 ,0.37060 ,3.63630 
332 ,64.1721 ,1.23545 ,0.35691 ,3.50199 
333 ,64.3477 ,1.23730 ,0.34322 ,3.36767 
334 ,64.5401 ,1.23905 ,0.33638 ,3.30052 
335 ,64.7323 ,1.24102 ,0.31926 ,3.13263 
336 ,64.9243 ,1.24297 ,0.31926 ,3.13263 
337 ,65.1645 ,1.24532 ,0.31242 ,3.06547 
338 ,65.3405 ,1.24714 ,0.28162 ,2.76326 
339 ,65.5167 ,1.24891 ,0.28847 ,2.83042 
340 ,65.7407 ,1.25106 ,0.26793 ,2.62895 
341 ,65.9325 ,1.25303 ,0.23713 ,2.32675 
342 ,66.1087 ,1.25484 ,0.24055 ,2.36032 
343 ,66.3010 ,1.25668 ,0.23029 ,2.25959 
344 ,66.4927 ,1.25860 ,0.22002 ,2.15885 
345 ,66.6852 ,1.26057 ,0.22344 ,2.19243 
346 ,66.9093 ,1.26274 ,0.18922 ,1.85665 
347 ,67.1171 ,1.26487 ,0.18922 ,1.85665 
348 ,67.3250 ,1.26707 ,0.17211 ,1.68876 
349 ,67.5172 ,1.26893 ,0.16527 ,1.62160 
350 ,67.7094 ,1.27074 ,0.15842 ,1.55445 
351 ,67.9172 ,1.27291 ,0.12420 ,1.21866 
352 ,68.0936 ,1.27472 ,0.12078 ,1.18508 
353 ,68.2859 ,1.27656 ,0.13789 ,1.35298 
354 ,68.4778 ,1.27848 ,0.10367 ,1.01719 
355 ,68.6699 ,1.28042 ,0.08998 ,0.88288 
356 ,68.8781 ,1.28250 ,0.07287 ,0.71499 
357 ,69.0700 ,1.28438 ,0.06602 ,0.64783 
358 ,69.2460 ,1.28619 ,0.07287 ,0.71499 
359 ,69.4382 ,1.28803 ,0.05918 ,0.58067 
360 ,69.6302 ,1.28995 ,0.05576 ,0.54710 
361 ,69.8066 ,1.29183 ,0.03865 ,0.37920 
362 ,70.0143 ,1.29384 ,0.00443 ,0.04342 
363 ,70.2385 ,1.29607 ,0.00785 ,0.07700 
364 ,70.4143 ,1.29790 ,-0.00584 ,-0.05731 
365 ,70.6227 ,1.29978 ,-0.00584 ,-0.05731 
366 ,70.8144 ,1.30179 ,-0.01611 ,-0.15805 
367 ,70.9909 ,1.30364 ,-0.03322 ,-0.32594 
368 ,71.1989 ,1.30568 ,-0.04348 ,-0.42667 
369 ,71.3910 ,1.30756 ,-0.04691 ,-0.46025 
370 ,71.5991 ,1.30969 ,-0.06402 ,-0.62814 
371 ,71.7749 ,1.31151 ,-0.08113 ,-0.79604 
372 ,71.9673 ,1.31333 ,-0.06744 ,-0.66172 
373 ,72.1591 ,1.31521 ,-0.07771 ,-0.76246 
374 ,72.3353 ,1.31706 ,-0.09482 ,-0.93035 
375 ,72.5274 ,1.31897 ,-0.10166 ,-0.99751 
376 ,72.7194 ,1.32085 ,-0.13931 ,-1.36687 
377 ,72.8953 ,1.32272 ,-0.12904 ,-1.26613 
378 ,73.0718 ,1.32444 ,-0.13588 ,-1.33329 
379 ,73.2476 ,1.32620 ,-0.13246 ,-1.29971 
380 ,73.4399 ,1.32815 ,-0.13931 ,-1.36687 
381 ,73.6481 ,1.33019 ,-0.13931 ,-1.36687 
382 ,73.8401 ,1.33206 ,-0.17695 ,-1.73623 
383 ,74.0161 ,1.33396 ,-0.18037 ,-1.76981 
384 ,74.2081 ,1.33581 ,-0.17695 ,-1.73623 
385 ,74.4003 ,1.33766 ,-0.20090 ,-1.97128 
386 ,74.6083 ,1.33974 ,-0.20090 ,-1.97128 
387 ,74.8003 ,1.34167 ,-0.22828 ,-2.23990 
388 ,75.0084 ,1.34374 ,-0.21802 ,-2.13917 
389 ,75.1845 ,1.34556 ,-0.23513 ,-2.30706 
390 ,75.3608 ,1.34731 ,-0.23855 ,-2.34064 
391 ,75.5686 ,1.34933 ,-0.25566 ,-2.50853 
392 ,75.7608 ,1.35124 ,-0.27277 ,-2.67642 
393 ,75.9531 ,1.35320 ,-0.28304 ,-2.77716 
394 ,76.1289 ,1.35508 ,-0.27277 ,-2.67642 
395 ,76.3050 ,1.35688 ,-0.28988 ,-2.84431 
396 ,76.4810 ,1.35850 ,-0.30015 ,-2.94505 
397 ,76.6732 ,1.36037 ,-0.30699 ,-3.01220 
398 ,76.8813 ,1.36247 ,-0.32752 ,-3.21367 
399 ,77.0732 ,1.36440 ,-0.33437 ,-3.28083 
400 ,77.2656 ,1.36637 ,-0.33095 ,-3.24725 
401 ,77.4736 ,1.36828 ,-0.36175 ,-3.54946 
402 ,77.6816 ,1.37050 ,-0.36175 ,-3.54946 
403 ,77.8738 ,1.37233 ,-0.37201 ,-3.65019 
404 ,78.1132 ,1.37481 ,-0.36859 ,-3.61661 
405 ,78.3053 ,1.37672 ,-0.38228 ,-3.75093 
406 ,78.4814 ,1.37854 ,-0.37544 ,-3.68377 
407 ,78.6740 ,1.38041 ,-0.42677 ,-4.18744 
408 ,78.8819 ,1.38245 ,-0.41308 ,-4.05313 
409 ,79.0901 ,1.38458 ,-0.40966 ,-4.01955 
410 ,79.2982 ,1.38670 ,-0.42677 ,-4.18744 
411 ,79.4743 ,1.38845 ,-0.45414 ,-4.45607 
412 ,79.6504 ,1.39023 ,-0.46783 ,-4.59038 
413 ,79.8581 ,1.39220 ,-0.47126 ,-4.62396 
414 ,80.0342 ,1.39409 ,-0.46441 ,-4.55681 
415 ,80.2266 ,1.39589 ,-0.46441 ,-4.55681 
416 ,80.4345 ,1.39804 ,-0.50890 ,-4.99332 
417 ,80.6429 ,1.40011 ,-0.49863 ,-4.89259 
418 ,80.8509 ,1.40211 ,-0.49179 ,-4.82543 
419 ,81.0430 ,1.40408 ,-0.51574 ,-5.06048 
420 ,81.2671 ,1.40631 ,-0.51232 ,-5.02690 
421 ,81.4587 ,1.40835 ,-0.52943 ,-5.19479 
422 ,81.6509 ,1.41021 ,-0.55681 ,-5.46342 
423 ,81.8748 ,1.41237 ,-0.56365 ,-5.53058 
424 ,82.0670 ,1.41441 ,-0.56708 ,-5.56415 
425 ,82.2752 ,1.41638 ,-0.58077 ,-5.69847 
426 ,82.4673 ,1.41833 ,-0.57392 ,-5.63131 
427 ,82.6594 ,1.42029 ,-0.59788 ,-5.86636 
428 ,82.8517 ,1.42222 ,-0.61156 ,-6.00067 
429 ,83.0596 ,1.42421 ,-0.61156 ,-6.00067 
430 ,83.2517 ,1.42617 ,-0.60814 ,-5.96709 
431 ,83.4439 ,1.42807 ,-0.61841 ,-6.06783 
432 ,83.6358 ,1.43007 ,-0.63210 ,-6.20214 
433 ,83.8439 ,1.43212 ,-0.62525 ,-6.13499 
434 ,84.0360 ,1.43394 ,-0.65947 ,-6.47077 
435 ,84.2442 ,1.43616 ,-0.63894 ,-6.26930 
436 ,84.4363 ,1.43801 ,-0.66974 ,-6.57150 
437 ,84.6604 ,1.44021 ,-0.67659 ,-6.63866 
438 ,84.8843 ,1.44241 ,-0.68685 ,-6.73940 
439 ,85.0763 ,1.44445 ,-0.71423 ,-7.00802 
440 ,85.2845 ,1.44651 ,-0.69027 ,-6.77297 
441 ,85.4767 ,1.44842 ,-0.72107 ,-7.07518 
442 ,85.6846 ,1.45059 ,-0.73134 ,-7.17591 
443 ,85.8767 ,1.45244 ,-0.73476 ,-7.20949 
444 ,86.0688 ,1.45433 ,-0.72792 ,-7.14233 
445 ,86.2610 ,1.45623 ,-0.75530 ,-7.41096 
446 ,86.4690 ,1.45836 ,-0.75530 ,-7.41096 
447 ,86.6767 ,1.46051 ,-0.76214 ,-7.47812 
448 ,86.8690 ,1.46235 ,-0.75530 ,-7.41096 
449 ,87.1092 ,1.46468 ,-0.77241 ,-7.57885 
450 ,87.3013 ,1.46671 ,-0.79636 ,-7.81390 
451 ,87.5093 ,1.46882 ,-0.81005 ,-7.94821 
452 ,87.7011 ,1.47063 ,-0.80321 ,-7.88106 
453 ,87.9095 ,1.47269 ,-0.81005 ,-7.94821 
454 ,88.1336 ,1.47484 ,-0.82374 ,-8.08253 
455 ,88.3417 ,1.47697 ,-0.84769 ,-8.31758 
456 ,88.5497 ,1.47914 ,-0.84085 ,-8.25042 
457 ,88.7895 ,1.48142 ,-0.85454 ,-8.38473 
458 ,88.9818 ,1.48350 ,-0.85112 ,-8.35115 
459 ,89.1741 ,1.48538 ,-0.88192 ,-8.65336 
460 ,89.3822 ,1.48744 ,-0.88876 ,-8.72051 
461 ,89.5743 ,1.48942 ,-0.89218 ,-8.75409 
462 ,89.7663 ,1.49134 ,-0.89560 ,-8.78767 
463 ,89.9581 ,1.49321 ,-0.90245 ,-8.85483 
