Data stamp = , 11-04-2022 21:36:30 850

Calibration Values: 
Slope = , 26.54 , g/V 
Offset Voltage at no contact = , -0.501760 , V 

No , Time , Stage Position ,   Mass , Force 
   ,  (s) ,      (mm)      ,   (g)  , (mN)  

1 ,0.0000 ,0.59935 ,5.10003 ,50.04151 
2 ,0.2413 ,0.59945 ,5.09661 ,50.00793 
3 ,0.5936 ,0.60041 ,5.10003 ,50.04151 
4 ,0.8016 ,0.60219 ,5.07950 ,49.84004 
5 ,1.0097 ,0.60410 ,5.10003 ,50.04151 
6 ,1.1859 ,0.60579 ,5.09661 ,50.00793 
7 ,1.3780 ,0.60760 ,5.12056 ,50.24298 
8 ,1.5539 ,0.60942 ,5.12056 ,50.24298 
9 ,1.7301 ,0.61126 ,5.09319 ,49.97436 
10 ,1.9061 ,0.61308 ,5.08634 ,49.90720 
11 ,2.0981 ,0.61487 ,5.06923 ,49.73931 
12 ,2.2744 ,0.61674 ,5.04870 ,49.53784 
13 ,2.4504 ,0.61854 ,5.03501 ,49.40352 
14 ,2.6425 ,0.62034 ,5.02132 ,49.26921 
15 ,2.8347 ,0.62230 ,5.01106 ,49.16848 
16 ,3.0584 ,0.62427 ,4.97683 ,48.83269 
17 ,3.2509 ,0.62637 ,4.95630 ,48.63122 
18 ,3.4589 ,0.62856 ,4.95288 ,48.59764 
19 ,3.6667 ,0.63055 ,4.91523 ,48.22828 
20 ,3.8587 ,0.63246 ,4.91523 ,48.22828 
21 ,4.0512 ,0.63443 ,4.89470 ,48.02681 
22 ,4.2589 ,0.63659 ,4.87759 ,47.85892 
23 ,4.4513 ,0.63842 ,4.85364 ,47.62387 
24 ,4.6433 ,0.64033 ,4.85364 ,47.62387 
25 ,4.8355 ,0.64226 ,4.83652 ,47.45598 
26 ,5.0595 ,0.64446 ,4.81599 ,47.25451 
27 ,5.2512 ,0.64641 ,4.77835 ,46.88515 
28 ,5.4276 ,0.64819 ,4.78861 ,46.98589 
29 ,5.6036 ,0.65004 ,4.77150 ,46.81800 
30 ,5.7797 ,0.65178 ,4.75439 ,46.65010 
31 ,6.0038 ,0.65386 ,4.72359 ,46.34790 
32 ,6.1798 ,0.65574 ,4.70648 ,46.18001 
33 ,6.3560 ,0.65755 ,4.68253 ,45.94496 
34 ,6.5320 ,0.65925 ,4.67568 ,45.87780 
35 ,6.7241 ,0.66105 ,4.64488 ,45.57560 
36 ,6.9002 ,0.66291 ,4.64146 ,45.54202 
37 ,7.0764 ,0.66472 ,4.65515 ,45.67633 
38 ,7.2525 ,0.66645 ,4.61751 ,45.30697 
39 ,7.4445 ,0.66830 ,4.58671 ,45.00477 
40 ,7.6365 ,0.67029 ,4.59355 ,45.07192 
41 ,7.8125 ,0.67204 ,4.57986 ,44.93761 
42 ,8.0043 ,0.67392 ,4.54906 ,44.63541 
43 ,8.1808 ,0.67571 ,4.52853 ,44.43394 
44 ,8.3569 ,0.67753 ,4.52853 ,44.43394 
45 ,8.5649 ,0.67951 ,4.48746 ,44.03100 
46 ,8.7731 ,0.68163 ,4.47378 ,43.89668 
47 ,8.9971 ,0.68387 ,4.47720 ,43.93026 
48 ,9.1732 ,0.68563 ,4.45324 ,43.69521 
49 ,9.3973 ,0.68779 ,4.44640 ,43.62806 
50 ,9.5731 ,0.68963 ,4.41902 ,43.35943 
51 ,9.7655 ,0.69149 ,4.40875 ,43.25870 
52 ,9.9737 ,0.69367 ,4.38138 ,42.99007 
53 ,10.1814 ,0.69557 ,4.37111 ,42.88933 
54 ,10.4057 ,0.69785 ,4.35742 ,42.75502 
55 ,10.6138 ,0.70003 ,4.33347 ,42.51997 
56 ,10.7898 ,0.70178 ,4.32320 ,42.41924 
57 ,10.9660 ,0.70356 ,4.28556 ,42.04988 
58 ,11.1898 ,0.70563 ,4.29240 ,42.11703 
59 ,11.3662 ,0.70760 ,4.25133 ,41.71409 
60 ,11.5739 ,0.70958 ,4.24791 ,41.68051 
61 ,11.7663 ,0.71154 ,4.21369 ,41.34473 
62 ,11.9422 ,0.71331 ,4.20685 ,41.27758 
63 ,12.1507 ,0.71535 ,4.19316 ,41.14326 
64 ,12.3585 ,0.71745 ,4.18631 ,41.07611 
65 ,12.5664 ,0.71955 ,4.14525 ,40.67317 
66 ,12.7583 ,0.72143 ,4.15209 ,40.74032 
67 ,12.9508 ,0.72336 ,4.14183 ,40.63959 
68 ,13.1428 ,0.72532 ,4.12471 ,40.47170 
69 ,13.3508 ,0.72723 ,4.11103 ,40.33738 
70 ,13.5266 ,0.72920 ,4.09391 ,40.16949 
71 ,13.7029 ,0.73092 ,4.05627 ,39.80013 
72 ,13.8947 ,0.73284 ,4.05285 ,39.76655 
73 ,14.0872 ,0.73474 ,4.03232 ,39.56508 
74 ,14.2952 ,0.73690 ,4.02205 ,39.46435 
75 ,14.4875 ,0.73875 ,3.99467 ,39.19572 
76 ,14.6956 ,0.74082 ,3.99125 ,39.16214 
77 ,14.8875 ,0.74271 ,3.96045 ,38.85994 
78 ,15.0636 ,0.74451 ,3.95361 ,38.79278 
79 ,15.2876 ,0.74662 ,3.95018 ,38.75920 
80 ,15.4636 ,0.74854 ,3.91596 ,38.42342 
81 ,15.6398 ,0.75029 ,3.90570 ,38.32268 
82 ,15.8159 ,0.75210 ,3.91254 ,38.38984 
83 ,16.0240 ,0.75404 ,3.87147 ,37.98690 
84 ,16.2483 ,0.75628 ,3.84752 ,37.75185 
85 ,16.4404 ,0.75825 ,3.83725 ,37.65112 
86 ,16.6482 ,0.76035 ,3.83041 ,37.58396 
87 ,16.8244 ,0.76213 ,3.80987 ,37.38249 
88 ,17.0484 ,0.76440 ,3.79619 ,37.24818 
89 ,17.2566 ,0.76643 ,3.76539 ,36.94597 
90 ,17.4487 ,0.76828 ,3.76539 ,36.94597 
91 ,17.6567 ,0.77043 ,3.75854 ,36.87882 
92 ,17.8651 ,0.77245 ,3.71063 ,36.40872 
93 ,18.0565 ,0.77441 ,3.72090 ,36.50946 
94 ,18.2491 ,0.77632 ,3.68325 ,36.14010 
95 ,18.4571 ,0.77844 ,3.67983 ,36.10652 
96 ,18.6494 ,0.78033 ,3.65930 ,35.90505 
97 ,18.8412 ,0.78231 ,3.62166 ,35.53569 
98 ,19.0174 ,0.78403 ,3.62166 ,35.53569 
99 ,19.2251 ,0.78603 ,3.61481 ,35.46853 
100 ,19.4334 ,0.78819 ,3.60454 ,35.36779 
101 ,19.6252 ,0.79002 ,3.58059 ,35.13275 
102 ,19.8175 ,0.79198 ,3.58743 ,35.19990 
103 ,19.9935 ,0.79380 ,3.56006 ,34.93128 
104 ,20.1693 ,0.79567 ,3.53268 ,34.66265 
105 ,20.3616 ,0.79740 ,3.51215 ,34.46118 
106 ,20.5700 ,0.79953 ,3.51215 ,34.46118 
107 ,20.7620 ,0.80145 ,3.48819 ,34.22613 
108 ,20.9381 ,0.80324 ,3.47450 ,34.09182 
109 ,21.1301 ,0.80523 ,3.45397 ,33.89035 
110 ,21.3062 ,0.80693 ,3.45397 ,33.89035 
111 ,21.5144 ,0.80899 ,3.44028 ,33.75604 
112 ,21.6904 ,0.81082 ,3.41633 ,33.52099 
113 ,21.8667 ,0.81253 ,3.39237 ,33.28594 
114 ,22.0586 ,0.81435 ,3.40606 ,33.42025 
115 ,22.2823 ,0.81654 ,3.36157 ,32.98374 
116 ,22.5068 ,0.81869 ,3.36157 ,32.98374 
117 ,22.6827 ,0.82075 ,3.35130 ,32.88300 
118 ,22.8910 ,0.82272 ,3.32735 ,32.64795 
119 ,23.0830 ,0.82466 ,3.29655 ,32.34575 
120 ,23.2910 ,0.82677 ,3.29997 ,32.37933 
121 ,23.4672 ,0.82858 ,3.27602 ,32.14428 
122 ,23.6909 ,0.83072 ,3.27259 ,32.11070 
123 ,23.8829 ,0.83263 ,3.23837 ,31.77492 
124 ,24.0593 ,0.83442 ,3.22811 ,31.67418 
125 ,24.2514 ,0.83635 ,3.21100 ,31.50629 
126 ,24.4596 ,0.83855 ,3.21100 ,31.50629 
127 ,24.6515 ,0.84028 ,3.18704 ,31.27124 
128 ,24.8436 ,0.84232 ,3.15966 ,31.00262 
129 ,25.0517 ,0.84432 ,3.15282 ,30.93546 
130 ,25.2437 ,0.84623 ,3.12202 ,30.63325 
131 ,25.4359 ,0.84812 ,3.13229 ,30.73399 
132 ,25.6439 ,0.85022 ,3.09464 ,30.36463 
133 ,25.8678 ,0.85247 ,3.07753 ,30.19674 
134 ,26.0441 ,0.85427 ,3.07753 ,30.19674 
135 ,26.2362 ,0.85617 ,3.06384 ,30.06242 
136 ,26.4283 ,0.85811 ,3.05015 ,29.92811 
137 ,26.6041 ,0.85994 ,3.03304 ,29.76022 
138 ,26.7805 ,0.86166 ,3.00909 ,29.52517 
139 ,26.9725 ,0.86356 ,3.01935 ,29.62590 
140 ,27.1485 ,0.86532 ,2.98855 ,29.32370 
141 ,27.3247 ,0.86713 ,2.96118 ,29.05507 
142 ,27.5327 ,0.86910 ,2.97829 ,29.22297 
143 ,27.7088 ,0.87102 ,2.93722 ,28.82003 
144 ,27.9010 ,0.87287 ,2.92011 ,28.65213 
145 ,28.0928 ,0.87474 ,2.93722 ,28.82003 
146 ,28.2852 ,0.87665 ,2.89273 ,28.38351 
147 ,28.4931 ,0.87872 ,2.90300 ,28.48424 
148 ,28.6690 ,0.88051 ,2.88247 ,28.28277 
149 ,28.8615 ,0.88240 ,2.85851 ,28.04772 
150 ,29.0369 ,0.88431 ,2.84482 ,27.91341 
151 ,29.1970 ,0.88595 ,2.84482 ,27.91341 
152 ,29.3892 ,0.88768 ,2.82087 ,27.67836 
153 ,29.5815 ,0.88958 ,2.78665 ,27.34258 
154 ,29.7898 ,0.89172 ,2.80034 ,27.47689 
155 ,29.9978 ,0.89382 ,2.77638 ,27.24185 
156 ,30.2056 ,0.89577 ,2.75585 ,27.04038 
157 ,30.3820 ,0.89766 ,2.74216 ,26.90606 
158 ,30.5900 ,0.89971 ,2.74558 ,26.93964 
159 ,30.7977 ,0.90166 ,2.70794 ,26.57028 
160 ,30.9902 ,0.90364 ,2.69767 ,26.46954 
161 ,31.1821 ,0.90564 ,2.68056 ,26.30165 
162 ,31.3744 ,0.90749 ,2.68056 ,26.30165 
163 ,31.5663 ,0.90949 ,2.64292 ,25.93229 
164 ,31.7585 ,0.91137 ,2.63265 ,25.83156 
165 ,31.9662 ,0.91348 ,2.63607 ,25.86514 
166 ,32.1582 ,0.91533 ,2.61554 ,25.66367 
167 ,32.3504 ,0.91727 ,2.60185 ,25.52935 
168 ,32.5430 ,0.91925 ,2.58474 ,25.36146 
169 ,32.7349 ,0.92119 ,2.57105 ,25.22715 
170 ,32.9265 ,0.92304 ,2.53683 ,24.89136 
171 ,33.1191 ,0.92494 ,2.53341 ,24.85779 
172 ,33.3428 ,0.92722 ,2.50945 ,24.62274 
173 ,33.5353 ,0.92909 ,2.50945 ,24.62274 
174 ,33.7433 ,0.93120 ,2.48892 ,24.42127 
175 ,33.9354 ,0.93314 ,2.48550 ,24.38769 
176 ,34.1433 ,0.93514 ,2.46496 ,24.18622 
177 ,34.3514 ,0.93728 ,2.44785 ,24.01833 
178 ,34.5276 ,0.93912 ,2.44101 ,23.95117 
179 ,34.7036 ,0.94082 ,2.41021 ,23.64897 
180 ,34.8957 ,0.94272 ,2.38968 ,23.44750 
181 ,35.0714 ,0.94451 ,2.40679 ,23.61539 
182 ,35.2639 ,0.94642 ,2.35545 ,23.11171 
183 ,35.4879 ,0.94866 ,2.36572 ,23.21245 
184 ,35.6800 ,0.95056 ,2.33834 ,22.94382 
185 ,35.8562 ,0.95241 ,2.32123 ,22.77593 
186 ,36.0484 ,0.95423 ,2.32808 ,22.84309 
187 ,36.2403 ,0.95619 ,2.29043 ,22.47373 
188 ,36.4484 ,0.95826 ,2.29385 ,22.50731 
189 ,36.6244 ,0.96002 ,2.28017 ,22.37299 
190 ,36.8006 ,0.96183 ,2.25621 ,22.13794 
191 ,36.9927 ,0.96368 ,2.26306 ,22.20510 
192 ,37.1844 ,0.96560 ,2.23226 ,21.90290 
193 ,37.3928 ,0.96763 ,2.22199 ,21.80216 
194 ,37.5848 ,0.96961 ,2.19119 ,21.49996 
195 ,37.7769 ,0.97150 ,2.18435 ,21.43280 
196 ,37.9690 ,0.97344 ,2.17408 ,21.33206 
197 ,38.1450 ,0.97528 ,2.15012 ,21.09702 
198 ,38.3372 ,0.97712 ,2.15012 ,21.09702 
199 ,38.5454 ,0.97917 ,2.12959 ,20.89555 
200 ,38.7374 ,0.98117 ,2.11590 ,20.76123 
201 ,38.9453 ,0.98324 ,2.11590 ,20.76123 
202 ,39.1214 ,0.98500 ,2.08510 ,20.45903 
203 ,39.3132 ,0.98698 ,2.08510 ,20.45903 
204 ,39.5057 ,0.98881 ,2.05773 ,20.19040 
205 ,39.7140 ,0.99090 ,2.04404 ,20.05609 
206 ,39.9059 ,0.99280 ,2.02008 ,19.82104 
207 ,40.0979 ,0.99474 ,2.03035 ,19.92178 
208 ,40.2740 ,0.99650 ,2.00982 ,19.72031 
209 ,40.4820 ,0.99859 ,1.98244 ,19.45168 
210 ,40.6582 ,1.00039 ,1.95848 ,19.21663 
211 ,40.8504 ,1.00222 ,1.97902 ,19.41810 
212 ,41.0583 ,1.00437 ,1.94479 ,19.08232 
213 ,41.2503 ,1.00624 ,1.95164 ,19.14948 
214 ,41.4421 ,1.00816 ,1.91742 ,18.81369 
215 ,41.6343 ,1.01013 ,1.90031 ,18.64580 
216 ,41.8266 ,1.01200 ,1.91057 ,18.74654 
217 ,42.0024 ,1.01389 ,1.86608 ,18.31002 
218 ,42.2104 ,1.01581 ,1.89004 ,18.54507 
219 ,42.3868 ,1.01765 ,1.85582 ,18.20928 
220 ,42.5787 ,1.01950 ,1.83186 ,17.97423 
221 ,42.7710 ,1.02143 ,1.82160 ,17.87350 
222 ,42.9789 ,1.02358 ,1.79764 ,17.63845 
223 ,43.1712 ,1.02545 ,1.79764 ,17.63845 
224 ,43.3632 ,1.02737 ,1.78737 ,17.53772 
225 ,43.5712 ,1.02946 ,1.77711 ,17.43698 
226 ,43.7634 ,1.03137 ,1.75657 ,17.23551 
227 ,43.9874 ,1.03355 ,1.73946 ,17.06762 
228 ,44.1796 ,1.03552 ,1.72235 ,16.89973 
229 ,44.3875 ,1.03763 ,1.71209 ,16.79899 
230 ,44.5957 ,1.03973 ,1.69155 ,16.59752 
231 ,44.7717 ,1.04148 ,1.66418 ,16.32890 
232 ,44.9639 ,1.04330 ,1.66760 ,16.36248 
233 ,45.1556 ,1.04526 ,1.65049 ,16.19458 
234 ,45.3638 ,1.04727 ,1.64707 ,16.16101 
235 ,45.5401 ,1.04921 ,1.63338 ,16.02669 
236 ,45.7159 ,1.05094 ,1.59916 ,15.69091 
237 ,45.9084 ,1.05285 ,1.59231 ,15.62375 
238 ,46.1005 ,1.05469 ,1.58547 ,15.55660 
239 ,46.2921 ,1.05666 ,1.57862 ,15.48944 
240 ,46.4845 ,1.05859 ,1.55809 ,15.28797 
241 ,46.6606 ,1.06039 ,1.55467 ,15.25439 
242 ,46.8525 ,1.06225 ,1.53413 ,15.05292 
243 ,47.0288 ,1.06403 ,1.53071 ,15.01934 
244 ,47.2209 ,1.06594 ,1.49991 ,14.71714 
245 ,47.4290 ,1.06804 ,1.49991 ,14.71714 
246 ,47.6368 ,1.07011 ,1.47938 ,14.51567 
247 ,47.8130 ,1.07190 ,1.44516 ,14.17989 
248 ,48.0051 ,1.07377 ,1.46911 ,14.41493 
249 ,48.1968 ,1.07582 ,1.43489 ,14.07915 
250 ,48.3732 ,1.07750 ,1.41778 ,13.91126 
251 ,48.5812 ,1.07958 ,1.41436 ,13.87768 
252 ,48.7575 ,1.08138 ,1.39725 ,13.70979 
253 ,48.9651 ,1.08340 ,1.38698 ,13.60906 
254 ,49.1417 ,1.08521 ,1.38014 ,13.54190 
255 ,49.3653 ,1.08738 ,1.36987 ,13.44116 
256 ,49.5414 ,1.08919 ,1.35276 ,13.27327 
257 ,49.7178 ,1.09092 ,1.33907 ,13.13896 
258 ,49.9259 ,1.09298 ,1.33565 ,13.10538 
259 ,50.1180 ,1.09492 ,1.29800 ,12.73602 
260 ,50.3580 ,1.09718 ,1.29458 ,12.70244 
261 ,50.5660 ,1.09942 ,1.29458 ,12.70244 
262 ,50.7582 ,1.10130 ,1.26720 ,12.43381 
263 ,50.9343 ,1.10311 ,1.25352 ,12.29950 
264 ,51.1102 ,1.10493 ,1.23983 ,12.16519 
265 ,51.2865 ,1.10663 ,1.22614 ,12.03088 
266 ,51.4945 ,1.10872 ,1.19876 ,11.76225 
267 ,51.6706 ,1.11044 ,1.19876 ,11.76225 
268 ,51.8468 ,1.11222 ,1.19534 ,11.72867 
269 ,52.0227 ,1.11395 ,1.18850 ,11.66151 
270 ,52.2149 ,1.11583 ,1.14743 ,11.25857 
271 ,52.4068 ,1.11771 ,1.15770 ,11.35931 
272 ,52.5988 ,1.11968 ,1.10979 ,10.88921 
273 ,52.8069 ,1.12178 ,1.13716 ,11.15784 
274 ,52.9832 ,1.12356 ,1.10979 ,10.88921 
275 ,53.1751 ,1.12550 ,1.09610 ,10.75490 
276 ,53.3674 ,1.12740 ,1.09610 ,10.75490 
277 ,53.5595 ,1.12930 ,1.06530 ,10.45270 
278 ,53.7520 ,1.13117 ,1.05845 ,10.38554 
279 ,53.9435 ,1.13310 ,1.05161 ,10.31838 
280 ,54.1357 ,1.13504 ,1.01054 ,9.91544 
281 ,54.3597 ,1.13729 ,1.01739 ,9.98260 
282 ,54.5678 ,1.13942 ,1.00370 ,9.84829 
283 ,54.7599 ,1.14127 ,0.97974 ,9.61324 
284 ,54.9679 ,1.14344 ,0.97290 ,9.54608 
285 ,55.1440 ,1.14517 ,0.95921 ,9.41177 
286 ,55.3358 ,1.14707 ,0.93525 ,9.17672 
287 ,55.5119 ,1.14887 ,0.92499 ,9.07598 
288 ,55.6879 ,1.15064 ,0.91130 ,8.94167 
289 ,55.8804 ,1.15249 ,0.91130 ,8.94167 
290 ,56.0723 ,1.15441 ,0.90446 ,8.87451 
291 ,56.2644 ,1.15629 ,0.89077 ,8.74020 
292 ,56.4566 ,1.15828 ,0.86681 ,8.50515 
293 ,56.6964 ,1.16055 ,0.87366 ,8.57231 
294 ,56.8889 ,1.16260 ,0.84286 ,8.27011 
295 ,57.0808 ,1.16453 ,0.85312 ,8.37084 
296 ,57.2729 ,1.16635 ,0.81206 ,7.96790 
297 ,57.4485 ,1.16827 ,0.80863 ,7.93432 
298 ,57.6252 ,1.16997 ,0.80863 ,7.93432 
299 ,57.8172 ,1.17182 ,0.77099 ,7.56496 
300 ,58.0093 ,1.17373 ,0.76415 ,7.49780 
301 ,58.2174 ,1.17575 ,0.74704 ,7.32991 
302 ,58.3933 ,1.17771 ,0.75388 ,7.39707 
303 ,58.6176 ,1.17973 ,0.74704 ,7.32991 
304 ,58.8257 ,1.18193 ,0.71624 ,7.02771 
305 ,59.0177 ,1.18383 ,0.68544 ,6.72550 
306 ,59.2097 ,1.18577 ,0.69228 ,6.79266 
307 ,59.4337 ,1.18798 ,0.68201 ,6.69193 
308 ,59.6099 ,1.18986 ,0.66490 ,6.52403 
309 ,59.8019 ,1.19165 ,0.66833 ,6.55761 
310 ,60.0099 ,1.19377 ,0.62726 ,6.15467 
311 ,60.2179 ,1.19588 ,0.62384 ,6.12109 
312 ,60.3940 ,1.19770 ,0.61699 ,6.05394 
313 ,60.6020 ,1.19973 ,0.60673 ,5.95320 
314 ,60.7942 ,1.20162 ,0.58619 ,5.75173 
315 ,60.9863 ,1.20356 ,0.56908 ,5.58384 
316 ,61.1626 ,1.20540 ,0.56224 ,5.51668 
317 ,61.3704 ,1.20744 ,0.53486 ,5.24806 
318 ,61.5467 ,1.20919 ,0.53144 ,5.21448 
319 ,61.7223 ,1.21095 ,0.53486 ,5.24806 
320 ,61.8988 ,1.21272 ,0.52117 ,5.11375 
321 ,62.1069 ,1.21461 ,0.49722 ,4.87870 
322 ,62.3308 ,1.21697 ,0.48011 ,4.71081 
323 ,62.5387 ,1.21913 ,0.47668 ,4.67723 
324 ,62.7152 ,1.22091 ,0.45615 ,4.47576 
325 ,62.9073 ,1.22273 ,0.43562 ,4.27429 
326 ,63.1473 ,1.22505 ,0.44246 ,4.34144 
327 ,63.3234 ,1.22696 ,0.44246 ,4.34144 
328 ,63.5477 ,1.22914 ,0.40482 ,3.97208 
329 ,63.7557 ,1.23112 ,0.41851 ,4.10640 
330 ,63.9476 ,1.23314 ,0.39113 ,3.83777 
331 ,64.1239 ,1.23493 ,0.38086 ,3.73703 
332 ,64.3317 ,1.23697 ,0.36718 ,3.60272 
333 ,64.5239 ,1.23888 ,0.37060 ,3.63630 
334 ,64.7318 ,1.24101 ,0.32269 ,3.16620 
335 ,64.9237 ,1.24284 ,0.31926 ,3.13263 
336 ,65.1162 ,1.24483 ,0.31242 ,3.06547 
337 ,65.3081 ,1.24671 ,0.30558 ,2.99831 
338 ,65.5004 ,1.24866 ,0.29873 ,2.93116 
339 ,65.6920 ,1.25061 ,0.27820 ,2.72969 
340 ,65.8684 ,1.25239 ,0.26109 ,2.56179 
341 ,66.0285 ,1.25411 ,0.26109 ,2.56179 
342 ,66.2042 ,1.25577 ,0.24398 ,2.39390 
343 ,66.4126 ,1.25765 ,0.22344 ,2.19243 
344 ,66.6048 ,1.25969 ,0.24055 ,2.36032 
345 ,66.7966 ,1.26165 ,0.22687 ,2.22601 
346 ,66.9889 ,1.26354 ,0.18922 ,1.85665 
347 ,67.1489 ,1.26530 ,0.17896 ,1.75592 
348 ,67.3412 ,1.26710 ,0.18580 ,1.82307 
349 ,67.5329 ,1.26896 ,0.17896 ,1.75592 
350 ,67.7409 ,1.27105 ,0.15842 ,1.55445 
351 ,67.9172 ,1.27288 ,0.15842 ,1.55445 
352 ,68.0932 ,1.27462 ,0.13447 ,1.31940 
353 ,68.2854 ,1.27657 ,0.12420 ,1.21866 
354 ,68.4776 ,1.27842 ,0.11393 ,1.11793 
355 ,68.6856 ,1.28048 ,0.11051 ,1.08435 
356 ,68.8617 ,1.28236 ,0.10709 ,1.05077 
357 ,69.0537 ,1.28415 ,0.07971 ,0.78214 
358 ,69.2618 ,1.28622 ,0.06602 ,0.64783 
359 ,69.4538 ,1.28816 ,0.06602 ,0.64783 
360 ,69.6301 ,1.28995 ,0.04207 ,0.41278 
361 ,69.8381 ,1.29207 ,0.06945 ,0.68141 
362 ,70.0302 ,1.29392 ,0.02838 ,0.27847 
363 ,70.2221 ,1.29583 ,0.03180 ,0.31205 
364 ,70.4144 ,1.29776 ,0.00785 ,0.07700 
365 ,70.6223 ,1.29988 ,0.00443 ,0.04342 
366 ,70.7985 ,1.30174 ,-0.00584 ,-0.05731 
367 ,71.0065 ,1.30377 ,-0.03322 ,-0.32594 
368 ,71.1826 ,1.30550 ,-0.02637 ,-0.25878 
369 ,71.3746 ,1.30750 ,-0.04691 ,-0.46025 
370 ,71.5507 ,1.30918 ,-0.05375 ,-0.52741 
371 ,71.7269 ,1.31098 ,-0.06402 ,-0.62814 
372 ,71.9350 ,1.31300 ,-0.07086 ,-0.69530 
373 ,72.1270 ,1.31490 ,-0.06744 ,-0.66172 
374 ,72.3027 ,1.31667 ,-0.08113 ,-0.79604 
375 ,72.4948 ,1.31861 ,-0.09140 ,-0.89677 
376 ,72.6867 ,1.32047 ,-0.11877 ,-1.16540 
377 ,72.8789 ,1.32238 ,-0.10851 ,-1.06466 
378 ,73.0710 ,1.32432 ,-0.12904 ,-1.26613 
379 ,73.2633 ,1.32630 ,-0.13246 ,-1.29971 
380 ,73.4552 ,1.32820 ,-0.14615 ,-1.43402 
381 ,73.6479 ,1.33011 ,-0.17011 ,-1.66907 
382 ,73.8397 ,1.33206 ,-0.15642 ,-1.53476 
383 ,74.0478 ,1.33407 ,-0.18037 ,-1.76981 
384 ,74.2559 ,1.33611 ,-0.18037 ,-1.76981 
385 ,74.4638 ,1.33824 ,-0.20090 ,-1.97128 
386 ,74.6400 ,1.34011 ,-0.20775 ,-2.03843 
387 ,74.8319 ,1.34196 ,-0.21802 ,-2.13917 
388 ,75.0241 ,1.34391 ,-0.23855 ,-2.34064 
389 ,75.2161 ,1.34575 ,-0.21802 ,-2.13917 
390 ,75.3923 ,1.34757 ,-0.25224 ,-2.47495 
391 ,75.5841 ,1.34946 ,-0.24539 ,-2.40779 
392 ,75.7765 ,1.35134 ,-0.26935 ,-2.64284 
393 ,75.9685 ,1.35330 ,-0.27961 ,-2.74358 
394 ,76.1447 ,1.35509 ,-0.28988 ,-2.84431 
395 ,76.3367 ,1.35703 ,-0.28988 ,-2.84431 
396 ,76.5447 ,1.35907 ,-0.31041 ,-3.04578 
397 ,76.7369 ,1.36095 ,-0.29330 ,-2.87789 
398 ,76.9451 ,1.36305 ,-0.32410 ,-3.18010 
399 ,77.1530 ,1.36512 ,-0.33437 ,-3.28083 
400 ,77.3291 ,1.36698 ,-0.33095 ,-3.24725 
401 ,77.5371 ,1.36902 ,-0.33779 ,-3.31441 
402 ,77.7287 ,1.37088 ,-0.35832 ,-3.51588 
403 ,77.9054 ,1.37273 ,-0.35490 ,-3.48230 
404 ,78.0974 ,1.37456 ,-0.36517 ,-3.58303 
405 ,78.2895 ,1.37650 ,-0.39597 ,-3.88524 
406 ,78.4815 ,1.37841 ,-0.38228 ,-3.75093 
407 ,78.6737 ,1.38031 ,-0.40623 ,-3.98597 
408 ,78.8498 ,1.38221 ,-0.41308 ,-4.05313 
409 ,79.0578 ,1.38410 ,-0.40281 ,-3.95240 
410 ,79.2500 ,1.38609 ,-0.43361 ,-4.25460 
411 ,79.4580 ,1.38821 ,-0.43703 ,-4.28818 
412 ,79.6502 ,1.39014 ,-0.45072 ,-4.42249 
413 ,79.8576 ,1.39224 ,-0.43019 ,-4.22102 
414 ,80.0342 ,1.39398 ,-0.44730 ,-4.38891 
415 ,80.2262 ,1.39580 ,-0.46099 ,-4.52323 
416 ,80.4344 ,1.39794 ,-0.46099 ,-4.52323 
417 ,80.6265 ,1.39984 ,-0.50206 ,-4.92617 
418 ,80.8508 ,1.40210 ,-0.51232 ,-5.02690 
419 ,81.0426 ,1.40403 ,-0.50206 ,-4.92617 
420 ,81.2343 ,1.40591 ,-0.51917 ,-5.09406 
421 ,81.4107 ,1.40775 ,-0.52259 ,-5.12764 
422 ,81.6027 ,1.40959 ,-0.52259 ,-5.12764 
423 ,81.8109 ,1.41173 ,-0.53628 ,-5.26195 
424 ,81.9865 ,1.41358 ,-0.55681 ,-5.46342 
425 ,82.1790 ,1.41533 ,-0.55339 ,-5.42984 
426 ,82.3870 ,1.41743 ,-0.57392 ,-5.63131 
427 ,82.5791 ,1.41938 ,-0.58077 ,-5.69847 
428 ,82.7713 ,1.42126 ,-0.59445 ,-5.83278 
429 ,82.9792 ,1.42336 ,-0.58077 ,-5.69847 
430 ,83.1715 ,1.42531 ,-0.59788 ,-5.86636 
431 ,83.3794 ,1.42740 ,-0.59788 ,-5.86636 
432 ,83.5717 ,1.42932 ,-0.61156 ,-6.00067 
433 ,83.7635 ,1.43120 ,-0.62183 ,-6.10141 
434 ,83.9558 ,1.43316 ,-0.61841 ,-6.06783 
435 ,84.1639 ,1.43518 ,-0.64579 ,-6.33646 
436 ,84.3718 ,1.43730 ,-0.64579 ,-6.33646 
437 ,84.5639 ,1.43922 ,-0.65947 ,-6.47077 
438 ,84.7721 ,1.44128 ,-0.66290 ,-6.50435 
439 ,84.9641 ,1.44323 ,-0.69027 ,-6.77297 
440 ,85.1718 ,1.44536 ,-0.68343 ,-6.70582 
441 ,85.3486 ,1.44718 ,-0.69027 ,-6.77297 
442 ,85.5244 ,1.44891 ,-0.70739 ,-6.94086 
443 ,85.7324 ,1.45089 ,-0.70396 ,-6.90729 
444 ,85.9404 ,1.45288 ,-0.72450 ,-7.10876 
445 ,86.1486 ,1.45508 ,-0.73818 ,-7.24307 
446 ,86.3408 ,1.45697 ,-0.72792 ,-7.14233 
447 ,86.5490 ,1.45912 ,-0.73818 ,-7.24307 
448 ,86.7409 ,1.46101 ,-0.74845 ,-7.34380 
449 ,86.9329 ,1.46288 ,-0.75872 ,-7.44454 
450 ,87.1411 ,1.46500 ,-0.78267 ,-7.67959 
451 ,87.5572 ,1.46806 ,-0.76556 ,-7.51170 
452 ,87.7653 ,1.47129 ,-0.80321 ,-7.88106 
453 ,87.9732 ,1.47325 ,-0.79978 ,-7.84748 
454 ,88.1654 ,1.47519 ,-0.82374 ,-8.08253 
455 ,88.3731 ,1.47728 ,-0.82032 ,-8.04895 
456 ,88.5492 ,1.47917 ,-0.83401 ,-8.18326 
457 ,88.7411 ,1.48096 ,-0.85454 ,-8.38473 
458 ,88.9332 ,1.48289 ,-0.83058 ,-8.14968 
459 ,89.1253 ,1.48486 ,-0.83743 ,-8.21684 
460 ,89.3014 ,1.48666 ,-0.84769 ,-8.31758 
461 ,89.4774 ,1.48844 ,-0.86138 ,-8.45189 
462 ,89.6541 ,1.49019 ,-0.85112 ,-8.35115 
463 ,89.8619 ,1.49220 ,-0.89903 ,-8.82125 
