Data stamp = , 12-04-2022 14:32:00 528

Calibration Values: 
Slope = , 26.54 , g/V 
Offset Voltage at no contact = , -0.501760 , V 

No , Time , Stage Position ,   Mass , Force 
   ,  (s) ,      (mm)      ,   (g)  , (mN)  

1 ,0.0000 ,0.54938 ,5.40803 ,53.06356 
2 ,0.2193 ,0.54948 ,5.38407 ,52.82851 
3 ,0.5078 ,0.55026 ,5.41829 ,53.16429 
4 ,0.6998 ,0.55152 ,5.38407 ,52.82851 
5 ,0.8756 ,0.55295 ,5.40118 ,52.99640 
6 ,1.0520 ,0.55466 ,5.41145 ,53.09714 
7 ,1.2440 ,0.55654 ,5.39092 ,52.89567 
8 ,1.4200 ,0.55832 ,5.40460 ,53.02998 
9 ,1.6282 ,0.56033 ,5.38407 ,52.82851 
10 ,1.8042 ,0.56216 ,5.36696 ,52.66062 
11 ,2.0120 ,0.56423 ,5.38065 ,52.79493 
12 ,2.1883 ,0.56609 ,5.37038 ,52.69420 
13 ,2.3806 ,0.56794 ,5.33616 ,52.35841 
14 ,2.5725 ,0.56979 ,5.31905 ,52.19052 
15 ,2.7487 ,0.57164 ,5.29852 ,51.98905 
16 ,2.9248 ,0.57340 ,5.27798 ,51.78758 
17 ,3.1165 ,0.57525 ,5.27456 ,51.75401 
18 ,3.2929 ,0.57706 ,5.25403 ,51.55254 
19 ,3.4690 ,0.57878 ,5.23692 ,51.38464 
20 ,3.6447 ,0.58060 ,5.21639 ,51.18317 
21 ,3.8532 ,0.58263 ,5.20270 ,51.04886 
22 ,4.0292 ,0.58447 ,5.20612 ,51.08244 
23 ,4.2212 ,0.58629 ,5.16848 ,50.71308 
24 ,4.3973 ,0.58809 ,5.15136 ,50.54519 
25 ,4.5730 ,0.58981 ,5.15479 ,50.57876 
26 ,4.7490 ,0.59165 ,5.12399 ,50.27656 
27 ,4.9257 ,0.59340 ,5.10345 ,50.07509 
28 ,5.1017 ,0.59516 ,5.08977 ,49.94078 
29 ,5.3098 ,0.59716 ,5.07950 ,49.84004 
30 ,5.5018 ,0.59914 ,5.04185 ,49.47068 
31 ,5.6939 ,0.60101 ,5.03501 ,49.40352 
32 ,5.8858 ,0.60299 ,5.02817 ,49.33637 
33 ,6.0621 ,0.60475 ,5.00763 ,49.13490 
34 ,6.2539 ,0.60666 ,4.99737 ,49.03416 
35 ,6.4302 ,0.60846 ,4.98026 ,48.86627 
36 ,6.6380 ,0.61040 ,4.94261 ,48.49691 
37 ,6.8463 ,0.61254 ,4.93235 ,48.39618 
38 ,7.0225 ,0.61436 ,4.91866 ,48.26186 
39 ,7.1985 ,0.61611 ,4.89128 ,47.99324 
40 ,7.3742 ,0.61783 ,4.88444 ,47.92608 
41 ,7.5508 ,0.61964 ,4.87759 ,47.85892 
42 ,7.7588 ,0.62169 ,4.86048 ,47.69103 
43 ,7.9667 ,0.62364 ,4.82968 ,47.38883 
44 ,8.1750 ,0.62583 ,4.82284 ,47.32167 
45 ,8.3668 ,0.62775 ,4.79546 ,47.05304 
46 ,8.5591 ,0.62966 ,4.78177 ,46.91873 
47 ,8.7511 ,0.63165 ,4.77835 ,46.88515 
48 ,8.9272 ,0.63337 ,4.75097 ,46.61653 
49 ,9.1192 ,0.63529 ,4.73728 ,46.48221 
50 ,9.2953 ,0.63704 ,4.72702 ,46.38148 
51 ,9.4712 ,0.63882 ,4.71675 ,46.28074 
52 ,9.6315 ,0.64057 ,4.68595 ,45.97854 
53 ,9.8236 ,0.64234 ,4.66199 ,45.74349 
54 ,9.9998 ,0.64408 ,4.66199 ,45.74349 
55 ,10.1919 ,0.64600 ,4.64488 ,45.57560 
56 ,10.3679 ,0.64783 ,4.62435 ,45.37413 
57 ,10.5595 ,0.64969 ,4.60724 ,45.20624 
58 ,10.7360 ,0.65153 ,4.60724 ,45.20624 
59 ,10.9281 ,0.65342 ,4.57644 ,44.90403 
60 ,11.1198 ,0.65526 ,4.57302 ,44.87045 
61 ,11.2961 ,0.65705 ,4.55933 ,44.73614 
62 ,11.4885 ,0.65900 ,4.52853 ,44.43394 
63 ,11.6802 ,0.66084 ,4.51826 ,44.33320 
64 ,11.8564 ,0.66263 ,4.51142 ,44.26604 
65 ,12.0485 ,0.66453 ,4.47035 ,43.86310 
66 ,12.2402 ,0.66648 ,4.48404 ,43.99742 
67 ,12.4166 ,0.66826 ,4.47035 ,43.86310 
68 ,12.5926 ,0.67001 ,4.43955 ,43.56090 
69 ,12.7527 ,0.67174 ,4.42586 ,43.42659 
70 ,12.9288 ,0.67338 ,4.40875 ,43.25870 
71 ,13.1050 ,0.67517 ,4.39164 ,43.09080 
72 ,13.3287 ,0.67728 ,4.38480 ,43.02365 
73 ,13.5050 ,0.67912 ,4.36427 ,42.82218 
74 ,13.6816 ,0.68094 ,4.34716 ,42.65429 
75 ,13.8733 ,0.68275 ,4.33347 ,42.51997 
76 ,14.0650 ,0.68475 ,4.30951 ,42.28492 
77 ,14.2573 ,0.68657 ,4.29240 ,42.11703 
78 ,14.4335 ,0.68843 ,4.29582 ,42.15061 
79 ,14.6256 ,0.69033 ,4.26845 ,41.88198 
80 ,14.8013 ,0.69225 ,4.25476 ,41.74767 
81 ,14.9933 ,0.69396 ,4.24107 ,41.61336 
82 ,15.1698 ,0.69581 ,4.22738 ,41.47905 
83 ,15.3779 ,0.69780 ,4.22053 ,41.41189 
84 ,15.5540 ,0.69964 ,4.20000 ,41.21042 
85 ,15.7300 ,0.70142 ,4.18631 ,41.07611 
86 ,15.9219 ,0.70326 ,4.16578 ,40.87464 
87 ,16.0821 ,0.70502 ,4.14867 ,40.70674 
88 ,16.2581 ,0.70665 ,4.13840 ,40.60601 
89 ,16.4344 ,0.70845 ,4.12814 ,40.50527 
90 ,16.6103 ,0.71018 ,4.11103 ,40.33738 
91 ,16.7864 ,0.71193 ,4.08707 ,40.10233 
92 ,16.9623 ,0.71369 ,4.07338 ,39.96802 
93 ,17.1549 ,0.71556 ,4.06996 ,39.93444 
94 ,17.3464 ,0.71757 ,4.04600 ,39.69940 
95 ,17.5228 ,0.71933 ,4.02547 ,39.49793 
96 ,17.6990 ,0.72111 ,4.01863 ,39.43077 
97 ,17.8910 ,0.72302 ,3.98783 ,39.12856 
98 ,18.0827 ,0.72483 ,3.99125 ,39.16214 
99 ,18.2590 ,0.72661 ,3.98098 ,39.06141 
100 ,18.4352 ,0.72850 ,3.96045 ,38.85994 
101 ,18.6107 ,0.73024 ,3.92965 ,38.55773 
102 ,18.7869 ,0.73197 ,3.91596 ,38.42342 
103 ,18.9790 ,0.73384 ,3.92281 ,38.49058 
104 ,19.1550 ,0.73570 ,3.89201 ,38.18837 
105 ,19.3309 ,0.73739 ,3.88858 ,38.15479 
106 ,19.5075 ,0.73920 ,3.85779 ,37.85259 
107 ,19.7154 ,0.74115 ,3.85436 ,37.81901 
108 ,19.8917 ,0.74297 ,3.83041 ,37.58396 
109 ,20.0677 ,0.74471 ,3.81330 ,37.41607 
110 ,20.2439 ,0.74652 ,3.81330 ,37.41607 
111 ,20.4521 ,0.74848 ,3.80645 ,37.34891 
112 ,20.6280 ,0.75039 ,3.76881 ,36.97955 
113 ,20.8040 ,0.75220 ,3.75854 ,36.87882 
114 ,20.9801 ,0.75389 ,3.76196 ,36.91240 
115 ,21.1721 ,0.75583 ,3.73801 ,36.67735 
116 ,21.3482 ,0.75754 ,3.71063 ,36.40872 
117 ,21.5244 ,0.75928 ,3.71063 ,36.40872 
118 ,21.6844 ,0.76102 ,3.69352 ,36.24083 
119 ,21.8604 ,0.76267 ,3.69694 ,36.27441 
120 ,22.0525 ,0.76460 ,3.65246 ,35.83789 
121 ,22.2287 ,0.76637 ,3.64561 ,35.77073 
122 ,22.4047 ,0.76806 ,3.63534 ,35.67000 
123 ,22.5804 ,0.76985 ,3.63192 ,35.63642 
124 ,22.7566 ,0.77163 ,3.61481 ,35.46853 
125 ,22.9325 ,0.77342 ,3.58059 ,35.13275 
126 ,23.1084 ,0.77516 ,3.57375 ,35.06559 
127 ,23.2847 ,0.77688 ,3.57032 ,35.03201 
128 ,23.4607 ,0.77867 ,3.54637 ,34.79696 
129 ,23.6208 ,0.78039 ,3.56348 ,34.96485 
130 ,23.7809 ,0.78199 ,3.52926 ,34.62907 
131 ,23.9410 ,0.78360 ,3.52926 ,34.62907 
132 ,24.1010 ,0.78520 ,3.50530 ,34.39402 
133 ,24.2611 ,0.78679 ,3.49846 ,34.32687 
134 ,24.4372 ,0.78844 ,3.47450 ,34.09182 
135 ,24.6133 ,0.79018 ,3.47450 ,34.09182 
136 ,24.7893 ,0.79190 ,3.44713 ,33.82319 
137 ,24.9495 ,0.79365 ,3.42317 ,33.58814 
138 ,25.1254 ,0.79527 ,3.43344 ,33.68888 
139 ,25.3016 ,0.79709 ,3.41633 ,33.52099 
140 ,25.4616 ,0.79880 ,3.40606 ,33.42025 
141 ,25.6377 ,0.80045 ,3.39237 ,33.28594 
142 ,25.8137 ,0.80218 ,3.36842 ,33.05089 
143 ,25.9738 ,0.80391 ,3.34104 ,32.78227 
144 ,26.1500 ,0.80553 ,3.34104 ,32.78227 
145 ,26.3099 ,0.80725 ,3.32393 ,32.61437 
146 ,26.4860 ,0.80890 ,3.31708 ,32.54722 
147 ,26.6620 ,0.81066 ,3.31708 ,32.54722 
148 ,26.8382 ,0.81246 ,3.29997 ,32.37933 
149 ,27.0142 ,0.81416 ,3.27259 ,32.11070 
150 ,27.1743 ,0.81591 ,3.25548 ,31.94281 
151 ,27.3506 ,0.81753 ,3.24180 ,31.80849 
152 ,27.5266 ,0.81934 ,3.22468 ,31.64060 
153 ,27.7187 ,0.82122 ,3.23837 ,31.77492 
154 ,27.9110 ,0.82302 ,3.21100 ,31.50629 
155 ,28.1031 ,0.82508 ,3.19388 ,31.33840 
156 ,28.2786 ,0.82687 ,3.18362 ,31.23766 
157 ,28.4556 ,0.82859 ,3.16651 ,31.06977 
158 ,28.6311 ,0.83047 ,3.14940 ,30.90188 
159 ,28.8072 ,0.83209 ,3.14255 ,30.83472 
160 ,28.9994 ,0.83406 ,3.12886 ,30.70041 
161 ,29.1914 ,0.83594 ,3.11175 ,30.53252 
162 ,29.3835 ,0.83786 ,3.11518 ,30.56610 
163 ,29.5596 ,0.83965 ,3.08438 ,30.26389 
164 ,29.7518 ,0.84156 ,3.05358 ,29.96169 
165 ,29.9438 ,0.84341 ,3.06384 ,30.06242 
166 ,30.1357 ,0.84532 ,3.04673 ,29.89453 
167 ,30.3280 ,0.84726 ,3.02278 ,29.65948 
168 ,30.5040 ,0.84908 ,3.00909 ,29.52517 
169 ,30.6796 ,0.85083 ,2.99540 ,29.39086 
170 ,31.0160 ,0.85413 ,2.95776 ,29.02150 
171 ,31.2243 ,0.85623 ,2.96802 ,29.12223 
172 ,31.4324 ,0.85824 ,2.94064 ,28.85360 
173 ,31.6244 ,0.86026 ,2.91669 ,28.61856 
174 ,31.8005 ,0.86200 ,2.90300 ,28.48424 
175 ,31.9761 ,0.86378 ,2.89616 ,28.41709 
176 ,32.1687 ,0.86558 ,2.87220 ,28.18204 
177 ,32.3607 ,0.86758 ,2.86193 ,28.08130 
178 ,32.5204 ,0.86934 ,2.84825 ,27.94699 
179 ,32.6808 ,0.87093 ,2.81745 ,27.64479 
180 ,32.8570 ,0.87257 ,2.82771 ,27.74552 
181 ,33.0490 ,0.87452 ,2.80718 ,27.54405 
182 ,33.2251 ,0.87624 ,2.80718 ,27.54405 
183 ,33.4172 ,0.87810 ,2.78665 ,27.34258 
184 ,33.6251 ,0.88025 ,2.77296 ,27.20827 
185 ,33.8174 ,0.88214 ,2.74216 ,26.90606 
186 ,33.9932 ,0.88395 ,2.73874 ,26.87248 
187 ,34.1696 ,0.88571 ,2.72847 ,26.77175 
188 ,34.3617 ,0.88764 ,2.72505 ,26.73817 
189 ,34.5377 ,0.88944 ,2.70109 ,26.50312 
190 ,34.7298 ,0.89122 ,2.69083 ,26.40239 
191 ,34.9219 ,0.89316 ,2.66345 ,26.13376 
192 ,35.1136 ,0.89511 ,2.65660 ,26.06661 
193 ,35.2901 ,0.89695 ,2.62923 ,25.79798 
194 ,35.4980 ,0.89892 ,2.62238 ,25.73082 
195 ,35.6741 ,0.90073 ,2.60869 ,25.59651 
196 ,35.8661 ,0.90262 ,2.61212 ,25.63009 
197 ,36.0424 ,0.90446 ,2.59158 ,25.42862 
198 ,36.2344 ,0.90634 ,2.56078 ,25.12641 
199 ,36.4104 ,0.90812 ,2.56421 ,25.15999 
200 ,36.5866 ,0.90989 ,2.55736 ,25.09283 
201 ,36.7625 ,0.91161 ,2.53683 ,24.89136 
202 ,36.9547 ,0.91351 ,2.51287 ,24.65632 
203 ,37.1308 ,0.91529 ,2.50261 ,24.55558 
204 ,37.3067 ,0.91701 ,2.49918 ,24.52200 
205 ,37.4830 ,0.91883 ,2.48207 ,24.35411 
206 ,37.6590 ,0.92062 ,2.44785 ,24.01833 
207 ,37.8671 ,0.92260 ,2.45470 ,24.08549 
208 ,38.0431 ,0.92447 ,2.45127 ,24.05191 
209 ,38.2351 ,0.92641 ,2.41363 ,23.68255 
210 ,38.4113 ,0.92810 ,2.42390 ,23.78328 
211 ,38.5873 ,0.92986 ,2.40679 ,23.61539 
212 ,38.7635 ,0.93164 ,2.38283 ,23.38034 
213 ,38.9560 ,0.93352 ,2.36914 ,23.24603 
214 ,39.1474 ,0.93544 ,2.34861 ,23.04456 
215 ,39.3396 ,0.93740 ,2.33834 ,22.94382 
216 ,39.5157 ,0.93916 ,2.31097 ,22.67520 
217 ,39.7238 ,0.94116 ,2.29385 ,22.50731 
218 ,39.8999 ,0.94299 ,2.29043 ,22.47373 
219 ,40.1078 ,0.94502 ,2.27674 ,22.33941 
220 ,40.2841 ,0.94684 ,2.27332 ,22.30584 
221 ,40.4758 ,0.94875 ,2.23910 ,21.97005 
222 ,40.6523 ,0.95055 ,2.22541 ,21.83574 
223 ,40.8439 ,0.95247 ,2.22541 ,21.83574 
224 ,41.0204 ,0.95420 ,2.21172 ,21.70143 
225 ,41.2126 ,0.95611 ,2.19119 ,21.49996 
226 ,41.3884 ,0.95789 ,2.19803 ,21.56711 
227 ,41.5643 ,0.95960 ,2.18092 ,21.39922 
228 ,41.7406 ,0.96143 ,2.15355 ,21.13059 
229 ,41.9326 ,0.96333 ,2.14328 ,21.02986 
230 ,42.1088 ,0.96503 ,2.14328 ,21.02986 
231 ,42.3008 ,0.96690 ,2.10906 ,20.69408 
232 ,42.4929 ,0.96891 ,2.10221 ,20.62692 
233 ,42.6685 ,0.97067 ,2.09195 ,20.52619 
234 ,42.8611 ,0.97255 ,2.06115 ,20.22398 
235 ,43.0531 ,0.97451 ,2.07141 ,20.32472 
236 ,43.2294 ,0.97629 ,2.06799 ,20.29114 
237 ,43.4053 ,0.97803 ,2.04061 ,20.02251 
238 ,43.5975 ,0.97994 ,2.01666 ,19.78746 
239 ,43.7731 ,0.98178 ,2.01324 ,19.75388 
240 ,43.9501 ,0.98350 ,1.98928 ,19.51884 
241 ,44.1256 ,0.98526 ,1.98928 ,19.51884 
242 ,44.3172 ,0.98714 ,1.95848 ,19.21663 
243 ,44.4938 ,0.98889 ,1.95506 ,19.18305 
244 ,44.6855 ,0.99083 ,1.93795 ,19.01516 
245 ,44.8619 ,0.99264 ,1.92084 ,18.84727 
246 ,45.0378 ,0.99439 ,1.90715 ,18.71296 
247 ,45.2459 ,0.99628 ,1.90031 ,18.64580 
248 ,45.4219 ,0.99818 ,1.87635 ,18.41075 
249 ,45.5982 ,0.99996 ,1.86951 ,18.34360 
250 ,45.7899 ,1.00181 ,1.85582 ,18.20928 
251 ,45.9822 ,1.00370 ,1.84555 ,18.10855 
252 ,46.1901 ,1.00577 ,1.83186 ,17.97423 
253 ,46.3824 ,1.00774 ,1.80106 ,17.67203 
254 ,46.5743 ,1.00974 ,1.80791 ,17.73919 
255 ,46.7665 ,1.01162 ,1.78737 ,17.53772 
256 ,46.9582 ,1.01347 ,1.77711 ,17.43698 
257 ,47.1349 ,1.01535 ,1.76684 ,17.33625 
258 ,47.3266 ,1.01721 ,1.75315 ,17.20193 
259 ,47.5028 ,1.01901 ,1.72920 ,16.96689 
260 ,47.6790 ,1.02076 ,1.71209 ,16.79899 
261 ,47.8710 ,1.02262 ,1.72235 ,16.89973 
262 ,48.0466 ,1.02444 ,1.70182 ,16.69826 
263 ,48.2231 ,1.02619 ,1.67786 ,16.46321 
264 ,48.4153 ,1.02807 ,1.68129 ,16.49679 
265 ,48.6072 ,1.02995 ,1.65391 ,16.22816 
266 ,48.7831 ,1.03185 ,1.64022 ,16.09385 
267 ,48.9753 ,1.03368 ,1.62995 ,15.99311 
268 ,49.1674 ,1.03558 ,1.62311 ,15.92596 
269 ,49.3597 ,1.03758 ,1.59916 ,15.69091 
270 ,49.5519 ,1.03944 ,1.58889 ,15.59018 
271 ,49.7436 ,1.04135 ,1.56151 ,15.32155 
272 ,49.9357 ,1.04322 ,1.55467 ,15.25439 
273 ,50.1118 ,1.04508 ,1.55467 ,15.25439 
274 ,50.3041 ,1.04695 ,1.53071 ,15.01934 
275 ,50.4960 ,1.04884 ,1.52387 ,14.95219 
276 ,50.7041 ,1.05091 ,1.50676 ,14.78430 
277 ,50.8803 ,1.05275 ,1.49307 ,14.64998 
278 ,51.0724 ,1.05461 ,1.48280 ,14.54925 
279 ,51.2643 ,1.05655 ,1.46911 ,14.41493 
280 ,51.4405 ,1.05836 ,1.45542 ,14.28062 
281 ,51.6325 ,1.06026 ,1.45542 ,14.28062 
282 ,51.7926 ,1.06198 ,1.43489 ,14.07915 
283 ,51.9684 ,1.06368 ,1.42462 ,13.97842 
284 ,52.1608 ,1.06559 ,1.39725 ,13.70979 
285 ,52.3527 ,1.06740 ,1.40067 ,13.74337 
286 ,52.5450 ,1.06931 ,1.39383 ,13.67621 
287 ,52.7367 ,1.07126 ,1.37671 ,13.50832 
288 ,52.9131 ,1.07307 ,1.35960 ,13.34043 
289 ,53.1051 ,1.07498 ,1.33907 ,13.13896 
290 ,53.2812 ,1.07677 ,1.31169 ,12.87033 
291 ,53.4573 ,1.07847 ,1.31512 ,12.90391 
292 ,53.6491 ,1.08044 ,1.29800 ,12.73602 
293 ,53.8415 ,1.08228 ,1.29116 ,12.66886 
294 ,54.0336 ,1.08431 ,1.28774 ,12.63528 
295 ,54.2416 ,1.08624 ,1.26720 ,12.43381 
296 ,54.4332 ,1.08826 ,1.26036 ,12.36666 
297 ,54.6098 ,1.09006 ,1.23641 ,12.13161 
298 ,54.7857 ,1.09183 ,1.22272 ,11.99730 
299 ,54.9776 ,1.09366 ,1.21245 ,11.89656 
300 ,55.1541 ,1.09547 ,1.20903 ,11.86298 
301 ,55.3457 ,1.09736 ,1.18507 ,11.62794 
302 ,55.5060 ,1.09910 ,1.15770 ,11.35931 
303 ,55.6822 ,1.10078 ,1.14401 ,11.22500 
304 ,55.8743 ,1.10261 ,1.14401 ,11.22500 
305 ,56.0662 ,1.10459 ,1.13032 ,11.09068 
306 ,56.2420 ,1.10634 ,1.09952 ,10.78848 
307 ,56.4023 ,1.10806 ,1.11663 ,10.95637 
308 ,56.5780 ,1.10971 ,1.08583 ,10.65416 
309 ,56.7544 ,1.11152 ,1.08925 ,10.68774 
310 ,56.9306 ,1.11328 ,1.07899 ,10.58701 
311 ,57.1067 ,1.11500 ,1.05845 ,10.38554 
312 ,57.2825 ,1.11681 ,1.03108 ,10.11691 
313 ,57.4588 ,1.11851 ,1.03792 ,10.18407 
314 ,57.6508 ,1.12042 ,1.03450 ,10.15049 
315 ,57.8109 ,1.12214 ,1.01396 ,9.94902 
316 ,57.9870 ,1.12385 ,1.00028 ,9.81471 
317 ,58.1793 ,1.12563 ,0.98659 ,9.68039 
318 ,58.3868 ,1.12780 ,0.95921 ,9.41177 
319 ,58.5634 ,1.12956 ,0.96263 ,9.44535 
320 ,58.7553 ,1.13144 ,0.95921 ,9.41177 
321 ,58.9474 ,1.13338 ,0.92841 ,9.10956 
322 ,59.1235 ,1.13516 ,0.92157 ,9.04241 
323 ,59.3313 ,1.13708 ,0.91814 ,9.00883 
324 ,59.4913 ,1.13893 ,0.89419 ,8.77378 
325 ,59.6514 ,1.14054 ,0.89077 ,8.74020 
326 ,59.8277 ,1.14221 ,0.88050 ,8.63947 
327 ,60.0355 ,1.14417 ,0.86681 ,8.50515 
328 ,60.2120 ,1.14600 ,0.85654 ,8.40442 
329 ,60.3880 ,1.14780 ,0.84286 ,8.27011 
330 ,60.5640 ,1.14955 ,0.82232 ,8.06864 
331 ,60.7401 ,1.15132 ,0.81548 ,8.00148 
332 ,60.9322 ,1.15313 ,0.80863 ,7.93432 
333 ,61.1242 ,1.15517 ,0.78468 ,7.69927 
334 ,61.3003 ,1.15695 ,0.77099 ,7.56496 
335 ,61.4924 ,1.15886 ,0.77441 ,7.59854 
336 ,61.6684 ,1.16056 ,0.75046 ,7.36349 
337 ,61.8442 ,1.16236 ,0.72650 ,7.12844 
338 ,62.0367 ,1.16418 ,0.72650 ,7.12844 
339 ,62.2287 ,1.16618 ,0.71966 ,7.06129 
340 ,62.4367 ,1.16813 ,0.70939 ,6.96055 
341 ,62.6289 ,1.17024 ,0.69228 ,6.79266 
342 ,62.8209 ,1.17217 ,0.67859 ,6.65835 
343 ,62.9969 ,1.17386 ,0.65806 ,6.45688 
344 ,63.1731 ,1.17566 ,0.67517 ,6.62477 
345 ,63.3649 ,1.17750 ,0.64095 ,6.28899 
346 ,63.5573 ,1.17944 ,0.63410 ,6.22183 
347 ,63.7490 ,1.18141 ,0.61015 ,5.98678 
348 ,63.9411 ,1.18324 ,0.59988 ,5.88605 
349 ,64.1495 ,1.18524 ,0.61015 ,5.98678 
350 ,64.3576 ,1.18741 ,0.58619 ,5.75173 
351 ,64.5498 ,1.18944 ,0.57251 ,5.61742 
352 ,64.7418 ,1.19128 ,0.55197 ,5.41595 
353 ,64.9177 ,1.19310 ,0.53828 ,5.28164 
354 ,65.1258 ,1.19511 ,0.51775 ,5.08017 
355 ,65.3179 ,1.19708 ,0.51775 ,5.08017 
356 ,65.4940 ,1.19881 ,0.51433 ,5.04659 
357 ,65.7021 ,1.20089 ,0.48353 ,4.74438 
358 ,65.8781 ,1.20272 ,0.48011 ,4.71081 
359 ,66.0701 ,1.20461 ,0.46642 ,4.57649 
360 ,66.2464 ,1.20638 ,0.46300 ,4.54291 
361 ,66.4224 ,1.20811 ,0.43562 ,4.27429 
362 ,66.5986 ,1.20983 ,0.43562 ,4.27429 
363 ,66.7904 ,1.21181 ,0.42535 ,4.17355 
364 ,66.9667 ,1.21353 ,0.39797 ,3.90493 
365 ,67.1427 ,1.21538 ,0.40824 ,4.00566 
366 ,67.3189 ,1.21710 ,0.38086 ,3.73703 
367 ,67.5107 ,1.21901 ,0.37744 ,3.70346 
368 ,67.6869 ,1.22075 ,0.37060 ,3.63630 
369 ,67.8630 ,1.22250 ,0.33980 ,3.33410 
370 ,68.0391 ,1.22430 ,0.34322 ,3.36767 
371 ,68.2154 ,1.22601 ,0.34664 ,3.40125 
372 ,68.4072 ,1.22796 ,0.30900 ,3.03189 
373 ,68.5996 ,1.22984 ,0.30215 ,2.96473 
374 ,68.7754 ,1.23168 ,0.30900 ,3.03189 
375 ,68.9518 ,1.23340 ,0.29189 ,2.86400 
376 ,69.1436 ,1.23529 ,0.27135 ,2.66253 
377 ,69.3353 ,1.23717 ,0.27478 ,2.69611 
378 ,69.5118 ,1.23900 ,0.26109 ,2.56179 
379 ,69.7034 ,1.24098 ,0.24055 ,2.36032 
380 ,69.8958 ,1.24281 ,0.23713 ,2.32675 
381 ,70.0878 ,1.24477 ,0.22344 ,2.19243 
382 ,70.2641 ,1.24655 ,0.21318 ,2.09170 
383 ,70.4401 ,1.24829 ,0.19607 ,1.92381 
384 ,70.6161 ,1.25006 ,0.19607 ,1.92381 
385 ,70.7923 ,1.25179 ,0.18922 ,1.85665 
386 ,70.9843 ,1.25373 ,0.16527 ,1.62160 
387 ,71.1764 ,1.25557 ,0.17896 ,1.75592 
388 ,71.3524 ,1.25742 ,0.15500 ,1.52087 
389 ,71.5286 ,1.25914 ,0.12420 ,1.21866 
390 ,71.7207 ,1.26099 ,0.13447 ,1.31940 
391 ,71.9287 ,1.26307 ,0.10025 ,0.98361 
392 ,72.1047 ,1.26493 ,0.09340 ,0.91646 
393 ,72.2808 ,1.26663 ,0.10025 ,0.98361 
394 ,72.4575 ,1.26838 ,0.08998 ,0.88288 
395 ,72.6491 ,1.27041 ,0.08656 ,0.84930 
396 ,72.8571 ,1.27236 ,0.07971 ,0.78214 
397 ,73.0494 ,1.27440 ,0.05576 ,0.54710 
398 ,73.2573 ,1.27638 ,0.04891 ,0.47994 
399 ,73.4652 ,1.27835 ,0.03180 ,0.31205 
400 ,73.6414 ,1.28027 ,0.03180 ,0.31205 
401 ,73.8015 ,1.28199 ,0.01469 ,0.14416 
402 ,73.9773 ,1.28361 ,0.00785 ,0.07700 
403 ,74.1538 ,1.28540 ,0.00100 ,0.00984 
404 ,74.3456 ,1.28733 ,-0.02637 ,-0.25878 
405 ,74.5378 ,1.28922 ,-0.02980 ,-0.29236 
406 ,74.7139 ,1.29097 ,-0.03664 ,-0.35952 
407 ,74.8900 ,1.29276 ,-0.03322 ,-0.32594 
408 ,75.0659 ,1.29450 ,-0.06744 ,-0.66172 
409 ,75.2420 ,1.29631 ,-0.07771 ,-0.76246 
410 ,75.4181 ,1.29801 ,-0.07428 ,-0.72888 
411 ,75.5943 ,1.29976 ,-0.06744 ,-0.66172 
412 ,75.7702 ,1.30157 ,-0.09482 ,-0.93035 
413 ,75.9462 ,1.30335 ,-0.09824 ,-0.96393 
414 ,76.1225 ,1.30508 ,-0.12562 ,-1.23255 
415 ,76.3146 ,1.30695 ,-0.10508 ,-1.03108 
416 ,76.5065 ,1.30890 ,-0.12904 ,-1.26613 
417 ,76.6986 ,1.31074 ,-0.15299 ,-1.50118 
418 ,76.8747 ,1.31256 ,-0.15299 ,-1.50118 
419 ,77.0667 ,1.31447 ,-0.15984 ,-1.56834 
420 ,77.2589 ,1.31632 ,-0.17695 ,-1.73623 
421 ,77.4349 ,1.31818 ,-0.17695 ,-1.73623 
422 ,77.6270 ,1.32008 ,-0.19406 ,-1.90412 
423 ,77.8028 ,1.32193 ,-0.18037 ,-1.76981 
424 ,77.9792 ,1.32359 ,-0.20433 ,-2.00485 
425 ,78.1871 ,1.32565 ,-0.22144 ,-2.17275 
426 ,78.3634 ,1.32745 ,-0.22828 ,-2.23990 
427 ,78.5713 ,1.32952 ,-0.22828 ,-2.23990 
428 ,78.7635 ,1.33138 ,-0.23513 ,-2.30706 
429 ,78.9395 ,1.33327 ,-0.25908 ,-2.54211 
430 ,79.1317 ,1.33519 ,-0.25566 ,-2.50853 
431 ,79.3398 ,1.33712 ,-0.25566 ,-2.50853 
432 ,79.5318 ,1.33913 ,-0.26593 ,-2.60926 
433 ,79.7240 ,1.34101 ,-0.30357 ,-2.97863 
434 ,79.9158 ,1.34301 ,-0.29673 ,-2.91147 
435 ,80.1081 ,1.34497 ,-0.29673 ,-2.91147 
436 ,80.3002 ,1.34680 ,-0.31041 ,-3.04578 
437 ,80.4923 ,1.34875 ,-0.32068 ,-3.14652 
438 ,80.6843 ,1.35066 ,-0.35148 ,-3.44872 
439 ,80.8763 ,1.35252 ,-0.32410 ,-3.18010 
440 ,81.0844 ,1.35459 ,-0.36859 ,-3.61661 
441 ,81.2605 ,1.35645 ,-0.35832 ,-3.51588 
442 ,81.4365 ,1.35817 ,-0.36859 ,-3.61661 
443 ,81.6287 ,1.36009 ,-0.39597 ,-3.88524 
444 ,81.8207 ,1.36197 ,-0.37201 ,-3.65019 
445 ,82.0287 ,1.36395 ,-0.38570 ,-3.78450 
446 ,82.2049 ,1.36589 ,-0.40966 ,-4.01955 
447 ,82.4130 ,1.36792 ,-0.40966 ,-4.01955 
448 ,82.6051 ,1.36984 ,-0.45072 ,-4.42249 
449 ,82.8131 ,1.37187 ,-0.42335 ,-4.15387 
450 ,83.0212 ,1.37391 ,-0.45757 ,-4.48965 
451 ,83.2127 ,1.37602 ,-0.45072 ,-4.42249 
452 ,83.3888 ,1.37770 ,-0.45414 ,-4.45607 
453 ,83.5650 ,1.37946 ,-0.47126 ,-4.62396 
454 ,83.7734 ,1.38156 ,-0.47810 ,-4.69112 
455 ,83.9655 ,1.38347 ,-0.49521 ,-4.85901 
456 ,84.1734 ,1.38552 ,-0.48837 ,-4.79185 
457 ,84.3655 ,1.38745 ,-0.51574 ,-5.06048 
458 ,84.5577 ,1.38943 ,-0.52259 ,-5.12764 
459 ,84.7657 ,1.39135 ,-0.52259 ,-5.12764 
460 ,84.9583 ,1.39331 ,-0.53628 ,-5.26195 
461 ,85.1660 ,1.39539 ,-0.56023 ,-5.49700 
462 ,85.3581 ,1.39730 ,-0.54312 ,-5.32911 
463 ,85.5499 ,1.39921 ,-0.54997 ,-5.39626 
464 ,85.7261 ,1.40110 ,-0.56708 ,-5.56415 
