Data stamp = , 12-04-2022 20:31:33 017

Calibration Values: 
Slope = , 26.54 , g/V 
Offset Voltage at no contact = , -0.501760 , V 

No , Time , Stage Position ,   Mass , Force 
   ,  (s) ,      (mm)      ,   (g)  , (mN)  

1 ,0.0000 ,0.54935 ,5.38749 ,52.86209 
2 ,0.2158 ,0.54944 ,5.38407 ,52.82851 
3 ,0.5362 ,0.55029 ,5.41145 ,53.09714 
4 ,0.7444 ,0.55183 ,5.39776 ,52.96282 
5 ,0.9203 ,0.55333 ,5.38407 ,52.82851 
6 ,1.0965 ,0.55508 ,5.37381 ,52.72778 
7 ,1.2723 ,0.55680 ,5.40460 ,53.02998 
8 ,1.5927 ,0.55931 ,5.41145 ,53.09714 
9 ,1.7688 ,0.56180 ,5.39434 ,52.92925 
10 ,1.9769 ,0.56383 ,5.37038 ,52.69420 
11 ,2.1690 ,0.56574 ,5.38065 ,52.79493 
12 ,2.3608 ,0.56776 ,5.34985 ,52.49273 
13 ,2.5372 ,0.56953 ,5.34301 ,52.42557 
14 ,2.7292 ,0.57145 ,5.33616 ,52.35841 
15 ,2.9220 ,0.57332 ,5.30878 ,52.08979 
16 ,3.1294 ,0.57536 ,5.31221 ,52.12337 
17 ,3.3055 ,0.57721 ,5.28141 ,51.82116 
18 ,3.4811 ,0.57891 ,5.26772 ,51.68685 
19 ,3.6574 ,0.58075 ,5.25061 ,51.51896 
20 ,3.8655 ,0.58270 ,5.23692 ,51.38464 
21 ,4.0576 ,0.58458 ,5.21981 ,51.21675 
22 ,4.2339 ,0.58643 ,5.20612 ,51.08244 
23 ,4.4258 ,0.58830 ,5.18216 ,50.84739 
24 ,4.6341 ,0.59040 ,5.15821 ,50.61234 
25 ,4.8261 ,0.59235 ,5.15821 ,50.61234 
26 ,5.0020 ,0.59419 ,5.12741 ,50.31014 
27 ,5.1941 ,0.59599 ,5.12741 ,50.31014 
28 ,5.3702 ,0.59783 ,5.11030 ,50.14225 
29 ,5.5463 ,0.59959 ,5.10345 ,50.07509 
30 ,5.7225 ,0.60137 ,5.06581 ,49.70573 
31 ,5.9145 ,0.60324 ,5.04185 ,49.47068 
32 ,6.0907 ,0.60497 ,5.02817 ,49.33637 
33 ,6.2667 ,0.60678 ,5.02132 ,49.26921 
34 ,6.4588 ,0.60872 ,4.98368 ,48.89985 
35 ,6.6349 ,0.61042 ,4.98368 ,48.89985 
36 ,6.8108 ,0.61223 ,4.95288 ,48.59764 
37 ,6.9871 ,0.61398 ,4.96999 ,48.76554 
38 ,7.1791 ,0.61592 ,4.93235 ,48.39618 
39 ,7.3552 ,0.61762 ,4.90155 ,48.09397 
40 ,7.5471 ,0.61956 ,4.91523 ,48.22828 
41 ,7.7390 ,0.62147 ,4.87417 ,47.82534 
42 ,7.9315 ,0.62337 ,4.87075 ,47.79177 
43 ,8.1396 ,0.62539 ,4.82968 ,47.38883 
44 ,8.3316 ,0.62742 ,4.83652 ,47.45598 
45 ,8.5237 ,0.62931 ,4.81599 ,47.25451 
46 ,8.7318 ,0.63124 ,4.80230 ,47.12020 
47 ,8.9238 ,0.63328 ,4.77835 ,46.88515 
48 ,9.1156 ,0.63532 ,4.77493 ,46.85157 
49 ,9.2920 ,0.63704 ,4.76466 ,46.75084 
50 ,9.4840 ,0.63891 ,4.74070 ,46.51579 
51 ,9.6759 ,0.64080 ,4.71675 ,46.28074 
52 ,9.8521 ,0.64261 ,4.70990 ,46.21359 
53 ,10.0442 ,0.64450 ,4.69622 ,46.07927 
54 ,10.2523 ,0.64660 ,4.68595 ,45.97854 
55 ,10.4284 ,0.64839 ,4.66884 ,45.81065 
56 ,10.6364 ,0.65041 ,4.63804 ,45.50844 
57 ,10.8124 ,0.65226 ,4.64146 ,45.54202 
58 ,11.0046 ,0.65411 ,4.61408 ,45.27339 
59 ,11.1965 ,0.65603 ,4.57986 ,44.93761 
60 ,11.3888 ,0.65791 ,4.57986 ,44.93761 
61 ,11.5810 ,0.65989 ,4.54564 ,44.60183 
62 ,11.7728 ,0.66174 ,4.54906 ,44.63541 
63 ,11.9650 ,0.66370 ,4.51484 ,44.29962 
64 ,12.1408 ,0.66546 ,4.51826 ,44.33320 
65 ,12.3332 ,0.66736 ,4.48746 ,44.03100 
66 ,12.5248 ,0.66928 ,4.46693 ,43.82953 
67 ,12.7013 ,0.67109 ,4.45324 ,43.69521 
68 ,12.8932 ,0.67297 ,4.44298 ,43.59448 
69 ,13.0692 ,0.67482 ,4.42244 ,43.39301 
70 ,13.2615 ,0.67667 ,4.40191 ,43.19154 
71 ,13.4693 ,0.67867 ,4.39507 ,43.12438 
72 ,13.6616 ,0.68062 ,4.36769 ,42.85576 
73 ,13.8698 ,0.68269 ,4.36427 ,42.82218 
74 ,14.0456 ,0.68453 ,4.35058 ,42.68786 
75 ,14.2218 ,0.68628 ,4.31293 ,42.31850 
76 ,14.3980 ,0.68802 ,4.30951 ,42.28492 
77 ,14.5899 ,0.68993 ,4.30609 ,42.25135 
78 ,14.7658 ,0.69173 ,4.28898 ,42.08345 
79 ,14.9422 ,0.69351 ,4.25818 ,41.78125 
80 ,15.1663 ,0.69565 ,4.22396 ,41.44547 
81 ,15.3582 ,0.69772 ,4.22738 ,41.47905 
82 ,15.5664 ,0.69966 ,4.21369 ,41.34473 
83 ,15.7424 ,0.70152 ,4.20342 ,41.24400 
84 ,15.9346 ,0.70336 ,4.18289 ,41.04253 
85 ,16.1106 ,0.70521 ,4.16578 ,40.87464 
86 ,16.2863 ,0.70690 ,4.15894 ,40.80748 
87 ,16.4626 ,0.70871 ,4.13156 ,40.53885 
88 ,16.6709 ,0.71082 ,4.11787 ,40.40454 
89 ,16.8630 ,0.71272 ,4.10418 ,40.27023 
90 ,17.0551 ,0.71464 ,4.09049 ,40.13591 
91 ,17.2470 ,0.71648 ,4.07680 ,40.00160 
92 ,17.4231 ,0.71834 ,4.04943 ,39.73297 
93 ,17.5992 ,0.72002 ,4.04258 ,39.66582 
94 ,17.7753 ,0.72183 ,4.01863 ,39.43077 
95 ,17.9672 ,0.72365 ,4.01863 ,39.43077 
96 ,18.1595 ,0.72569 ,3.99125 ,39.16214 
97 ,18.3517 ,0.72758 ,3.98441 ,39.09499 
98 ,18.5115 ,0.72929 ,3.97756 ,39.02783 
99 ,18.6876 ,0.73096 ,3.96387 ,38.89352 
100 ,18.8637 ,0.73271 ,3.93992 ,38.65847 
101 ,19.0558 ,0.73461 ,3.92281 ,38.49058 
102 ,19.2479 ,0.73649 ,3.90227 ,38.28911 
103 ,19.4559 ,0.73849 ,3.88516 ,38.12122 
104 ,19.6641 ,0.74067 ,3.87832 ,38.05406 
105 ,19.8560 ,0.74261 ,3.85094 ,37.78543 
106 ,20.0321 ,0.74446 ,3.84752 ,37.75185 
107 ,20.2241 ,0.74625 ,3.82356 ,37.51681 
108 ,20.4003 ,0.74800 ,3.80303 ,37.31534 
109 ,20.5924 ,0.74996 ,3.80303 ,37.31534 
110 ,20.7686 ,0.75171 ,3.79619 ,37.24818 
111 ,20.9764 ,0.75369 ,3.76539 ,36.94597 
112 ,21.1526 ,0.75573 ,3.77223 ,37.01313 
113 ,21.3288 ,0.75732 ,3.74828 ,36.77808 
114 ,21.5049 ,0.75912 ,3.72432 ,36.54303 
115 ,21.6969 ,0.76098 ,3.72090 ,36.50946 
116 ,21.8889 ,0.76291 ,3.70037 ,36.30799 
117 ,22.0811 ,0.76477 ,3.68325 ,36.14010 
118 ,22.2571 ,0.76663 ,3.65246 ,35.83789 
119 ,22.4332 ,0.76837 ,3.65246 ,35.83789 
120 ,22.6253 ,0.77020 ,3.63877 ,35.70358 
121 ,22.8334 ,0.77234 ,3.62166 ,35.53569 
122 ,23.0254 ,0.77424 ,3.60112 ,35.33422 
123 ,23.2174 ,0.77613 ,3.59086 ,35.23348 
124 ,23.4416 ,0.77835 ,3.56348 ,34.96485 
125 ,23.6177 ,0.78022 ,3.55663 ,34.89770 
126 ,23.7937 ,0.78199 ,3.54295 ,34.76338 
127 ,23.9697 ,0.78371 ,3.53610 ,34.69623 
128 ,24.1615 ,0.78551 ,3.52241 ,34.56192 
129 ,24.3539 ,0.78756 ,3.49846 ,34.32687 
130 ,24.5300 ,0.78932 ,3.49504 ,34.29329 
131 ,24.7061 ,0.79107 ,3.47450 ,34.09182 
132 ,24.8817 ,0.79300 ,3.44370 ,33.78961 
133 ,25.0582 ,0.79460 ,3.43001 ,33.65530 
134 ,25.2500 ,0.79654 ,3.43344 ,33.68888 
135 ,25.4584 ,0.79852 ,3.39921 ,33.35310 
136 ,25.6664 ,0.80065 ,3.37868 ,33.15163 
137 ,25.8583 ,0.80268 ,3.37184 ,33.08447 
138 ,26.0506 ,0.80457 ,3.36842 ,33.05089 
139 ,26.2427 ,0.80649 ,3.34104 ,32.78227 
140 ,26.4509 ,0.80848 ,3.34104 ,32.78227 
141 ,26.6267 ,0.81028 ,3.32051 ,32.58080 
142 ,26.8027 ,0.81206 ,3.29997 ,32.37933 
143 ,26.9945 ,0.81391 ,3.28971 ,32.27859 
144 ,27.1706 ,0.81572 ,3.28286 ,32.21143 
145 ,27.3309 ,0.81747 ,3.27259 ,32.11070 
146 ,27.5231 ,0.81912 ,3.24522 ,31.84207 
147 ,27.6993 ,0.82107 ,3.22811 ,31.67418 
148 ,27.8912 ,0.82288 ,3.22126 ,31.60702 
149 ,28.0674 ,0.82466 ,3.21100 ,31.50629 
150 ,28.2594 ,0.82664 ,3.18020 ,31.20409 
151 ,28.4355 ,0.82842 ,3.18020 ,31.20409 
152 ,28.6596 ,0.83054 ,3.14940 ,30.90188 
153 ,28.8516 ,0.83251 ,3.13913 ,30.80115 
154 ,29.0277 ,0.83431 ,3.13913 ,30.80115 
155 ,29.2199 ,0.83617 ,3.11175 ,30.53252 
156 ,29.4124 ,0.83817 ,3.10491 ,30.46536 
157 ,29.6038 ,0.84000 ,3.07411 ,30.16316 
158 ,29.7799 ,0.84183 ,3.06384 ,30.06242 
159 ,29.9560 ,0.84356 ,3.06384 ,30.06242 
160 ,30.1321 ,0.84547 ,3.03304 ,29.76022 
161 ,30.3243 ,0.84720 ,3.01251 ,29.55875 
162 ,30.5483 ,0.84926 ,3.00909 ,29.52517 
163 ,30.7404 ,0.85146 ,2.98855 ,29.32370 
164 ,30.9166 ,0.85317 ,2.98513 ,29.29012 
165 ,31.0926 ,0.85493 ,2.98855 ,29.32370 
166 ,31.2682 ,0.85669 ,2.95776 ,29.02150 
167 ,31.4445 ,0.85846 ,2.94749 ,28.92076 
168 ,31.6528 ,0.86054 ,2.92696 ,28.71929 
169 ,31.8285 ,0.86228 ,2.90985 ,28.55140 
170 ,32.0050 ,0.86407 ,2.88589 ,28.31635 
171 ,32.1970 ,0.86586 ,2.86536 ,28.11488 
172 ,32.3732 ,0.86776 ,2.87905 ,28.24919 
173 ,32.5652 ,0.86968 ,2.84482 ,27.91341 
174 ,32.7732 ,0.87171 ,2.84482 ,27.91341 
175 ,32.9654 ,0.87359 ,2.81745 ,27.64479 
176 ,33.1415 ,0.87548 ,2.80718 ,27.54405 
177 ,33.3334 ,0.87729 ,2.80376 ,27.51047 
178 ,33.5254 ,0.87924 ,2.76611 ,27.14111 
179 ,33.7176 ,0.88111 ,2.78322 ,27.30900 
180 ,33.8938 ,0.88293 ,2.75585 ,27.04038 
181 ,34.1179 ,0.88503 ,2.74216 ,26.90606 
182 ,34.3260 ,0.88716 ,2.71820 ,26.67101 
183 ,34.5177 ,0.88914 ,2.71478 ,26.63744 
184 ,34.6941 ,0.89093 ,2.69767 ,26.46954 
185 ,34.8860 ,0.89278 ,2.66687 ,26.16734 
186 ,35.0622 ,0.89463 ,2.65660 ,26.06661 
187 ,35.2223 ,0.89632 ,2.65660 ,26.06661 
188 ,35.4144 ,0.89804 ,2.63607 ,25.86514 
189 ,35.6064 ,0.90000 ,2.60869 ,25.59651 
190 ,35.7986 ,0.90201 ,2.60869 ,25.59651 
191 ,36.0066 ,0.90390 ,2.58816 ,25.39504 
192 ,36.1985 ,0.90591 ,2.59158 ,25.42862 
193 ,36.3748 ,0.90772 ,2.57447 ,25.26073 
194 ,36.5665 ,0.90957 ,2.53683 ,24.89136 
195 ,36.7428 ,0.91144 ,2.52314 ,24.75705 
196 ,36.9350 ,0.91333 ,2.53683 ,24.89136 
197 ,37.1112 ,0.91514 ,2.51972 ,24.72347 
198 ,37.2871 ,0.91690 ,2.49234 ,24.45485 
199 ,37.4632 ,0.91861 ,2.47523 ,24.28696 
200 ,37.6389 ,0.92033 ,2.47865 ,24.32053 
201 ,37.8153 ,0.92220 ,2.45812 ,24.11906 
202 ,38.0070 ,0.92405 ,2.43074 ,23.85044 
203 ,38.1835 ,0.92580 ,2.42390 ,23.78328 
204 ,38.3595 ,0.92762 ,2.42048 ,23.74970 
205 ,38.5357 ,0.92934 ,2.41021 ,23.64897 
206 ,38.7436 ,0.93135 ,2.38283 ,23.38034 
207 ,38.9203 ,0.93323 ,2.36914 ,23.24603 
208 ,39.1120 ,0.93508 ,2.35203 ,23.07814 
209 ,39.3201 ,0.93711 ,2.35545 ,23.11171 
210 ,39.5121 ,0.93905 ,2.32808 ,22.84309 
211 ,39.7042 ,0.94104 ,2.30412 ,22.60804 
212 ,39.8801 ,0.94282 ,2.29385 ,22.50731 
213 ,40.0563 ,0.94454 ,2.29728 ,22.54088 
214 ,40.2804 ,0.94667 ,2.26306 ,22.20510 
215 ,40.5044 ,0.94890 ,2.25963 ,22.17152 
216 ,40.6804 ,0.95081 ,2.24252 ,22.00363 
217 ,40.8562 ,0.95254 ,2.23568 ,21.93647 
218 ,41.0326 ,0.95429 ,2.21515 ,21.73500 
219 ,41.2247 ,0.95620 ,2.17750 ,21.36564 
220 ,41.4008 ,0.95799 ,2.17750 ,21.36564 
221 ,41.5932 ,0.95989 ,2.17066 ,21.29849 
222 ,41.7850 ,0.96172 ,2.15012 ,21.09702 
223 ,41.9611 ,0.96356 ,2.14328 ,21.02986 
224 ,42.1371 ,0.96531 ,2.13986 ,20.99628 
225 ,42.3132 ,0.96710 ,2.12275 ,20.82839 
226 ,42.5053 ,0.96903 ,2.09879 ,20.59334 
227 ,42.6973 ,0.97092 ,2.09537 ,20.55976 
228 ,42.8734 ,0.97271 ,2.08510 ,20.45903 
229 ,43.0655 ,0.97455 ,2.05773 ,20.19040 
230 ,43.2577 ,0.97650 ,2.05773 ,20.19040 
231 ,43.4658 ,0.97847 ,2.02008 ,19.82104 
232 ,43.6577 ,0.98051 ,2.02350 ,19.85462 
233 ,43.8499 ,0.98248 ,1.99613 ,19.58599 
234 ,44.0258 ,0.98421 ,1.97902 ,19.41810 
235 ,44.2182 ,0.98611 ,1.97559 ,19.38452 
236 ,44.3941 ,0.98793 ,1.97217 ,19.35094 
237 ,44.5701 ,0.98970 ,1.94479 ,19.08232 
238 ,44.7464 ,0.99146 ,1.92768 ,18.91443 
239 ,44.9543 ,0.99347 ,1.92768 ,18.91443 
240 ,45.1459 ,0.99529 ,1.90031 ,18.64580 
241 ,45.3224 ,0.99723 ,1.89346 ,18.57864 
242 ,45.5306 ,0.99918 ,1.86266 ,18.27644 
243 ,45.7224 ,1.00112 ,1.86608 ,18.31002 
244 ,45.8988 ,1.00290 ,1.86266 ,18.27644 
245 ,46.0908 ,1.00481 ,1.82844 ,17.94066 
246 ,46.2989 ,1.00688 ,1.82160 ,17.87350 
247 ,46.4907 ,1.00889 ,1.80791 ,17.73919 
248 ,46.6667 ,1.01063 ,1.79080 ,17.57129 
249 ,46.8431 ,1.01236 ,1.78737 ,17.53772 
250 ,47.0353 ,1.01425 ,1.77369 ,17.40340 
251 ,47.2273 ,1.01612 ,1.74631 ,17.13478 
252 ,47.4198 ,1.01809 ,1.74631 ,17.13478 
253 ,47.6111 ,1.02010 ,1.71551 ,16.83257 
254 ,47.7871 ,1.02182 ,1.70524 ,16.73184 
255 ,47.9631 ,1.02357 ,1.69498 ,16.63110 
256 ,48.1395 ,1.02536 ,1.69498 ,16.63110 
257 ,48.3636 ,1.02745 ,1.67444 ,16.42963 
258 ,48.5719 ,1.02950 ,1.66075 ,16.29532 
259 ,48.7799 ,1.03170 ,1.65733 ,16.26174 
260 ,48.9559 ,1.03352 ,1.64022 ,16.09385 
261 ,49.1480 ,1.03539 ,1.60600 ,15.75807 
262 ,49.3400 ,1.03733 ,1.60258 ,15.72449 
263 ,49.5001 ,1.03906 ,1.59231 ,15.62375 
264 ,49.6763 ,1.04068 ,1.58889 ,15.59018 
265 ,49.8842 ,1.04275 ,1.56151 ,15.32155 
266 ,50.0601 ,1.04454 ,1.56151 ,15.32155 
267 ,50.2364 ,1.04631 ,1.54782 ,15.18724 
268 ,50.4284 ,1.04819 ,1.51702 ,14.88503 
269 ,50.6046 ,1.05005 ,1.52729 ,14.98577 
270 ,50.7968 ,1.05192 ,1.51018 ,14.81787 
271 ,51.0048 ,1.05394 ,1.48622 ,14.58283 
272 ,51.1968 ,1.05588 ,1.46227 ,14.34778 
273 ,51.3890 ,1.05772 ,1.45885 ,14.31420 
274 ,51.5648 ,1.05956 ,1.44516 ,14.17989 
275 ,51.7411 ,1.06138 ,1.44174 ,14.14631 
276 ,51.9331 ,1.06319 ,1.40067 ,13.74337 
277 ,52.1094 ,1.06508 ,1.41094 ,13.84410 
278 ,52.3015 ,1.06687 ,1.41436 ,13.87768 
279 ,52.5096 ,1.06897 ,1.39040 ,13.64263 
280 ,52.7172 ,1.07106 ,1.37329 ,13.47474 
281 ,52.8935 ,1.07285 ,1.34934 ,13.23969 
282 ,53.0696 ,1.07457 ,1.33223 ,13.07180 
283 ,53.2458 ,1.07633 ,1.32538 ,13.00465 
284 ,53.4221 ,1.07813 ,1.31854 ,12.93749 
285 ,53.6140 ,1.08005 ,1.29116 ,12.66886 
286 ,53.7900 ,1.08186 ,1.29116 ,12.66886 
287 ,53.9661 ,1.08365 ,1.29116 ,12.66886 
288 ,54.1581 ,1.08550 ,1.28774 ,12.63528 
289 ,54.3342 ,1.08726 ,1.25009 ,12.26592 
290 ,54.5103 ,1.08904 ,1.23641 ,12.13161 
291 ,54.6862 ,1.09079 ,1.23641 ,12.13161 
292 ,54.8781 ,1.09269 ,1.22956 ,12.06445 
293 ,55.0706 ,1.09460 ,1.19534 ,11.72867 
294 ,55.2622 ,1.09653 ,1.18850 ,11.66151 
295 ,55.4543 ,1.09839 ,1.18507 ,11.62794 
296 ,55.6302 ,1.10028 ,1.16796 ,11.46004 
297 ,55.8227 ,1.10210 ,1.16454 ,11.42647 
298 ,56.0149 ,1.10403 ,1.14743 ,11.25857 
299 ,56.2231 ,1.10615 ,1.13032 ,11.09068 
300 ,56.3988 ,1.10793 ,1.12690 ,11.05710 
301 ,56.5751 ,1.10967 ,1.10636 ,10.85563 
302 ,56.7668 ,1.11156 ,1.08241 ,10.62059 
303 ,56.9429 ,1.11331 ,1.08925 ,10.68774 
304 ,57.1193 ,1.11512 ,1.08241 ,10.62059 
305 ,57.3114 ,1.11694 ,1.04819 ,10.28480 
306 ,57.4874 ,1.11879 ,1.03108 ,10.11691 
307 ,57.6794 ,1.12071 ,1.04134 ,10.21765 
308 ,57.8717 ,1.12261 ,1.01054 ,9.91544 
309 ,58.0636 ,1.12450 ,1.00370 ,9.84829 
310 ,58.2398 ,1.12630 ,1.01054 ,9.91544 
311 ,58.4317 ,1.12822 ,0.97632 ,9.57966 
312 ,58.6078 ,1.12997 ,0.97290 ,9.54608 
313 ,58.7838 ,1.13176 ,0.95921 ,9.41177 
314 ,58.9602 ,1.13347 ,0.95237 ,9.34461 
315 ,59.1522 ,1.13535 ,0.92157 ,9.04241 
316 ,59.3443 ,1.13736 ,0.92157 ,9.04241 
317 ,59.5204 ,1.13912 ,0.91814 ,9.00883 
318 ,59.7123 ,1.14097 ,0.89761 ,8.80736 
319 ,59.8883 ,1.14275 ,0.88050 ,8.63947 
320 ,60.0802 ,1.14463 ,0.88050 ,8.63947 
321 ,60.2726 ,1.14651 ,0.87708 ,8.60589 
322 ,60.4647 ,1.14848 ,0.85312 ,8.37084 
323 ,60.6407 ,1.15033 ,0.84628 ,8.30368 
324 ,60.8167 ,1.15204 ,0.82575 ,8.10221 
325 ,60.9929 ,1.15382 ,0.80863 ,7.93432 
326 ,61.1846 ,1.15574 ,0.79837 ,7.83359 
327 ,61.3611 ,1.15752 ,0.80179 ,7.86717 
328 ,61.5690 ,1.15959 ,0.76415 ,7.49780 
329 ,61.7772 ,1.16161 ,0.76072 ,7.46423 
330 ,61.9853 ,1.16370 ,0.74361 ,7.29633 
331 ,62.1774 ,1.16555 ,0.73677 ,7.22918 
332 ,62.3855 ,1.16765 ,0.71624 ,7.02771 
333 ,62.5616 ,1.16957 ,0.70255 ,6.89340 
334 ,62.7373 ,1.17125 ,0.70597 ,6.92697 
335 ,62.9142 ,1.17304 ,0.67517 ,6.62477 
336 ,63.1056 ,1.17491 ,0.67859 ,6.65835 
337 ,63.2977 ,1.17679 ,0.66148 ,6.49046 
338 ,63.4901 ,1.17870 ,0.64095 ,6.28899 
339 ,63.6821 ,1.18075 ,0.64095 ,6.28899 
340 ,63.8579 ,1.18241 ,0.63410 ,6.22183 
341 ,64.0342 ,1.18424 ,0.61357 ,6.02036 
342 ,64.2103 ,1.18600 ,0.59304 ,5.81889 
343 ,64.3860 ,1.18775 ,0.59304 ,5.81889 
344 ,64.5619 ,1.18950 ,0.57935 ,5.68458 
345 ,64.7542 ,1.19135 ,0.55882 ,5.48311 
346 ,64.9302 ,1.19317 ,0.55197 ,5.41595 
347 ,65.1063 ,1.19492 ,0.53828 ,5.28164 
348 ,65.2824 ,1.19670 ,0.53144 ,5.21448 
349 ,65.4584 ,1.19846 ,0.53828 ,5.28164 
350 ,65.6345 ,1.20024 ,0.50748 ,4.97943 
351 ,65.8106 ,1.20197 ,0.49380 ,4.84512 
352 ,65.9707 ,1.20371 ,0.48011 ,4.71081 
353 ,66.1307 ,1.20531 ,0.46642 ,4.57649 
354 ,66.3068 ,1.20689 ,0.44931 ,4.40860 
355 ,66.4829 ,1.20866 ,0.45957 ,4.50934 
356 ,66.6429 ,1.21041 ,0.45273 ,4.44218 
357 ,66.8029 ,1.21205 ,0.45273 ,4.44218 
358 ,66.9791 ,1.21366 ,0.44931 ,4.40860 
359 ,67.1552 ,1.21543 ,0.41851 ,4.10640 
360 ,67.3313 ,1.21719 ,0.39455 ,3.87135 
361 ,67.5074 ,1.21895 ,0.38429 ,3.77061 
362 ,67.6833 ,1.22073 ,0.39797 ,3.90493 
363 ,67.8594 ,1.22245 ,0.39455 ,3.87135 
364 ,68.0196 ,1.22417 ,0.36033 ,3.53557 
365 ,68.1956 ,1.22580 ,0.35691 ,3.50199 
366 ,68.3717 ,1.22754 ,0.33295 ,3.26694 
367 ,68.5477 ,1.22933 ,0.32611 ,3.19978 
368 ,68.7238 ,1.23107 ,0.32611 ,3.19978 
369 ,68.9003 ,1.23286 ,0.31926 ,3.13263 
370 ,69.1083 ,1.23486 ,0.29873 ,2.93116 
371 ,69.3163 ,1.23690 ,0.28847 ,2.83042 
372 ,69.5244 ,1.23902 ,0.28504 ,2.79684 
373 ,69.7006 ,1.24086 ,0.26793 ,2.62895 
374 ,69.8766 ,1.24258 ,0.25424 ,2.49464 
375 ,70.0688 ,1.24452 ,0.23713 ,2.32675 
376 ,70.2448 ,1.24634 ,0.23029 ,2.25959 
377 ,70.4206 ,1.24803 ,0.22687 ,2.22601 
378 ,70.6125 ,1.24994 ,0.20291 ,1.99096 
379 ,70.7890 ,1.25176 ,0.18922 ,1.85665 
380 ,70.9969 ,1.25376 ,0.17211 ,1.68876 
381 ,71.1890 ,1.25568 ,0.18580 ,1.82307 
382 ,71.3813 ,1.25758 ,0.17211 ,1.68876 
383 ,71.5732 ,1.25953 ,0.13789 ,1.35298 
384 ,71.7494 ,1.26134 ,0.13789 ,1.35298 
385 ,71.9251 ,1.26310 ,0.14473 ,1.42013 
386 ,72.1015 ,1.26490 ,0.13447 ,1.31940 
387 ,72.2776 ,1.26667 ,0.11736 ,1.15151 
388 ,72.4696 ,1.26850 ,0.09340 ,0.91646 
389 ,72.6459 ,1.27030 ,0.09682 ,0.95004 
390 ,72.8220 ,1.27211 ,0.08998 ,0.88288 
391 ,72.9976 ,1.27383 ,0.06602 ,0.64783 
392 ,73.1740 ,1.27557 ,0.05918 ,0.58067 
393 ,73.3658 ,1.27750 ,0.04891 ,0.47994 
394 ,73.5581 ,1.27940 ,0.02496 ,0.24489 
395 ,73.7662 ,1.28154 ,0.03522 ,0.34563 
396 ,73.9423 ,1.28326 ,0.03865 ,0.37920 
397 ,74.1184 ,1.28505 ,0.00443 ,0.04342 
398 ,74.3106 ,1.28696 ,-0.00242 ,-0.02373 
399 ,74.5025 ,1.28881 ,-0.00926 ,-0.09089 
400 ,74.6783 ,1.29059 ,-0.00926 ,-0.09089 
401 ,74.8547 ,1.29239 ,-0.03664 ,-0.35952 
402 ,75.0146 ,1.29409 ,-0.03664 ,-0.35952 
403 ,75.1907 ,1.29574 ,-0.04691 ,-0.46025 
404 ,75.3668 ,1.29752 ,-0.05717 ,-0.56099 
405 ,75.5429 ,1.29929 ,-0.05033 ,-0.49383 
406 ,75.7192 ,1.30101 ,-0.06744 ,-0.66172 
407 ,75.9111 ,1.30291 ,-0.08113 ,-0.79604 
408 ,76.0872 ,1.30466 ,-0.08113 ,-0.79604 
409 ,76.2632 ,1.30647 ,-0.09824 ,-0.96393 
410 ,76.4393 ,1.30824 ,-0.10851 ,-1.06466 
411 ,76.6153 ,1.30999 ,-0.12219 ,-1.19898 
412 ,76.8074 ,1.31179 ,-0.13588 ,-1.33329 
413 ,77.0154 ,1.31394 ,-0.13588 ,-1.33329 
414 ,77.1914 ,1.31572 ,-0.14957 ,-1.46760 
415 ,77.3837 ,1.31763 ,-0.14957 ,-1.46760 
416 ,77.5756 ,1.31960 ,-0.17695 ,-1.73623 
417 ,77.7677 ,1.32143 ,-0.15642 ,-1.53476 
418 ,77.9600 ,1.32346 ,-0.18037 ,-1.76981 
419 ,78.1520 ,1.32528 ,-0.19064 ,-1.87054 
420 ,78.3277 ,1.32712 ,-0.19064 ,-1.87054 
421 ,78.5200 ,1.32897 ,-0.22144 ,-2.17275 
422 ,78.6962 ,1.33079 ,-0.22828 ,-2.23990 
423 ,78.8881 ,1.33263 ,-0.21802 ,-2.13917 
424 ,79.0643 ,1.33444 ,-0.23855 ,-2.34064 
425 ,79.2404 ,1.33621 ,-0.24881 ,-2.44137 
426 ,79.4161 ,1.33809 ,-0.25908 ,-2.54211 
427 ,79.6246 ,1.33987 ,-0.26593 ,-2.60926 
428 ,79.8008 ,1.34183 ,-0.27619 ,-2.71000 
429 ,80.0084 ,1.34385 ,-0.28304 ,-2.77716 
430 ,80.1849 ,1.34566 ,-0.28646 ,-2.81073 
431 ,80.3768 ,1.34764 ,-0.31384 ,-3.07936 
432 ,80.5530 ,1.34933 ,-0.32410 ,-3.18010 
433 ,80.7290 ,1.35107 ,-0.31384 ,-3.07936 
434 ,80.9051 ,1.35280 ,-0.32410 ,-3.18010 
435 ,81.0813 ,1.35461 ,-0.33779 ,-3.31441 
436 ,81.2893 ,1.35661 ,-0.34806 ,-3.41514 
437 ,81.4653 ,1.35844 ,-0.34464 ,-3.38156 
438 ,81.6415 ,1.36022 ,-0.36859 ,-3.61661 
439 ,81.8496 ,1.36229 ,-0.37201 ,-3.65019 
440 ,82.0256 ,1.36404 ,-0.37201 ,-3.65019 
441 ,82.2017 ,1.36586 ,-0.38570 ,-3.78450 
442 ,82.4259 ,1.36790 ,-0.38228 ,-3.75093 
443 ,82.6016 ,1.36987 ,-0.39597 ,-3.88524 
444 ,82.7778 ,1.37157 ,-0.41992 ,-4.12029 
445 ,82.9700 ,1.37350 ,-0.42335 ,-4.15387 
446 ,83.1618 ,1.37532 ,-0.43019 ,-4.22102 
447 ,83.3701 ,1.37743 ,-0.43019 ,-4.22102 
448 ,83.5623 ,1.37930 ,-0.44388 ,-4.35534 
449 ,83.7382 ,1.38117 ,-0.46099 ,-4.52323 
450 ,83.9145 ,1.38293 ,-0.47468 ,-4.65754 
451 ,84.1064 ,1.38484 ,-0.47126 ,-4.62396 
452 ,84.2985 ,1.38670 ,-0.49863 ,-4.89259 
453 ,84.4905 ,1.38866 ,-0.49179 ,-4.82543 
454 ,84.6985 ,1.39076 ,-0.51917 ,-5.09406 
455 ,84.8905 ,1.39268 ,-0.51232 ,-5.02690 
456 ,85.0826 ,1.39463 ,-0.52601 ,-5.16121 
457 ,85.2910 ,1.39662 ,-0.53970 ,-5.29553 
458 ,85.4668 ,1.39851 ,-0.54654 ,-5.36268 
459 ,85.6431 ,1.40020 ,-0.54312 ,-5.32911 
460 ,85.8188 ,1.40198 ,-0.57392 ,-5.63131 
461 ,85.9953 ,1.40374 ,-0.57392 ,-5.63131 
462 ,86.2033 ,1.40575 ,-0.58077 ,-5.69847 
463 ,86.3954 ,1.40774 ,-0.59103 ,-5.79920 
