Data stamp = , 12-04-2022 03:25:54 760

Calibration Values: 
Slope = , 26.54 , g/V 
Offset Voltage at no contact = , -0.501760 , V 

No , Time , Stage Position ,   Mass , Force 
   ,  (s) ,      (mm)      ,   (g)  , (mN)  

1 ,0.0000 ,0.59935 ,5.06239 ,49.67215 
2 ,0.2267 ,0.59945 ,5.04870 ,49.53784 
3 ,0.4510 ,0.60006 ,5.05212 ,49.57142 
4 ,0.6427 ,0.60114 ,5.03843 ,49.43710 
5 ,0.8192 ,0.60245 ,5.04185 ,49.47068 
6 ,0.9953 ,0.60411 ,5.05212 ,49.57142 
7 ,1.2033 ,0.60610 ,5.05212 ,49.57142 
8 ,1.3795 ,0.60786 ,5.04870 ,49.53784 
9 ,1.5556 ,0.60970 ,5.05897 ,49.63857 
10 ,1.7474 ,0.61153 ,5.02817 ,49.33637 
11 ,1.9236 ,0.61332 ,5.01448 ,49.20205 
12 ,2.0998 ,0.61513 ,5.00763 ,49.13490 
13 ,2.2916 ,0.61694 ,4.98710 ,48.93343 
14 ,2.4679 ,0.61882 ,4.97341 ,48.79911 
15 ,2.6600 ,0.62066 ,4.94261 ,48.49691 
16 ,2.8360 ,0.62246 ,4.95630 ,48.63122 
17 ,3.0281 ,0.62431 ,4.93577 ,48.42975 
18 ,3.2040 ,0.62611 ,4.90497 ,48.12755 
19 ,3.3802 ,0.62792 ,4.91181 ,48.19471 
20 ,3.5562 ,0.62969 ,4.88444 ,47.92608 
21 ,3.7325 ,0.63143 ,4.87417 ,47.82534 
22 ,3.9244 ,0.63328 ,4.85021 ,47.59030 
23 ,4.1166 ,0.63525 ,4.85021 ,47.59030 
24 ,4.3086 ,0.63721 ,4.81257 ,47.22093 
25 ,4.4847 ,0.63891 ,4.79888 ,47.08662 
26 ,4.6928 ,0.64099 ,4.78519 ,46.95231 
27 ,4.8686 ,0.64284 ,4.77150 ,46.81800 
28 ,5.0449 ,0.64459 ,4.74070 ,46.51579 
29 ,5.2527 ,0.64657 ,4.73728 ,46.48221 
30 ,5.4128 ,0.64834 ,4.72702 ,46.38148 
31 ,5.5891 ,0.65000 ,4.71675 ,46.28074 
32 ,5.7813 ,0.65189 ,4.69964 ,46.11285 
33 ,5.9733 ,0.65376 ,4.66199 ,45.74349 
34 ,6.1493 ,0.65561 ,4.66542 ,45.77707 
35 ,6.3576 ,0.65755 ,4.64146 ,45.54202 
36 ,6.5334 ,0.65941 ,4.64146 ,45.54202 
37 ,6.7095 ,0.66116 ,4.61066 ,45.23981 
38 ,6.8857 ,0.66297 ,4.57986 ,44.93761 
39 ,7.0776 ,0.66481 ,4.60040 ,45.13908 
40 ,7.2858 ,0.66683 ,4.56617 ,44.80330 
41 ,7.4618 ,0.66871 ,4.54564 ,44.60183 
42 ,7.6539 ,0.67059 ,4.53195 ,44.46751 
43 ,7.8299 ,0.67234 ,4.50457 ,44.19889 
44 ,8.0061 ,0.67416 ,4.49431 ,44.09815 
45 ,8.1980 ,0.67604 ,4.49773 ,44.13173 
46 ,8.4221 ,0.67823 ,4.47378 ,43.89668 
47 ,8.5982 ,0.68007 ,4.47378 ,43.89668 
48 ,8.7905 ,0.68192 ,4.43271 ,43.49374 
49 ,8.9823 ,0.68391 ,4.41218 ,43.29227 
50 ,9.1745 ,0.68579 ,4.40533 ,43.22512 
51 ,9.3506 ,0.68759 ,4.38822 ,43.05723 
52 ,9.5269 ,0.68941 ,4.36769 ,42.85576 
53 ,9.7188 ,0.69128 ,4.36084 ,42.78860 
54 ,9.8948 ,0.69301 ,4.35400 ,42.72144 
55 ,10.0709 ,0.69477 ,4.32320 ,42.41924 
56 ,10.2470 ,0.69652 ,4.29582 ,42.15061 
57 ,10.4390 ,0.69840 ,4.32662 ,42.45282 
58 ,10.6150 ,0.70024 ,4.28898 ,42.08345 
59 ,10.8072 ,0.70213 ,4.25476 ,41.74767 
60 ,10.9832 ,0.70393 ,4.25133 ,41.71409 
61 ,11.1754 ,0.70585 ,4.25133 ,41.71409 
62 ,11.3514 ,0.70769 ,4.23080 ,41.51262 
63 ,11.5434 ,0.70952 ,4.20342 ,41.24400 
64 ,11.7356 ,0.71137 ,4.19658 ,41.17684 
65 ,11.9116 ,0.71326 ,4.15894 ,40.80748 
66 ,12.0875 ,0.71496 ,4.15209 ,40.74032 
67 ,12.2639 ,0.71669 ,4.14183 ,40.63959 
68 ,12.4559 ,0.71860 ,4.12471 ,40.47170 
69 ,12.6481 ,0.72054 ,4.11787 ,40.40454 
70 ,12.8559 ,0.72247 ,4.09734 ,40.20307 
71 ,13.0322 ,0.72441 ,4.09049 ,40.13591 
72 ,13.2081 ,0.72617 ,4.07680 ,40.00160 
73 ,13.3998 ,0.72805 ,4.06654 ,39.90087 
74 ,13.5764 ,0.72986 ,4.05285 ,39.76655 
75 ,13.7524 ,0.73162 ,4.04600 ,39.69940 
76 ,13.9445 ,0.73343 ,4.00152 ,39.26288 
77 ,14.1206 ,0.73526 ,4.00152 ,39.26288 
78 ,14.2967 ,0.73706 ,3.98098 ,39.06141 
79 ,14.4886 ,0.73889 ,3.96045 ,38.85994 
80 ,14.6647 ,0.74070 ,3.94334 ,38.69205 
81 ,14.8570 ,0.74258 ,3.92623 ,38.52415 
82 ,15.0649 ,0.74461 ,3.92281 ,38.49058 
83 ,15.2411 ,0.74644 ,3.89885 ,38.25553 
84 ,15.4167 ,0.74825 ,3.89885 ,38.25553 
85 ,15.5933 ,0.74996 ,3.88516 ,38.12122 
86 ,15.7693 ,0.75187 ,3.86121 ,37.88617 
87 ,15.9452 ,0.75354 ,3.85094 ,37.78543 
88 ,16.1534 ,0.75542 ,3.83041 ,37.58396 
89 ,16.3291 ,0.75742 ,3.80645 ,37.34891 
90 ,16.5056 ,0.75910 ,3.78592 ,37.14744 
91 ,16.6815 ,0.76093 ,3.78934 ,37.18102 
92 ,16.8736 ,0.76274 ,3.78934 ,37.18102 
93 ,17.0498 ,0.76456 ,3.76881 ,36.97955 
94 ,17.2256 ,0.76635 ,3.73801 ,36.67735 
95 ,17.4339 ,0.76835 ,3.73117 ,36.61019 
96 ,17.6097 ,0.77013 ,3.71748 ,36.47588 
97 ,17.8021 ,0.77199 ,3.71748 ,36.47588 
98 ,17.9941 ,0.77399 ,3.69352 ,36.24083 
99 ,18.1861 ,0.77580 ,3.66957 ,36.00578 
100 ,18.3622 ,0.77766 ,3.64219 ,35.73716 
101 ,18.5383 ,0.77943 ,3.64561 ,35.77073 
102 ,18.7141 ,0.78115 ,3.63877 ,35.70358 
103 ,18.9064 ,0.78301 ,3.62508 ,35.56926 
104 ,19.0985 ,0.78504 ,3.59086 ,35.23348 
105 ,19.2747 ,0.78679 ,3.58401 ,35.16632 
106 ,19.4668 ,0.78865 ,3.57717 ,35.09917 
107 ,19.6589 ,0.79059 ,3.55321 ,34.86412 
108 ,19.8348 ,0.79240 ,3.53952 ,34.72981 
109 ,20.0269 ,0.79431 ,3.52584 ,34.59549 
110 ,20.2029 ,0.79604 ,3.50188 ,34.36045 
111 ,20.4271 ,0.79816 ,3.48477 ,34.19255 
112 ,20.6191 ,0.80018 ,3.46766 ,34.02466 
113 ,20.8112 ,0.80215 ,3.47792 ,34.12540 
114 ,21.0033 ,0.80405 ,3.44370 ,33.78961 
115 ,21.1954 ,0.80597 ,3.43001 ,33.65530 
116 ,21.3714 ,0.80769 ,3.43344 ,33.68888 
117 ,21.5637 ,0.80963 ,3.40264 ,33.38667 
118 ,21.7396 ,0.81144 ,3.37868 ,33.15163 
119 ,21.9315 ,0.81332 ,3.39921 ,33.35310 
120 ,22.1077 ,0.81515 ,3.37184 ,33.08447 
121 ,22.2836 ,0.81689 ,3.34104 ,32.78227 
122 ,22.4758 ,0.81880 ,3.33419 ,32.71511 
123 ,22.6839 ,0.82079 ,3.32393 ,32.61437 
124 ,22.8601 ,0.82269 ,3.31366 ,32.51364 
125 ,23.0521 ,0.82450 ,3.29997 ,32.37933 
126 ,23.2280 ,0.82633 ,3.28286 ,32.21143 
127 ,23.4042 ,0.82811 ,3.25891 ,31.97639 
128 ,23.5803 ,0.82983 ,3.22468 ,31.64060 
129 ,23.7565 ,0.83161 ,3.22811 ,31.67418 
130 ,23.9485 ,0.83349 ,3.22468 ,31.64060 
131 ,24.1401 ,0.83544 ,3.20073 ,31.40555 
132 ,24.3165 ,0.83713 ,3.19388 ,31.33840 
133 ,24.4924 ,0.83893 ,3.18704 ,31.27124 
134 ,24.6688 ,0.84075 ,3.16993 ,31.10335 
135 ,24.8769 ,0.84269 ,3.13571 ,30.76757 
136 ,25.0530 ,0.84458 ,3.14597 ,30.86830 
137 ,25.2289 ,0.84637 ,3.11860 ,30.59968 
138 ,25.4207 ,0.84821 ,3.09122 ,30.33105 
139 ,25.5971 ,0.85002 ,3.08095 ,30.23031 
140 ,25.7892 ,0.85196 ,3.07411 ,30.16316 
141 ,25.9810 ,0.85384 ,3.04673 ,29.89453 
142 ,26.1570 ,0.85559 ,3.05015 ,29.92811 
143 ,26.3333 ,0.85732 ,3.02620 ,29.69306 
144 ,26.5254 ,0.85927 ,3.00909 ,29.52517 
145 ,26.7175 ,0.86105 ,3.00567 ,29.49159 
146 ,26.9096 ,0.86311 ,3.00567 ,29.49159 
147 ,27.1175 ,0.86510 ,2.97487 ,29.18939 
148 ,27.2773 ,0.86693 ,2.96460 ,29.08865 
149 ,27.4538 ,0.86857 ,2.95091 ,28.95434 
150 ,27.6622 ,0.87058 ,2.91669 ,28.61856 
151 ,27.8539 ,0.87252 ,2.92011 ,28.65213 
152 ,28.0459 ,0.87446 ,2.90642 ,28.51782 
153 ,28.2220 ,0.87622 ,2.87220 ,28.18204 
154 ,28.4141 ,0.87810 ,2.88247 ,28.28277 
155 ,28.6221 ,0.88017 ,2.85167 ,27.98057 
156 ,28.8142 ,0.88214 ,2.83798 ,27.84625 
157 ,29.0061 ,0.88401 ,2.83114 ,27.77910 
158 ,29.1824 ,0.88584 ,2.81402 ,27.61121 
159 ,29.3583 ,0.88762 ,2.79691 ,27.44332 
160 ,29.5344 ,0.88934 ,2.77638 ,27.24185 
161 ,29.7587 ,0.89143 ,2.76954 ,27.17469 
162 ,29.9346 ,0.89335 ,2.75243 ,27.00680 
163 ,30.1109 ,0.89511 ,2.74558 ,26.93964 
164 ,30.3029 ,0.89701 ,2.73189 ,26.80533 
165 ,30.4790 ,0.89880 ,2.70794 ,26.57028 
166 ,30.6553 ,0.90054 ,2.68740 ,26.36881 
167 ,30.8471 ,0.90252 ,2.70452 ,26.53670 
168 ,31.0231 ,0.90422 ,2.67372 ,26.23450 
169 ,31.2152 ,0.90609 ,2.65318 ,26.03303 
170 ,31.4073 ,0.90810 ,2.66003 ,26.10018 
171 ,31.5833 ,0.90979 ,2.63265 ,25.83156 
172 ,31.7915 ,0.91179 ,2.61554 ,25.66367 
173 ,31.9834 ,0.91383 ,2.60185 ,25.52935 
174 ,32.1756 ,0.91564 ,2.58474 ,25.36146 
175 ,32.3518 ,0.91750 ,2.56078 ,25.12641 
176 ,32.5275 ,0.91932 ,2.56763 ,25.19357 
177 ,32.7200 ,0.92112 ,2.54367 ,24.95852 
178 ,32.9280 ,0.92316 ,2.51972 ,24.72347 
179 ,33.1199 ,0.92520 ,2.52314 ,24.75705 
180 ,33.2959 ,0.92690 ,2.50945 ,24.62274 
181 ,33.4882 ,0.92877 ,2.47523 ,24.28696 
182 ,33.6801 ,0.93075 ,2.46496 ,24.18622 
183 ,33.8724 ,0.93275 ,2.46154 ,24.15264 
184 ,34.0802 ,0.93477 ,2.44101 ,23.95117 
185 ,34.2725 ,0.93660 ,2.41705 ,23.71612 
186 ,34.4483 ,0.93853 ,2.42390 ,23.78328 
187 ,34.6247 ,0.94018 ,2.41021 ,23.64897 
188 ,34.8006 ,0.94209 ,2.38283 ,23.38034 
189 ,34.9927 ,0.94393 ,2.36914 ,23.24603 
190 ,35.1848 ,0.94578 ,2.37941 ,23.34676 
191 ,35.3610 ,0.94757 ,2.35545 ,23.11171 
192 ,35.5691 ,0.94969 ,2.33150 ,22.87667 
193 ,35.7608 ,0.95157 ,2.33150 ,22.87667 
194 ,35.9372 ,0.95337 ,2.30412 ,22.60804 
195 ,36.1293 ,0.95528 ,2.28701 ,22.44015 
196 ,36.3052 ,0.95703 ,2.29043 ,22.47373 
197 ,36.4813 ,0.95875 ,2.27332 ,22.30584 
198 ,36.6575 ,0.96060 ,2.23568 ,21.93647 
199 ,36.8331 ,0.96237 ,2.24594 ,22.03721 
200 ,37.0093 ,0.96410 ,2.22199 ,21.80216 
201 ,37.1856 ,0.96579 ,2.21515 ,21.73500 
202 ,37.3619 ,0.96761 ,2.20488 ,21.63427 
203 ,37.5537 ,0.96944 ,2.18435 ,21.43280 
204 ,37.7298 ,0.97127 ,2.18092 ,21.39922 
205 ,37.9055 ,0.97302 ,2.15012 ,21.09702 
206 ,38.0980 ,0.97483 ,2.15697 ,21.16417 
207 ,38.3059 ,0.97687 ,2.12617 ,20.86197 
208 ,38.4822 ,0.97876 ,2.11248 ,20.72766 
209 ,38.6741 ,0.98060 ,2.09195 ,20.52619 
210 ,38.8503 ,0.98247 ,2.07826 ,20.39187 
211 ,39.0099 ,0.98420 ,2.08168 ,20.42545 
212 ,39.1865 ,0.98585 ,2.06115 ,20.22398 
213 ,39.3785 ,0.98776 ,2.05430 ,20.15682 
214 ,39.5545 ,0.98948 ,2.03377 ,19.95535 
215 ,39.7467 ,0.99146 ,2.01666 ,19.78746 
216 ,39.9227 ,0.99318 ,2.01666 ,19.78746 
217 ,40.0989 ,0.99496 ,1.99955 ,19.61957 
218 ,40.2908 ,0.99685 ,1.96533 ,19.28379 
219 ,40.4672 ,0.99869 ,1.97217 ,19.35094 
220 ,40.6592 ,1.00047 ,1.97217 ,19.35094 
221 ,40.8831 ,1.00264 ,1.93111 ,18.94801 
222 ,41.0594 ,1.00458 ,1.92426 ,18.88085 
223 ,41.2513 ,1.00653 ,1.91742 ,18.81369 
224 ,41.4595 ,1.00854 ,1.88319 ,18.47791 
225 ,41.6352 ,1.01032 ,1.87977 ,18.44433 
226 ,41.8114 ,1.01205 ,1.86266 ,18.27644 
227 ,41.9876 ,1.01385 ,1.85240 ,18.17570 
228 ,42.1793 ,1.01577 ,1.84213 ,18.07497 
229 ,42.3719 ,1.01758 ,1.82502 ,17.90708 
230 ,42.5799 ,1.01971 ,1.81817 ,17.83992 
231 ,42.7721 ,1.02166 ,1.81133 ,17.77276 
232 ,42.9476 ,1.02342 ,1.78737 ,17.53772 
233 ,43.1240 ,1.02516 ,1.78053 ,17.47056 
234 ,43.2997 ,1.02691 ,1.75657 ,17.23551 
235 ,43.4763 ,1.02873 ,1.74973 ,17.16836 
236 ,43.6841 ,1.03071 ,1.73262 ,17.00046 
237 ,43.8607 ,1.03255 ,1.73262 ,17.00046 
238 ,44.0525 ,1.03437 ,1.69840 ,16.66468 
239 ,44.2286 ,1.03626 ,1.67444 ,16.42963 
240 ,44.4045 ,1.03800 ,1.69498 ,16.63110 
241 ,44.5968 ,1.03994 ,1.65391 ,16.22816 
242 ,44.7728 ,1.04167 ,1.64707 ,16.16101 
243 ,44.9650 ,1.04352 ,1.64364 ,16.12743 
244 ,45.1410 ,1.04534 ,1.62995 ,15.99311 
245 ,45.3491 ,1.04739 ,1.60600 ,15.75807 
246 ,45.5572 ,1.04940 ,1.60942 ,15.79164 
247 ,45.7493 ,1.05145 ,1.57520 ,15.45586 
248 ,45.9413 ,1.05336 ,1.57862 ,15.48944 
249 ,46.1333 ,1.05520 ,1.55809 ,15.28797 
250 ,46.3254 ,1.05711 ,1.53413 ,15.05292 
251 ,46.5011 ,1.05893 ,1.53071 ,15.01934 
252 ,46.6776 ,1.06071 ,1.53756 ,15.08650 
253 ,46.8696 ,1.06265 ,1.48622 ,14.58283 
254 ,47.0458 ,1.06437 ,1.49649 ,14.68356 
255 ,47.2538 ,1.06646 ,1.46911 ,14.41493 
256 ,47.4620 ,1.06855 ,1.47596 ,14.48209 
257 ,47.6701 ,1.07060 ,1.43831 ,14.11273 
258 ,47.8781 ,1.07264 ,1.44174 ,14.14631 
259 ,48.0703 ,1.07461 ,1.40409 ,13.77695 
260 ,48.2463 ,1.07642 ,1.39725 ,13.70979 
261 ,48.4384 ,1.07826 ,1.39725 ,13.70979 
262 ,48.6141 ,1.08008 ,1.38014 ,13.54190 
263 ,48.8062 ,1.08191 ,1.36645 ,13.40759 
264 ,48.9982 ,1.08390 ,1.36303 ,13.37401 
265 ,49.1746 ,1.08565 ,1.34591 ,13.20612 
266 ,49.3827 ,1.08764 ,1.32880 ,13.03822 
267 ,49.5747 ,1.08961 ,1.32196 ,12.97107 
268 ,49.7508 ,1.09142 ,1.30143 ,12.76960 
269 ,49.9268 ,1.09320 ,1.28774 ,12.63528 
270 ,50.1028 ,1.09496 ,1.29116 ,12.66886 
271 ,50.2946 ,1.09680 ,1.26378 ,12.40024 
272 ,50.4869 ,1.09871 ,1.25694 ,12.33308 
273 ,50.6791 ,1.10073 ,1.24325 ,12.19877 
274 ,50.8551 ,1.10244 ,1.24667 ,12.23235 
275 ,51.0793 ,1.10451 ,1.21587 ,11.93014 
276 ,51.2553 ,1.10649 ,1.21587 ,11.93014 
277 ,51.4312 ,1.10821 ,1.18507 ,11.62794 
278 ,51.6235 ,1.11018 ,1.17138 ,11.49362 
279 ,51.7993 ,1.11195 ,1.17481 ,11.52720 
280 ,51.9757 ,1.11365 ,1.16796 ,11.46004 
281 ,52.1679 ,1.11563 ,1.13032 ,11.09068 
282 ,52.3439 ,1.11735 ,1.12347 ,11.02353 
283 ,52.5199 ,1.11913 ,1.12005 ,10.98995 
284 ,52.6960 ,1.12089 ,1.11663 ,10.95637 
285 ,52.8878 ,1.12281 ,1.08241 ,10.62059 
286 ,53.0802 ,1.12466 ,1.09952 ,10.78848 
287 ,53.2725 ,1.12662 ,1.06187 ,10.41912 
288 ,53.4483 ,1.12841 ,1.05503 ,10.35196 
289 ,53.6564 ,1.13041 ,1.05161 ,10.31838 
290 ,53.8323 ,1.13223 ,1.03792 ,10.18407 
291 ,54.0086 ,1.13396 ,1.00712 ,9.88186 
292 ,54.2165 ,1.13602 ,1.00712 ,9.88186 
293 ,54.3926 ,1.13783 ,1.01054 ,9.91544 
294 ,54.5687 ,1.13960 ,0.96948 ,9.51250 
295 ,54.7448 ,1.14138 ,0.96948 ,9.51250 
296 ,54.9365 ,1.14313 ,0.96263 ,9.44535 
297 ,55.1130 ,1.14500 ,0.94552 ,9.27745 
298 ,55.3050 ,1.14702 ,0.91814 ,9.00883 
299 ,55.4812 ,1.14874 ,0.91472 ,8.97525 
300 ,55.6729 ,1.15061 ,0.90446 ,8.87451 
301 ,55.8494 ,1.15242 ,0.88734 ,8.70662 
302 ,56.0413 ,1.15431 ,0.87708 ,8.60589 
303 ,56.2334 ,1.15615 ,0.87023 ,8.53873 
304 ,56.4255 ,1.15813 ,0.84970 ,8.33726 
305 ,56.6176 ,1.16005 ,0.84970 ,8.33726 
306 ,56.8096 ,1.16202 ,0.83259 ,8.16937 
307 ,57.0018 ,1.16390 ,0.82575 ,8.10221 
308 ,57.1615 ,1.16567 ,0.81206 ,7.96790 
309 ,57.3379 ,1.16731 ,0.80521 ,7.90074 
310 ,57.5300 ,1.16906 ,0.80179 ,7.86717 
311 ,57.7381 ,1.17122 ,0.78126 ,7.66570 
312 ,57.9300 ,1.17319 ,0.75046 ,7.36349 
313 ,58.1221 ,1.17511 ,0.75388 ,7.39707 
314 ,58.3142 ,1.17703 ,0.74019 ,7.26276 
315 ,58.5064 ,1.17896 ,0.71281 ,6.99413 
316 ,58.6985 ,1.18080 ,0.72650 ,7.12844 
317 ,58.8906 ,1.18275 ,0.67859 ,6.65835 
318 ,59.0986 ,1.18483 ,0.68886 ,6.75908 
319 ,59.2903 ,1.18679 ,0.66833 ,6.55761 
320 ,59.4669 ,1.18856 ,0.64437 ,6.32256 
321 ,59.6585 ,1.19044 ,0.65121 ,6.38972 
322 ,59.8184 ,1.19219 ,0.64437 ,6.32256 
323 ,59.9945 ,1.19384 ,0.62726 ,6.15467 
324 ,60.1871 ,1.19563 ,0.60330 ,5.91962 
325 ,60.3788 ,1.19766 ,0.60330 ,5.91962 
326 ,60.5550 ,1.19947 ,0.59304 ,5.81889 
327 ,60.7313 ,1.20124 ,0.56908 ,5.58384 
328 ,60.9074 ,1.20295 ,0.56224 ,5.51668 
329 ,61.0831 ,1.20471 ,0.55197 ,5.41595 
330 ,61.2595 ,1.20649 ,0.54171 ,5.31522 
331 ,61.4354 ,1.20821 ,0.54855 ,5.38237 
332 ,61.6118 ,1.20998 ,0.52459 ,5.14732 
333 ,61.8196 ,1.21202 ,0.51433 ,5.04659 
334 ,61.9960 ,1.21381 ,0.49380 ,4.84512 
335 ,62.1880 ,1.21579 ,0.47668 ,4.67723 
336 ,62.3961 ,1.21772 ,0.48353 ,4.74438 
337 ,62.5880 ,1.21970 ,0.45615 ,4.47576 
338 ,62.7643 ,1.22155 ,0.43220 ,4.24071 
339 ,62.9563 ,1.22349 ,0.43904 ,4.30787 
340 ,63.1484 ,1.22532 ,0.41166 ,4.03924 
341 ,63.3564 ,1.22729 ,0.41851 ,4.10640 
342 ,63.5325 ,1.22922 ,0.40824 ,4.00566 
343 ,63.7246 ,1.23110 ,0.37402 ,3.66988 
344 ,63.9167 ,1.23296 ,0.38429 ,3.77061 
345 ,64.0927 ,1.23477 ,0.37402 ,3.66988 
346 ,64.2847 ,1.23663 ,0.34664 ,3.40125 
347 ,64.4769 ,1.23866 ,0.34322 ,3.36767 
348 ,64.6527 ,1.24038 ,0.32611 ,3.19978 
349 ,64.8450 ,1.24232 ,0.31242 ,3.06547 
350 ,65.0527 ,1.24434 ,0.29873 ,2.93116 
351 ,65.2287 ,1.24622 ,0.28162 ,2.76326 
352 ,65.4049 ,1.24790 ,0.28504 ,2.79684 
353 ,65.5810 ,1.24966 ,0.26109 ,2.56179 
354 ,65.7730 ,1.25157 ,0.25767 ,2.52822 
355 ,65.9495 ,1.25338 ,0.25082 ,2.46106 
356 ,66.1576 ,1.25542 ,0.23713 ,2.32675 
357 ,66.3336 ,1.25717 ,0.22687 ,2.22601 
358 ,66.5255 ,1.25905 ,0.20633 ,2.02454 
359 ,66.7178 ,1.26092 ,0.20976 ,2.05812 
360 ,66.8937 ,1.26283 ,0.20633 ,2.02454 
361 ,67.0859 ,1.26472 ,0.18580 ,1.82307 
362 ,67.2619 ,1.26644 ,0.16869 ,1.65518 
363 ,67.4381 ,1.26825 ,0.16185 ,1.58802 
364 ,67.6458 ,1.27027 ,0.14816 ,1.45371 
365 ,67.8220 ,1.27208 ,0.13789 ,1.35298 
366 ,68.0143 ,1.27395 ,0.14816 ,1.45371 
367 ,68.2224 ,1.27605 ,0.11393 ,1.11793 
368 ,68.4304 ,1.27809 ,0.10025 ,0.98361 
369 ,68.6224 ,1.28010 ,0.07971 ,0.78214 
370 ,68.8145 ,1.28189 ,0.09340 ,0.91646 
371 ,68.9908 ,1.28379 ,0.07287 ,0.71499 
372 ,69.1987 ,1.28575 ,0.06602 ,0.64783 
373 ,69.3909 ,1.28771 ,0.06260 ,0.61425 
374 ,69.5830 ,1.28970 ,0.03522 ,0.34563 
375 ,69.7750 ,1.29154 ,0.04207 ,0.41278 
376 ,69.9672 ,1.29345 ,0.03865 ,0.37920 
377 ,70.1432 ,1.29533 ,0.01127 ,0.11058 
378 ,70.3351 ,1.29714 ,0.01811 ,0.17773 
379 ,70.5110 ,1.29893 ,0.01127 ,0.11058 
380 ,70.6870 ,1.30071 ,-0.00242 ,-0.02373 
381 ,70.8634 ,1.30250 ,-0.02637 ,-0.25878 
382 ,71.0396 ,1.30421 ,-0.04348 ,-0.42667 
383 ,71.2317 ,1.30613 ,-0.04348 ,-0.42667 
384 ,71.4235 ,1.30810 ,-0.06402 ,-0.62814 
385 ,71.5998 ,1.30985 ,-0.07086 ,-0.69530 
386 ,71.7759 ,1.31160 ,-0.06402 ,-0.62814 
387 ,71.9680 ,1.31345 ,-0.06402 ,-0.62814 
388 ,72.1437 ,1.31527 ,-0.09140 ,-0.89677 
389 ,72.3361 ,1.31711 ,-0.09482 ,-0.93035 
390 ,72.5601 ,1.31934 ,-0.11877 ,-1.16540 
391 ,72.7362 ,1.32119 ,-0.11193 ,-1.09824 
392 ,72.9282 ,1.32313 ,-0.12904 ,-1.26613 
393 ,73.1043 ,1.32485 ,-0.14615 ,-1.43402 
394 ,73.3124 ,1.32690 ,-0.14273 ,-1.40045 
395 ,73.5044 ,1.32884 ,-0.16668 ,-1.63549 
396 ,73.7123 ,1.33097 ,-0.16668 ,-1.63549 
397 ,73.9045 ,1.33291 ,-0.19748 ,-1.93770 
398 ,74.0807 ,1.33463 ,-0.19748 ,-1.93770 
399 ,74.2566 ,1.33637 ,-0.19064 ,-1.87054 
400 ,74.4486 ,1.33827 ,-0.20775 ,-2.03843 
401 ,74.6570 ,1.34024 ,-0.22486 ,-2.20632 
402 ,74.8489 ,1.34234 ,-0.21459 ,-2.10559 
403 ,75.0250 ,1.34406 ,-0.23855 ,-2.34064 
404 ,75.2170 ,1.34595 ,-0.23513 ,-2.30706 
405 ,75.3932 ,1.34783 ,-0.23170 ,-2.27348 
406 ,75.5694 ,1.34952 ,-0.24881 ,-2.44137 
407 ,75.7775 ,1.35150 ,-0.26593 ,-2.60926 
408 ,75.9851 ,1.35363 ,-0.28646 ,-2.81073 
409 ,76.1776 ,1.35554 ,-0.29330 ,-2.87789 
410 ,76.3853 ,1.35763 ,-0.31041 ,-3.04578 
411 ,76.5618 ,1.35945 ,-0.30357 ,-2.97863 
412 ,76.7377 ,1.36121 ,-0.33437 ,-3.28083 
413 ,76.9135 ,1.36292 ,-0.31726 ,-3.11294 
414 ,77.0899 ,1.36470 ,-0.32068 ,-3.14652 
415 ,77.2660 ,1.36650 ,-0.33437 ,-3.28083 
416 ,77.4260 ,1.36819 ,-0.35490 ,-3.48230 
417 ,77.6180 ,1.36996 ,-0.35148 ,-3.44872 
418 ,77.8101 ,1.37194 ,-0.36175 ,-3.54946 
419 ,77.9863 ,1.37367 ,-0.37544 ,-3.68377 
420 ,78.1943 ,1.37569 ,-0.37886 ,-3.71735 
421 ,78.3706 ,1.37749 ,-0.38228 ,-3.75093 
422 ,78.5461 ,1.37930 ,-0.39939 ,-3.91882 
423 ,78.7226 ,1.38102 ,-0.41308 ,-4.05313 
424 ,78.9306 ,1.38305 ,-0.41650 ,-4.08671 
425 ,79.1067 ,1.38485 ,-0.43019 ,-4.22102 
426 ,79.2828 ,1.38660 ,-0.45414 ,-4.45607 
427 ,79.4748 ,1.38854 ,-0.43703 ,-4.28818 
428 ,79.6505 ,1.39035 ,-0.45072 ,-4.42249 
429 ,79.8271 ,1.39207 ,-0.45757 ,-4.48965 
430 ,80.0192 ,1.39393 ,-0.47810 ,-4.69112 
431 ,80.2111 ,1.39592 ,-0.47810 ,-4.69112 
432 ,80.3868 ,1.39766 ,-0.46783 ,-4.59038 
433 ,80.5634 ,1.39947 ,-0.49863 ,-4.89259 
434 ,80.7712 ,1.40150 ,-0.50206 ,-4.92617 
435 ,80.9635 ,1.40338 ,-0.52259 ,-5.12764 
436 ,81.1554 ,1.40532 ,-0.51917 ,-5.09406 
437 ,81.3474 ,1.40720 ,-0.52259 ,-5.12764 
438 ,81.5395 ,1.40917 ,-0.54997 ,-5.39626 
439 ,81.7478 ,1.41125 ,-0.55339 ,-5.42984 
440 ,81.9395 ,1.41322 ,-0.57050 ,-5.59773 
441 ,82.1318 ,1.41510 ,-0.56023 ,-5.49700 
442 ,82.3239 ,1.41695 ,-0.57392 ,-5.63131 
443 ,82.5161 ,1.41899 ,-0.58077 ,-5.69847 
444 ,82.6920 ,1.42072 ,-0.58077 ,-5.69847 
445 ,82.8679 ,1.42260 ,-0.61499 ,-6.03425 
446 ,83.0442 ,1.42429 ,-0.60472 ,-5.93352 
447 ,83.2359 ,1.42613 ,-0.63552 ,-6.23572 
448 ,83.4119 ,1.42794 ,-0.61841 ,-6.06783 
449 ,83.5880 ,1.42967 ,-0.62868 ,-6.16856 
450 ,83.7641 ,1.43144 ,-0.63552 ,-6.23572 
451 ,83.9565 ,1.43329 ,-0.64579 ,-6.33646 
452 ,84.1806 ,1.43559 ,-0.66632 ,-6.53793 
453 ,84.3889 ,1.43766 ,-0.67659 ,-6.63866 
454 ,84.5808 ,1.43953 ,-0.68343 ,-6.70582 
455 ,84.7569 ,1.44136 ,-0.68685 ,-6.73940 
456 ,84.9330 ,1.44307 ,-0.69027 ,-6.77297 
457 ,85.1088 ,1.44486 ,-0.70054 ,-6.87371 
458 ,85.3012 ,1.44676 ,-0.73134 ,-7.17591 
459 ,85.4933 ,1.44866 ,-0.71081 ,-6.97444 
460 ,85.6853 ,1.45063 ,-0.70396 ,-6.90729 
461 ,85.8615 ,1.45240 ,-0.75530 ,-7.41096 
462 ,86.0534 ,1.45425 ,-0.72792 ,-7.14233 
463 ,86.2291 ,1.45613 ,-0.74503 ,-7.31023 
