Data stamp = , 12-04-2022 16:20:03 808

Calibration Values: 
Slope = , 26.54 , g/V 
Offset Voltage at no contact = , -0.501760 , V 

No , Time , Stage Position ,   Mass , Force 
   ,  (s) ,      (mm)      ,   (g)  , (mN)  

1 ,0.0000 ,0.59949 ,4.99737 ,49.03416 
2 ,0.2184 ,0.59959 ,5.00421 ,49.10132 
3 ,0.5228 ,0.60041 ,5.02474 ,49.30279 
4 ,0.7311 ,0.60180 ,4.99394 ,49.00058 
5 ,0.9230 ,0.60349 ,5.01448 ,49.20205 
6 ,1.1152 ,0.60526 ,5.01448 ,49.20205 
7 ,1.3233 ,0.60733 ,5.00079 ,49.06774 
8 ,1.5312 ,0.60940 ,5.01790 ,49.23563 
9 ,1.7074 ,0.61128 ,5.01106 ,49.16848 
10 ,1.8995 ,0.61316 ,4.98026 ,48.86627 
11 ,2.1233 ,0.61537 ,4.98026 ,48.86627 
12 ,2.3152 ,0.61735 ,4.95972 ,48.66480 
13 ,2.4916 ,0.61916 ,4.94603 ,48.53049 
14 ,2.6677 ,0.62093 ,4.93235 ,48.39618 
15 ,2.8438 ,0.62270 ,4.92208 ,48.29544 
16 ,3.0199 ,0.62446 ,4.88444 ,47.92608 
17 ,3.2281 ,0.62636 ,4.88444 ,47.92608 
18 ,3.4200 ,0.62845 ,4.84679 ,47.55672 
19 ,3.6121 ,0.63033 ,4.85706 ,47.65745 
20 ,3.7882 ,0.63213 ,4.82968 ,47.38883 
21 ,3.9803 ,0.63402 ,4.80230 ,47.12020 
22 ,4.1564 ,0.63584 ,4.78177 ,46.91873 
23 ,4.3321 ,0.63767 ,4.79888 ,47.08662 
24 ,4.5085 ,0.63939 ,4.75782 ,46.68368 
25 ,4.6845 ,0.64106 ,4.75439 ,46.65010 
26 ,4.8607 ,0.64283 ,4.73044 ,46.41506 
27 ,5.0525 ,0.64471 ,4.73386 ,46.44863 
28 ,5.2288 ,0.64650 ,4.71675 ,46.28074 
29 ,5.4209 ,0.64847 ,4.68595 ,45.97854 
30 ,5.6129 ,0.65032 ,4.68253 ,45.94496 
31 ,5.8050 ,0.65218 ,4.66884 ,45.81065 
32 ,5.9971 ,0.65421 ,4.64146 ,45.54202 
33 ,6.2211 ,0.65619 ,4.62435 ,45.37413 
34 ,6.4134 ,0.65835 ,4.61408 ,45.27339 
35 ,6.5893 ,0.66014 ,4.60724 ,45.20624 
36 ,6.7652 ,0.66185 ,4.57302 ,44.87045 
37 ,6.9415 ,0.66364 ,4.55591 ,44.70256 
38 ,7.1176 ,0.66545 ,4.54906 ,44.63541 
39 ,7.2937 ,0.66718 ,4.53537 ,44.50109 
40 ,7.4856 ,0.66900 ,4.50800 ,44.23247 
41 ,7.6617 ,0.67081 ,4.49089 ,44.06457 
42 ,7.8378 ,0.67260 ,4.47720 ,43.93026 
43 ,8.0459 ,0.67469 ,4.45324 ,43.69521 
44 ,8.2221 ,0.67647 ,4.44640 ,43.62806 
45 ,8.4301 ,0.67849 ,4.42929 ,43.46016 
46 ,8.6378 ,0.68049 ,4.41218 ,43.29227 
47 ,8.8140 ,0.68241 ,4.40191 ,43.19154 
48 ,9.0062 ,0.68425 ,4.39164 ,43.09080 
49 ,9.1823 ,0.68606 ,4.37111 ,42.88933 
50 ,9.3585 ,0.68781 ,4.35058 ,42.68786 
51 ,9.5342 ,0.68967 ,4.34031 ,42.58713 
52 ,9.7104 ,0.69129 ,4.34716 ,42.65429 
53 ,9.9027 ,0.69320 ,4.30609 ,42.25135 
54 ,10.1106 ,0.69527 ,4.28556 ,42.04988 
55 ,10.2868 ,0.69706 ,4.28213 ,42.01630 
56 ,10.4788 ,0.69891 ,4.27529 ,41.94914 
57 ,10.7029 ,0.70120 ,4.23422 ,41.54620 
58 ,10.9110 ,0.70329 ,4.22396 ,41.44547 
59 ,11.1031 ,0.70521 ,4.20000 ,41.21042 
60 ,11.2788 ,0.70700 ,4.18289 ,41.04253 
61 ,11.4713 ,0.70879 ,4.18631 ,41.07611 
62 ,11.6793 ,0.71092 ,4.16236 ,40.84106 
63 ,11.8711 ,0.71280 ,4.14525 ,40.67317 
64 ,12.0637 ,0.71480 ,4.12814 ,40.50527 
65 ,12.2399 ,0.71665 ,4.11445 ,40.37096 
66 ,12.4316 ,0.71846 ,4.10418 ,40.27023 
67 ,12.6237 ,0.72043 ,4.07680 ,40.00160 
68 ,12.8155 ,0.72235 ,4.07680 ,40.00160 
69 ,12.9914 ,0.72410 ,4.05627 ,39.80013 
70 ,13.1835 ,0.72595 ,4.03232 ,39.56508 
71 ,13.3596 ,0.72777 ,4.02205 ,39.46435 
72 ,13.5360 ,0.72959 ,4.01520 ,39.39719 
73 ,13.7602 ,0.73169 ,3.99125 ,39.16214 
74 ,13.9362 ,0.73356 ,3.98098 ,39.06141 
75 ,14.1282 ,0.73548 ,3.97072 ,38.96067 
76 ,14.3203 ,0.73739 ,3.93650 ,38.62489 
77 ,14.4965 ,0.73918 ,3.93650 ,38.62489 
78 ,14.6724 ,0.74090 ,3.93307 ,38.59131 
79 ,14.8487 ,0.74271 ,3.89201 ,38.18837 
80 ,15.0566 ,0.74468 ,3.89201 ,38.18837 
81 ,15.2329 ,0.74657 ,3.86805 ,37.95332 
82 ,15.4408 ,0.74854 ,3.85779 ,37.85259 
83 ,15.6171 ,0.75034 ,3.84410 ,37.71828 
84 ,15.7931 ,0.75214 ,3.82699 ,37.55038 
85 ,15.9848 ,0.75398 ,3.80987 ,37.38249 
86 ,16.1769 ,0.75596 ,3.79619 ,37.24818 
87 ,16.3693 ,0.75778 ,3.76539 ,36.94597 
88 ,16.5614 ,0.75982 ,3.75512 ,36.84524 
89 ,16.7534 ,0.76165 ,3.75512 ,36.84524 
90 ,16.9455 ,0.76360 ,3.72432 ,36.54303 
91 ,17.1376 ,0.76555 ,3.73459 ,36.64377 
92 ,17.3456 ,0.76759 ,3.69010 ,36.20725 
93 ,17.5378 ,0.76955 ,3.67641 ,36.07294 
94 ,17.7140 ,0.77135 ,3.66614 ,35.97220 
95 ,17.8900 ,0.77307 ,3.64903 ,35.80431 
96 ,18.0660 ,0.77485 ,3.62508 ,35.56926 
97 ,18.2582 ,0.77669 ,3.62508 ,35.56926 
98 ,18.4502 ,0.77864 ,3.61481 ,35.46853 
99 ,18.6423 ,0.78064 ,3.58743 ,35.19990 
100 ,18.8183 ,0.78236 ,3.58401 ,35.16632 
101 ,19.0263 ,0.78434 ,3.54979 ,34.83054 
102 ,19.2025 ,0.78621 ,3.54295 ,34.76338 
103 ,19.3781 ,0.78794 ,3.53268 ,34.66265 
104 ,19.5544 ,0.78967 ,3.53268 ,34.66265 
105 ,19.7787 ,0.79183 ,3.49161 ,34.25971 
106 ,19.9546 ,0.79373 ,3.49161 ,34.25971 
107 ,20.1465 ,0.79555 ,3.46081 ,33.95751 
108 ,20.3227 ,0.79741 ,3.44028 ,33.75604 
109 ,20.4829 ,0.79911 ,3.45055 ,33.85677 
110 ,20.6590 ,0.80078 ,3.43344 ,33.68888 
111 ,20.8350 ,0.80252 ,3.42317 ,33.58814 
112 ,21.0271 ,0.80440 ,3.39237 ,33.28594 
113 ,21.2192 ,0.80638 ,3.38895 ,33.25236 
114 ,21.4115 ,0.80824 ,3.37526 ,33.11805 
115 ,21.6034 ,0.81012 ,3.35473 ,32.91658 
116 ,21.8116 ,0.81224 ,3.33077 ,32.68153 
117 ,21.9874 ,0.81405 ,3.32051 ,32.58080 
118 ,22.1637 ,0.81579 ,3.29997 ,32.37933 
119 ,22.3395 ,0.81757 ,3.29997 ,32.37933 
120 ,22.5316 ,0.81950 ,3.27602 ,32.14428 
121 ,22.7238 ,0.82139 ,3.25891 ,31.97639 
122 ,22.9161 ,0.82337 ,3.23837 ,31.77492 
123 ,23.0918 ,0.82508 ,3.24180 ,31.80849 
124 ,23.2681 ,0.82681 ,3.21784 ,31.57345 
125 ,23.4601 ,0.82875 ,3.20415 ,31.43913 
126 ,23.6359 ,0.83054 ,3.20757 ,31.47271 
127 ,23.8124 ,0.83231 ,3.18362 ,31.23766 
128 ,24.0043 ,0.83426 ,3.15966 ,31.00262 
129 ,24.1804 ,0.83595 ,3.16309 ,31.03619 
130 ,24.3724 ,0.83791 ,3.13571 ,30.76757 
131 ,24.5483 ,0.83963 ,3.12202 ,30.63325 
132 ,24.7243 ,0.84137 ,3.09122 ,30.33105 
133 ,24.9166 ,0.84321 ,3.08780 ,30.29747 
134 ,25.1089 ,0.84527 ,3.06726 ,30.09600 
135 ,25.2849 ,0.84701 ,3.05700 ,29.99527 
136 ,25.4769 ,0.84891 ,3.05700 ,29.99527 
137 ,25.6530 ,0.85075 ,3.01935 ,29.62590 
138 ,25.8451 ,0.85260 ,3.02620 ,29.69306 
139 ,26.0372 ,0.85452 ,3.01935 ,29.62590 
140 ,26.2292 ,0.85646 ,2.98171 ,29.25654 
141 ,26.4053 ,0.85824 ,2.97144 ,29.15581 
142 ,26.5973 ,0.86012 ,2.97829 ,29.22297 
143 ,26.7896 ,0.86197 ,2.94407 ,28.88718 
144 ,26.9816 ,0.86391 ,2.94064 ,28.85360 
145 ,27.1737 ,0.86589 ,2.92353 ,28.68571 
146 ,27.3657 ,0.86779 ,2.89273 ,28.38351 
147 ,27.6855 ,0.87035 ,2.88931 ,28.34993 
148 ,27.8775 ,0.87281 ,2.86878 ,28.14846 
149 ,28.0540 ,0.87466 ,2.86193 ,28.08130 
150 ,28.2460 ,0.87659 ,2.82771 ,27.74552 
151 ,28.4222 ,0.87837 ,2.81060 ,27.57763 
152 ,28.6141 ,0.88023 ,2.80718 ,27.54405 
153 ,28.8064 ,0.88219 ,2.78665 ,27.34258 
154 ,28.9980 ,0.88412 ,2.79349 ,27.40974 
155 ,29.1905 ,0.88596 ,2.76611 ,27.14111 
156 ,29.3825 ,0.88790 ,2.74900 ,26.97322 
157 ,29.5587 ,0.88975 ,2.74558 ,26.93964 
158 ,29.7666 ,0.89172 ,2.71820 ,26.67101 
159 ,29.9428 ,0.89357 ,2.70794 ,26.57028 
160 ,30.1508 ,0.89562 ,2.69083 ,26.40239 
161 ,30.3430 ,0.89749 ,2.69083 ,26.40239 
162 ,30.5187 ,0.89933 ,2.68056 ,26.30165 
163 ,30.7111 ,0.90125 ,2.63949 ,25.89871 
164 ,30.9191 ,0.90317 ,2.63265 ,25.83156 
165 ,31.1109 ,0.90522 ,2.61212 ,25.63009 
166 ,31.2874 ,0.90705 ,2.59843 ,25.49577 
167 ,31.4794 ,0.90893 ,2.61554 ,25.66367 
168 ,31.6554 ,0.91067 ,2.57789 ,25.29430 
169 ,31.8316 ,0.91244 ,2.55736 ,25.09283 
170 ,32.0397 ,0.91444 ,2.56421 ,25.15999 
171 ,32.2317 ,0.91639 ,2.51972 ,24.72347 
172 ,32.3918 ,0.91816 ,2.51972 ,24.72347 
173 ,32.5679 ,0.91982 ,2.50261 ,24.55558 
174 ,32.7600 ,0.92167 ,2.50603 ,24.58916 
175 ,32.9520 ,0.92365 ,2.47865 ,24.32053 
176 ,33.1281 ,0.92540 ,2.46154 ,24.15264 
177 ,33.3040 ,0.92730 ,2.46154 ,24.15264 
178 ,33.4803 ,0.92894 ,2.43416 ,23.88402 
179 ,33.6885 ,0.93085 ,2.42048 ,23.74970 
180 ,33.8642 ,0.93275 ,2.42048 ,23.74970 
181 ,34.0562 ,0.93467 ,2.41021 ,23.64897 
182 ,34.2326 ,0.93645 ,2.37941 ,23.34676 
183 ,34.4243 ,0.93832 ,2.37599 ,23.31318 
184 ,34.6167 ,0.94027 ,2.35545 ,23.11171 
185 ,34.7928 ,0.94209 ,2.34519 ,23.01098 
186 ,35.0008 ,0.94400 ,2.33492 ,22.91024 
187 ,35.1768 ,0.94585 ,2.32808 ,22.84309 
188 ,35.3687 ,0.94772 ,2.28701 ,22.44015 
189 ,35.5610 ,0.94970 ,2.29385 ,22.50731 
190 ,35.7369 ,0.95152 ,2.26648 ,22.23868 
191 ,35.9290 ,0.95336 ,2.25963 ,22.17152 
192 ,36.1053 ,0.95519 ,2.24252 ,22.00363 
193 ,36.3293 ,0.95726 ,2.21515 ,21.73500 
194 ,36.5210 ,0.95925 ,2.22199 ,21.80216 
195 ,36.7134 ,0.96123 ,2.19119 ,21.49996 
196 ,36.8895 ,0.96302 ,2.17066 ,21.29849 
197 ,37.0656 ,0.96477 ,2.16723 ,21.26491 
198 ,37.2577 ,0.96665 ,2.15697 ,21.16417 
199 ,37.4498 ,0.96862 ,2.12959 ,20.89555 
200 ,37.6418 ,0.97048 ,2.12617 ,20.86197 
201 ,37.8500 ,0.97257 ,2.10564 ,20.66050 
202 ,38.0260 ,0.97435 ,2.10906 ,20.69408 
203 ,38.2022 ,0.97614 ,2.09537 ,20.55976 
204 ,38.3782 ,0.97790 ,2.07141 ,20.32472 
205 ,38.5540 ,0.97962 ,2.06457 ,20.25756 
206 ,38.7304 ,0.98145 ,2.03035 ,19.92178 
207 ,38.9222 ,0.98335 ,2.03719 ,19.98893 
208 ,39.0984 ,0.98507 ,2.01666 ,19.78746 
209 ,39.2745 ,0.98685 ,1.99270 ,19.55241 
210 ,39.4505 ,0.98860 ,1.97902 ,19.41810 
211 ,39.6263 ,0.99038 ,1.98586 ,19.48526 
212 ,39.8184 ,0.99220 ,1.95164 ,19.14948 
213 ,40.0108 ,0.99417 ,1.94822 ,19.11590 
214 ,40.1869 ,0.99595 ,1.94479 ,19.08232 
215 ,40.3790 ,0.99780 ,1.91399 ,18.78011 
216 ,40.5710 ,0.99972 ,1.90715 ,18.71296 
217 ,40.7631 ,1.00163 ,1.90373 ,18.67938 
218 ,40.9392 ,1.00347 ,1.89004 ,18.54507 
219 ,41.1153 ,1.00522 ,1.85924 ,18.24286 
220 ,41.3232 ,1.00716 ,1.86608 ,18.31002 
221 ,41.4995 ,1.00912 ,1.84555 ,18.10855 
222 ,41.6915 ,1.01096 ,1.82160 ,17.87350 
223 ,41.8833 ,1.01284 ,1.82844 ,17.94066 
224 ,42.0756 ,1.01487 ,1.79422 ,17.60487 
225 ,42.2678 ,1.01669 ,1.78737 ,17.53772 
226 ,42.4596 ,1.01860 ,1.76342 ,17.30267 
227 ,42.6355 ,1.02049 ,1.76342 ,17.30267 
228 ,42.8276 ,1.02234 ,1.73946 ,17.06762 
229 ,43.0043 ,1.02414 ,1.74631 ,17.13478 
230 ,43.1961 ,1.02608 ,1.70866 ,16.76542 
231 ,43.3722 ,1.02780 ,1.70866 ,16.76542 
232 ,43.5479 ,1.02957 ,1.69155 ,16.59752 
233 ,43.7239 ,1.03138 ,1.67786 ,16.46321 
234 ,43.9000 ,1.03309 ,1.67786 ,16.46321 
235 ,44.0921 ,1.03494 ,1.64707 ,16.16101 
236 ,44.2682 ,1.03673 ,1.63680 ,16.06027 
237 ,44.4604 ,1.03865 ,1.63680 ,16.06027 
238 ,44.6688 ,1.04081 ,1.60942 ,15.79164 
239 ,44.8604 ,1.04260 ,1.58204 ,15.52302 
240 ,45.0207 ,1.04438 ,1.59231 ,15.62375 
241 ,45.1970 ,1.04606 ,1.56836 ,15.38871 
242 ,45.3890 ,1.04791 ,1.56493 ,15.35513 
243 ,45.5811 ,1.04985 ,1.54440 ,15.15366 
244 ,45.7571 ,1.05160 ,1.52387 ,14.95219 
245 ,45.9492 ,1.05362 ,1.52045 ,14.91861 
246 ,46.1093 ,1.05526 ,1.51360 ,14.85145 
247 ,46.3174 ,1.05714 ,1.49649 ,14.68356 
248 ,46.4934 ,1.05906 ,1.49649 ,14.68356 
249 ,46.6696 ,1.06075 ,1.47253 ,14.44851 
250 ,46.8616 ,1.06270 ,1.46569 ,14.38136 
251 ,47.0377 ,1.06448 ,1.44516 ,14.17989 
252 ,47.2298 ,1.06632 ,1.44516 ,14.17989 
253 ,47.4219 ,1.06833 ,1.43147 ,14.04557 
254 ,47.6138 ,1.07018 ,1.39725 ,13.70979 
255 ,47.7899 ,1.07197 ,1.39040 ,13.64263 
256 ,47.9821 ,1.07390 ,1.38014 ,13.54190 
257 ,48.1737 ,1.07573 ,1.36303 ,13.37401 
258 ,48.3504 ,1.07756 ,1.34934 ,13.23969 
259 ,48.5419 ,1.07951 ,1.34249 ,13.17254 
260 ,48.7342 ,1.08139 ,1.32196 ,12.97107 
261 ,48.9264 ,1.08324 ,1.31854 ,12.93749 
262 ,49.1024 ,1.08515 ,1.30827 ,12.83675 
263 ,49.2943 ,1.08706 ,1.28774 ,12.63528 
264 ,49.4706 ,1.08878 ,1.27747 ,12.53455 
265 ,49.6468 ,1.09053 ,1.27405 ,12.50097 
266 ,49.8547 ,1.09258 ,1.24667 ,12.23235 
267 ,50.0469 ,1.09449 ,1.23298 ,12.09803 
268 ,50.2230 ,1.09629 ,1.23298 ,12.09803 
269 ,50.4152 ,1.09812 ,1.20561 ,11.82941 
270 ,50.6072 ,1.10019 ,1.20218 ,11.79583 
271 ,50.8154 ,1.10213 ,1.17481 ,11.52720 
272 ,50.9913 ,1.10398 ,1.16796 ,11.46004 
273 ,51.1835 ,1.10592 ,1.15085 ,11.29215 
274 ,51.3591 ,1.10774 ,1.13716 ,11.15784 
275 ,51.5354 ,1.10940 ,1.12690 ,11.05710 
276 ,51.7434 ,1.11149 ,1.10636 ,10.85563 
277 ,51.9357 ,1.11335 ,1.09610 ,10.75490 
278 ,52.1119 ,1.11518 ,1.09610 ,10.75490 
279 ,52.3038 ,1.11707 ,1.06872 ,10.48627 
280 ,52.4800 ,1.11885 ,1.05503 ,10.35196 
281 ,52.6559 ,1.12057 ,1.05161 ,10.31838 
282 ,52.8321 ,1.12238 ,1.04476 ,10.25123 
283 ,53.0241 ,1.12431 ,1.02081 ,10.01618 
284 ,53.2163 ,1.12618 ,1.00712 ,9.88186 
285 ,53.3924 ,1.12800 ,1.00370 ,9.84829 
286 ,53.5844 ,1.12996 ,0.97290 ,9.54608 
287 ,53.7605 ,1.13169 ,0.95579 ,9.37819 
288 ,53.9525 ,1.13354 ,0.95921 ,9.41177 
289 ,54.1285 ,1.13530 ,0.94894 ,9.31103 
290 ,54.3043 ,1.13707 ,0.93183 ,9.14314 
291 ,54.4807 ,1.13886 ,0.92157 ,9.04241 
292 ,54.6887 ,1.14079 ,0.92841 ,9.10956 
293 ,54.8807 ,1.14281 ,0.89761 ,8.80736 
294 ,55.0570 ,1.14462 ,0.88392 ,8.67305 
295 ,55.2489 ,1.14640 ,0.88734 ,8.70662 
296 ,55.4412 ,1.14839 ,0.85997 ,8.43800 
297 ,55.6170 ,1.15019 ,0.84970 ,8.33726 
298 ,55.7934 ,1.15196 ,0.82917 ,8.13579 
299 ,55.9854 ,1.15380 ,0.82575 ,8.10221 
300 ,56.1932 ,1.15591 ,0.82917 ,8.13579 
301 ,56.3692 ,1.15771 ,0.81890 ,8.03506 
302 ,56.5296 ,1.15943 ,0.80179 ,7.86717 
303 ,56.7054 ,1.16112 ,0.78468 ,7.69927 
304 ,56.8978 ,1.16294 ,0.76757 ,7.53138 
305 ,57.0899 ,1.16488 ,0.75388 ,7.39707 
306 ,57.2820 ,1.16683 ,0.72992 ,7.16202 
307 ,57.4580 ,1.16864 ,0.73335 ,7.19560 
308 ,57.6341 ,1.17036 ,0.73677 ,7.22918 
309 ,57.8096 ,1.17224 ,0.71281 ,6.99413 
310 ,57.9860 ,1.17387 ,0.69228 ,6.79266 
311 ,58.1622 ,1.17565 ,0.68544 ,6.72550 
312 ,58.3382 ,1.17743 ,0.66490 ,6.52403 
313 ,58.5302 ,1.17932 ,0.66833 ,6.55761 
314 ,58.7065 ,1.18110 ,0.65806 ,6.45688 
315 ,58.9146 ,1.18305 ,0.65121 ,6.38972 
316 ,59.1067 ,1.18510 ,0.62384 ,6.12109 
317 ,59.2987 ,1.18696 ,0.64095 ,6.28899 
318 ,59.4908 ,1.18886 ,0.60673 ,5.95320 
319 ,59.6830 ,1.19081 ,0.58619 ,5.75173 
320 ,59.8747 ,1.19273 ,0.57593 ,5.65100 
321 ,60.0670 ,1.19471 ,0.56566 ,5.55026 
322 ,60.2590 ,1.19660 ,0.55539 ,5.44953 
323 ,60.4349 ,1.19836 ,0.54513 ,5.34879 
324 ,60.6112 ,1.20011 ,0.53828 ,5.28164 
325 ,60.7873 ,1.20192 ,0.52117 ,5.11375 
326 ,60.9950 ,1.20385 ,0.49722 ,4.87870 
327 ,61.1875 ,1.20581 ,0.48011 ,4.71081 
328 ,61.3796 ,1.20782 ,0.48011 ,4.71081 
329 ,61.5395 ,1.20952 ,0.48011 ,4.71081 
330 ,61.7158 ,1.21117 ,0.46300 ,4.54291 
331 ,61.9077 ,1.21304 ,0.43562 ,4.27429 
332 ,62.0838 ,1.21481 ,0.42877 ,4.20713 
333 ,62.2600 ,1.21662 ,0.42877 ,4.20713 
334 ,62.4521 ,1.21855 ,0.42877 ,4.20713 
335 ,62.6441 ,1.22040 ,0.40482 ,3.97208 
336 ,62.8361 ,1.22242 ,0.39113 ,3.83777 
337 ,63.0122 ,1.22422 ,0.36375 ,3.56914 
338 ,63.1882 ,1.22588 ,0.36375 ,3.56914 
339 ,63.3801 ,1.22782 ,0.36375 ,3.56914 
340 ,63.5725 ,1.22962 ,0.36375 ,3.56914 
341 ,63.7484 ,1.23147 ,0.32611 ,3.19978 
342 ,63.9404 ,1.23340 ,0.32611 ,3.19978 
343 ,64.1324 ,1.23522 ,0.32611 ,3.19978 
344 ,64.3247 ,1.23723 ,0.29873 ,2.93116 
345 ,64.5168 ,1.23913 ,0.29873 ,2.93116 
346 ,64.7410 ,1.24118 ,0.27135 ,2.66253 
347 ,64.9330 ,1.24328 ,0.25082 ,2.46106 
348 ,65.1249 ,1.24519 ,0.25424 ,2.49464 
349 ,65.3008 ,1.24697 ,0.24398 ,2.39390 
350 ,65.4773 ,1.24879 ,0.25082 ,2.46106 
351 ,65.6692 ,1.25061 ,0.22344 ,2.19243 
352 ,65.8453 ,1.25242 ,0.20633 ,2.02454 
353 ,66.0215 ,1.25423 ,0.20976 ,2.05812 
354 ,66.2296 ,1.25621 ,0.18238 ,1.78949 
355 ,66.4216 ,1.25816 ,0.18238 ,1.78949 
356 ,66.6136 ,1.26010 ,0.15500 ,1.52087 
357 ,66.7898 ,1.26189 ,0.14473 ,1.42013 
358 ,66.9818 ,1.26377 ,0.16869 ,1.65518 
359 ,67.1741 ,1.26574 ,0.13447 ,1.31940 
360 ,67.3496 ,1.26764 ,0.12762 ,1.25224 
361 ,67.5261 ,1.26927 ,0.11393 ,1.11793 
362 ,67.7183 ,1.27121 ,0.13105 ,1.28582 
363 ,67.8944 ,1.27293 ,0.08998 ,0.88288 
364 ,68.0864 ,1.27488 ,0.08314 ,0.81572 
365 ,68.2785 ,1.27667 ,0.07629 ,0.74857 
366 ,68.4705 ,1.27863 ,0.05576 ,0.54710 
367 ,68.6466 ,1.28046 ,0.05234 ,0.51352 
368 ,68.8228 ,1.28220 ,0.05576 ,0.54710 
369 ,69.0151 ,1.28408 ,0.02154 ,0.21131 
370 ,69.2071 ,1.28610 ,0.02838 ,0.27847 
371 ,69.3990 ,1.28788 ,0.01811 ,0.17773 
372 ,69.5751 ,1.28976 ,-0.00242 ,-0.02373 
373 ,69.7511 ,1.29148 ,-0.02295 ,-0.22520 
374 ,69.9270 ,1.29327 ,-0.01269 ,-0.12447 
375 ,70.1192 ,1.29517 ,-0.01611 ,-0.15805 
376 ,70.3112 ,1.29709 ,-0.04006 ,-0.39310 
377 ,70.4874 ,1.29887 ,-0.04691 ,-0.46025 
378 ,70.6794 ,1.30072 ,-0.05033 ,-0.49383 
379 ,70.8555 ,1.30252 ,-0.06744 ,-0.66172 
380 ,71.0315 ,1.30429 ,-0.08455 ,-0.82961 
381 ,71.2077 ,1.30607 ,-0.09140 ,-0.89677 
382 ,71.3996 ,1.30797 ,-0.08797 ,-0.86319 
383 ,71.5915 ,1.30982 ,-0.09824 ,-0.96393 
384 ,71.7680 ,1.31165 ,-0.10508 ,-1.03108 
385 ,71.9917 ,1.31368 ,-0.12219 ,-1.19898 
386 ,72.1680 ,1.31568 ,-0.13246 ,-1.29971 
387 ,72.3442 ,1.31738 ,-0.12904 ,-1.26613 
388 ,72.5358 ,1.31935 ,-0.14615 ,-1.43402 
389 ,72.7282 ,1.32123 ,-0.15642 ,-1.53476 
390 ,72.9042 ,1.32301 ,-0.15642 ,-1.53476 
391 ,73.0804 ,1.32476 ,-0.17353 ,-1.70265 
392 ,73.2726 ,1.32665 ,-0.18722 ,-1.83696 
393 ,73.4641 ,1.32853 ,-0.18722 ,-1.83696 
394 ,73.6403 ,1.33037 ,-0.20090 ,-1.97128 
395 ,73.8323 ,1.33221 ,-0.22144 ,-2.17275 
396 ,74.0087 ,1.33406 ,-0.22486 ,-2.20632 
397 ,74.2171 ,1.33616 ,-0.22486 ,-2.20632 
398 ,74.4090 ,1.33805 ,-0.23855 ,-2.34064 
399 ,74.5850 ,1.33981 ,-0.24881 ,-2.44137 
400 ,74.7767 ,1.34167 ,-0.27961 ,-2.74358 
401 ,74.9530 ,1.34350 ,-0.27961 ,-2.74358 
402 ,75.1449 ,1.34535 ,-0.28304 ,-2.77716 
403 ,75.3370 ,1.34722 ,-0.27961 ,-2.74358 
404 ,75.5294 ,1.34926 ,-0.28988 ,-2.84431 
405 ,75.7375 ,1.35129 ,-0.31384 ,-3.07936 
406 ,75.9294 ,1.35322 ,-0.31726 ,-3.11294 
407 ,76.1052 ,1.35508 ,-0.32752 ,-3.21367 
408 ,76.2976 ,1.35685 ,-0.34121 ,-3.34799 
409 ,76.4738 ,1.35870 ,-0.34121 ,-3.34799 
410 ,76.6659 ,1.36066 ,-0.34806 ,-3.41514 
411 ,76.8420 ,1.36239 ,-0.35490 ,-3.48230 
412 ,77.0341 ,1.36426 ,-0.36517 ,-3.58303 
413 ,77.2102 ,1.36607 ,-0.37201 ,-3.65019 
414 ,77.3702 ,1.36777 ,-0.36859 ,-3.61661 
415 ,77.5784 ,1.36956 ,-0.40966 ,-4.01955 
416 ,77.7384 ,1.37146 ,-0.41308 ,-4.05313 
417 ,77.9303 ,1.37319 ,-0.40623 ,-3.98597 
418 ,78.1066 ,1.37501 ,-0.41308 ,-4.05313 
419 ,78.2987 ,1.37685 ,-0.44388 ,-4.35534 
420 ,78.4907 ,1.37882 ,-0.41650 ,-4.08671 
421 ,78.6829 ,1.38073 ,-0.45414 ,-4.45607 
422 ,78.8590 ,1.38254 ,-0.46783 ,-4.59038 
423 ,79.0666 ,1.38453 ,-0.47810 ,-4.69112 
424 ,79.2431 ,1.38637 ,-0.46099 ,-4.52323 
425 ,79.4511 ,1.38847 ,-0.47126 ,-4.62396 
426 ,79.6272 ,1.39022 ,-0.48837 ,-4.79185 
427 ,79.8193 ,1.39200 ,-0.50206 ,-4.92617 
428 ,79.9954 ,1.39386 ,-0.52601 ,-5.16121 
429 ,80.2035 ,1.39584 ,-0.53970 ,-5.29553 
430 ,80.3956 ,1.39791 ,-0.53285 ,-5.22837 
431 ,80.6037 ,1.39990 ,-0.54312 ,-5.32911 
432 ,80.7957 ,1.40185 ,-0.53285 ,-5.22837 
433 ,80.9718 ,1.40366 ,-0.54997 ,-5.39626 
434 ,81.1477 ,1.40543 ,-0.54997 ,-5.39626 
435 ,81.3400 ,1.40726 ,-0.58761 ,-5.76562 
436 ,81.5160 ,1.40915 ,-0.59103 ,-5.79920 
437 ,81.7241 ,1.41116 ,-0.59103 ,-5.79920 
438 ,81.9162 ,1.41314 ,-0.60130 ,-5.89994 
439 ,82.1083 ,1.41494 ,-0.60814 ,-5.96709 
440 ,82.2999 ,1.41698 ,-0.63210 ,-6.20214 
441 ,82.4764 ,1.41865 ,-0.61841 ,-6.06783 
442 ,82.6525 ,1.42049 ,-0.62868 ,-6.16856 
443 ,82.8606 ,1.42250 ,-0.64579 ,-6.33646 
444 ,83.0366 ,1.42427 ,-0.64921 ,-6.37003 
445 ,83.2288 ,1.42617 ,-0.64921 ,-6.37003 
446 ,83.4048 ,1.42797 ,-0.67316 ,-6.60508 
447 ,83.5969 ,1.42983 ,-0.66974 ,-6.57150 
448 ,83.7889 ,1.43171 ,-0.66974 ,-6.57150 
449 ,83.9649 ,1.43359 ,-0.68343 ,-6.70582 
450 ,84.1572 ,1.43552 ,-0.70054 ,-6.87371 
451 ,84.3491 ,1.43741 ,-0.69712 ,-6.84013 
452 ,84.5411 ,1.43929 ,-0.73134 ,-7.17591 
453 ,84.7492 ,1.44135 ,-0.71423 ,-7.00802 
454 ,84.9414 ,1.44326 ,-0.73818 ,-7.24307 
455 ,85.1177 ,1.44508 ,-0.73818 ,-7.24307 
456 ,85.3097 ,1.44696 ,-0.74845 ,-7.34380 
457 ,85.5017 ,1.44890 ,-0.77583 ,-7.61243 
458 ,85.6777 ,1.45066 ,-0.75872 ,-7.44454 
459 ,85.8540 ,1.45245 ,-0.76214 ,-7.47812 
460 ,86.0459 ,1.45433 ,-0.77925 ,-7.64601 
461 ,86.2381 ,1.45623 ,-0.77583 ,-7.61243 
462 ,86.4142 ,1.45807 ,-0.79294 ,-7.78032 
463 ,86.5902 ,1.45984 ,-0.79294 ,-7.78032 
