Data stamp = , 12-04-2022 19:09:39 493

Calibration Values: 
Slope = , 26.54 , g/V 
Offset Voltage at no contact = , -0.501760 , V 

No , Time , Stage Position ,   Mass , Force 
   ,  (s) ,      (mm)      ,   (g)  , (mN)  

1 ,0.0000 ,0.54935 ,5.40118 ,52.99640 
2 ,0.2290 ,0.54945 ,5.42172 ,53.19787 
3 ,0.5330 ,0.55030 ,5.40460 ,53.02998 
4 ,0.7089 ,0.55161 ,5.40803 ,53.06356 
5 ,0.8851 ,0.55303 ,5.41487 ,53.13072 
6 ,1.0776 ,0.55486 ,5.40803 ,53.06356 
7 ,1.2696 ,0.55684 ,5.40118 ,52.99640 
8 ,1.4778 ,0.55872 ,5.39434 ,52.92925 
9 ,1.6539 ,0.56063 ,5.38749 ,52.86209 
10 ,1.8781 ,0.56289 ,5.38065 ,52.79493 
11 ,2.0700 ,0.56474 ,5.37381 ,52.72778 
12 ,2.2458 ,0.56658 ,5.35669 ,52.55988 
13 ,2.4383 ,0.56845 ,5.33274 ,52.32484 
14 ,2.6303 ,0.57040 ,5.32932 ,52.29126 
15 ,2.8224 ,0.57237 ,5.31563 ,52.15694 
16 ,2.9824 ,0.57407 ,5.28483 ,51.85474 
17 ,3.1742 ,0.57581 ,5.26087 ,51.61969 
18 ,3.3342 ,0.57754 ,5.26772 ,51.68685 
19 ,3.5107 ,0.57922 ,5.25403 ,51.55254 
20 ,3.6865 ,0.58095 ,5.23692 ,51.38464 
21 ,3.8628 ,0.58273 ,5.23007 ,51.31749 
22 ,4.0388 ,0.58451 ,5.20954 ,51.11602 
23 ,4.2150 ,0.58623 ,5.17874 ,50.81381 
24 ,4.3908 ,0.58807 ,5.17532 ,50.78023 
25 ,4.5672 ,0.58981 ,5.17190 ,50.74666 
26 ,4.7589 ,0.59174 ,5.14794 ,50.51161 
27 ,4.9350 ,0.59343 ,5.11372 ,50.17583 
28 ,5.1114 ,0.59522 ,5.11372 ,50.17583 
29 ,5.3035 ,0.59710 ,5.09319 ,49.97436 
30 ,5.4951 ,0.59903 ,5.07608 ,49.80646 
31 ,5.6716 ,0.60079 ,5.05554 ,49.60499 
32 ,5.8636 ,0.60268 ,5.04870 ,49.53784 
33 ,6.0398 ,0.60451 ,5.01790 ,49.23563 
34 ,6.2479 ,0.60652 ,5.01448 ,49.20205 
35 ,6.4237 ,0.60834 ,5.00421 ,49.10132 
36 ,6.6000 ,0.61007 ,4.98026 ,48.86627 
37 ,6.7757 ,0.61188 ,4.95972 ,48.66480 
38 ,6.9521 ,0.61359 ,4.94261 ,48.49691 
39 ,7.1281 ,0.61545 ,4.93235 ,48.39618 
40 ,7.3363 ,0.61744 ,4.91866 ,48.26186 
41 ,7.5122 ,0.61920 ,4.89812 ,48.06039 
42 ,7.6884 ,0.62099 ,4.87759 ,47.85892 
43 ,7.8804 ,0.62287 ,4.86732 ,47.75819 
44 ,8.0566 ,0.62461 ,4.83310 ,47.42240 
45 ,8.2487 ,0.62649 ,4.83995 ,47.48956 
46 ,8.4408 ,0.62843 ,4.81599 ,47.25451 
47 ,8.6485 ,0.63048 ,4.79546 ,47.05304 
48 ,8.8409 ,0.63242 ,4.77493 ,46.85157 
49 ,9.0330 ,0.63444 ,4.75439 ,46.65010 
50 ,9.2411 ,0.63649 ,4.74755 ,46.58295 
51 ,9.4331 ,0.63844 ,4.72017 ,46.31432 
52 ,9.6251 ,0.64030 ,4.72017 ,46.31432 
53 ,9.8013 ,0.64207 ,4.69622 ,46.07927 
54 ,9.9613 ,0.64380 ,4.68595 ,45.97854 
55 ,10.1533 ,0.64561 ,4.67911 ,45.91138 
56 ,10.3294 ,0.64737 ,4.65173 ,45.64275 
57 ,10.5055 ,0.64914 ,4.64488 ,45.57560 
58 ,10.6978 ,0.65100 ,4.61751 ,45.30697 
59 ,10.8736 ,0.65280 ,4.59013 ,45.03835 
60 ,11.0657 ,0.65470 ,4.60724 ,45.20624 
61 ,11.2419 ,0.65651 ,4.57644 ,44.90403 
62 ,11.4340 ,0.65839 ,4.54906 ,44.63541 
63 ,11.6100 ,0.66020 ,4.52511 ,44.40036 
64 ,11.8021 ,0.66205 ,4.52511 ,44.40036 
65 ,11.9939 ,0.66408 ,4.51484 ,44.29962 
66 ,12.1700 ,0.66584 ,4.50457 ,44.19889 
67 ,12.3461 ,0.66752 ,4.47720 ,43.93026 
68 ,12.5382 ,0.66947 ,4.46009 ,43.76237 
69 ,12.7143 ,0.67122 ,4.43955 ,43.56090 
70 ,12.9061 ,0.67314 ,4.43613 ,43.52732 
71 ,13.0826 ,0.67488 ,4.41560 ,43.32585 
72 ,13.2745 ,0.67676 ,4.38480 ,43.02365 
73 ,13.4507 ,0.67857 ,4.38138 ,42.99007 
74 ,13.6268 ,0.68037 ,4.36084 ,42.78860 
75 ,13.8030 ,0.68212 ,4.35742 ,42.75502 
76 ,13.9946 ,0.68405 ,4.31636 ,42.35208 
77 ,14.1711 ,0.68579 ,4.30951 ,42.28492 
78 ,14.3631 ,0.68765 ,4.30609 ,42.25135 
79 ,14.5391 ,0.68951 ,4.29582 ,42.15061 
80 ,14.7152 ,0.69120 ,4.26160 ,41.81483 
81 ,14.9070 ,0.69308 ,4.26160 ,41.81483 
82 ,15.0990 ,0.69502 ,4.23080 ,41.51262 
83 ,15.2752 ,0.69680 ,4.21369 ,41.34473 
84 ,15.4835 ,0.69888 ,4.21711 ,41.37831 
85 ,15.6756 ,0.70073 ,4.19316 ,41.14326 
86 ,15.8676 ,0.70276 ,4.19316 ,41.14326 
87 ,16.0432 ,0.70445 ,4.17947 ,41.00895 
88 ,16.2198 ,0.70626 ,4.14183 ,40.63959 
89 ,16.4117 ,0.70818 ,4.12129 ,40.43812 
90 ,16.6037 ,0.71006 ,4.12129 ,40.43812 
91 ,16.7959 ,0.71191 ,4.10760 ,40.30380 
92 ,16.9721 ,0.71378 ,4.08365 ,40.06876 
93 ,17.1800 ,0.71581 ,4.07338 ,39.96802 
94 ,17.3723 ,0.71774 ,4.04600 ,39.69940 
95 ,17.5641 ,0.71968 ,4.03916 ,39.63224 
96 ,17.7564 ,0.72156 ,4.01863 ,39.43077 
97 ,17.9480 ,0.72341 ,4.00152 ,39.26288 
98 ,18.1245 ,0.72532 ,3.99467 ,39.19572 
99 ,18.3162 ,0.72732 ,3.97072 ,38.96067 
100 ,18.5087 ,0.72901 ,3.94676 ,38.72562 
101 ,18.7167 ,0.73107 ,3.94334 ,38.69205 
102 ,18.9089 ,0.73314 ,3.92965 ,38.55773 
103 ,19.1009 ,0.73510 ,3.92281 ,38.49058 
104 ,19.2768 ,0.73685 ,3.89201 ,38.18837 
105 ,19.4691 ,0.73870 ,3.89201 ,38.18837 
106 ,19.6612 ,0.74066 ,3.88174 ,38.08764 
107 ,19.8372 ,0.74245 ,3.85436 ,37.81901 
108 ,20.0134 ,0.74417 ,3.84067 ,37.68470 
109 ,20.2054 ,0.74611 ,3.82699 ,37.55038 
110 ,20.3811 ,0.74790 ,3.79619 ,37.24818 
111 ,20.5411 ,0.74958 ,3.78934 ,37.18102 
112 ,20.7172 ,0.75124 ,3.77565 ,37.04671 
113 ,20.8933 ,0.75303 ,3.75854 ,36.87882 
114 ,21.0856 ,0.75494 ,3.76539 ,36.94597 
115 ,21.2779 ,0.75687 ,3.74143 ,36.71093 
116 ,21.4695 ,0.75867 ,3.72774 ,36.57661 
117 ,21.6460 ,0.76052 ,3.72090 ,36.50946 
118 ,21.8381 ,0.76245 ,3.68668 ,36.17367 
119 ,22.0140 ,0.76418 ,3.67299 ,36.03936 
120 ,22.1902 ,0.76595 ,3.65930 ,35.90505 
121 ,22.3663 ,0.76767 ,3.65930 ,35.90505 
122 ,22.5420 ,0.76944 ,3.64561 ,35.77073 
123 ,22.7183 ,0.77124 ,3.61481 ,35.46853 
124 ,22.9105 ,0.77315 ,3.61481 ,35.46853 
125 ,23.1026 ,0.77506 ,3.59428 ,35.26706 
126 ,23.2787 ,0.77686 ,3.56690 ,34.99843 
127 ,23.4706 ,0.77868 ,3.56348 ,34.96485 
128 ,23.6466 ,0.78052 ,3.55321 ,34.86412 
129 ,23.8389 ,0.78236 ,3.51899 ,34.52834 
130 ,24.0149 ,0.78418 ,3.51557 ,34.49476 
131 ,24.2071 ,0.78606 ,3.51899 ,34.52834 
132 ,24.3831 ,0.78788 ,3.49846 ,34.32687 
133 ,24.5592 ,0.78959 ,3.46766 ,34.02466 
134 ,24.7349 ,0.79134 ,3.45055 ,33.85677 
135 ,24.9109 ,0.79311 ,3.45055 ,33.85677 
136 ,25.0874 ,0.79488 ,3.43686 ,33.72246 
137 ,25.2634 ,0.79666 ,3.40948 ,33.45383 
138 ,25.4395 ,0.79842 ,3.40606 ,33.42025 
139 ,25.5997 ,0.80013 ,3.37868 ,33.15163 
140 ,25.7756 ,0.80177 ,3.37526 ,33.11805 
141 ,25.9518 ,0.80361 ,3.35473 ,32.91658 
142 ,26.1437 ,0.80542 ,3.35473 ,32.91658 
143 ,26.3360 ,0.80727 ,3.33419 ,32.71511 
144 ,26.5279 ,0.80932 ,3.32735 ,32.64795 
145 ,26.7042 ,0.81104 ,3.32051 ,32.58080 
146 ,26.8959 ,0.81289 ,3.29313 ,32.31217 
147 ,27.2805 ,0.81576 ,3.27259 ,32.11070 
148 ,27.4724 ,0.81874 ,3.24180 ,31.80849 
149 ,27.6644 ,0.82062 ,3.22811 ,31.67418 
150 ,27.8567 ,0.82248 ,3.20757 ,31.47271 
151 ,28.0648 ,0.82463 ,3.20073 ,31.40555 
152 ,28.2568 ,0.82657 ,3.18020 ,31.20409 
153 ,28.4491 ,0.82843 ,3.18020 ,31.20409 
154 ,28.6410 ,0.83041 ,3.16309 ,31.03619 
155 ,28.8171 ,0.83215 ,3.14597 ,30.86830 
156 ,29.0088 ,0.83412 ,3.14255 ,30.83472 
157 ,29.1852 ,0.83585 ,3.13229 ,30.73399 
158 ,29.3933 ,0.83783 ,3.10491 ,30.46536 
159 ,29.5854 ,0.83977 ,3.09464 ,30.36463 
160 ,29.7775 ,0.84168 ,3.08438 ,30.26389 
161 ,29.9536 ,0.84366 ,3.06726 ,30.09600 
162 ,30.1136 ,0.84525 ,3.05015 ,29.92811 
163 ,30.2897 ,0.84691 ,3.04673 ,29.89453 
164 ,30.4816 ,0.84873 ,3.03989 ,29.82737 
165 ,30.6898 ,0.85086 ,3.02278 ,29.65948 
166 ,30.8820 ,0.85279 ,2.97144 ,29.15581 
167 ,31.0579 ,0.85461 ,2.96802 ,29.12223 
168 ,31.2822 ,0.85666 ,2.97144 ,29.15581 
169 ,31.4738 ,0.85876 ,2.94407 ,28.88718 
170 ,31.6503 ,0.86050 ,2.93722 ,28.82003 
171 ,31.8423 ,0.86239 ,2.90985 ,28.55140 
172 ,32.0343 ,0.86435 ,2.90300 ,28.48424 
173 ,32.2102 ,0.86611 ,2.89273 ,28.38351 
174 ,32.3865 ,0.86786 ,2.88589 ,28.31635 
175 ,32.5785 ,0.86981 ,2.85167 ,27.98057 
176 ,32.7707 ,0.87168 ,2.86536 ,28.11488 
177 ,32.9464 ,0.87344 ,2.83456 ,27.81268 
178 ,33.1388 ,0.87532 ,2.81060 ,27.57763 
179 ,33.3310 ,0.87732 ,2.81060 ,27.57763 
180 ,33.5071 ,0.87905 ,2.80718 ,27.54405 
181 ,33.6991 ,0.88089 ,2.76954 ,27.17469 
182 ,33.8750 ,0.88273 ,2.76269 ,27.10753 
183 ,34.0672 ,0.88463 ,2.75243 ,27.00680 
184 ,34.2593 ,0.88657 ,2.72505 ,26.73817 
185 ,34.4349 ,0.88831 ,2.70452 ,26.53670 
186 ,34.6112 ,0.89009 ,2.71820 ,26.67101 
187 ,34.8032 ,0.89204 ,2.68056 ,26.30165 
188 ,34.9796 ,0.89382 ,2.67372 ,26.23450 
189 ,35.1717 ,0.89565 ,2.67372 ,26.23450 
190 ,35.3794 ,0.89761 ,2.63265 ,25.83156 
191 ,35.5556 ,0.89959 ,2.62581 ,25.76440 
192 ,35.7480 ,0.90147 ,2.61896 ,25.69724 
193 ,35.9236 ,0.90325 ,2.60185 ,25.52935 
194 ,36.1158 ,0.90516 ,2.58816 ,25.39504 
195 ,36.2921 ,0.90692 ,2.58816 ,25.39504 
196 ,36.4678 ,0.90867 ,2.57789 ,25.29430 
197 ,36.6443 ,0.91043 ,2.55394 ,25.05926 
198 ,36.8681 ,0.91252 ,2.54025 ,24.92494 
199 ,37.0443 ,0.91438 ,2.51972 ,24.72347 
200 ,37.2205 ,0.91621 ,2.49918 ,24.52200 
201 ,37.3968 ,0.91800 ,2.48892 ,24.42127 
202 ,37.6048 ,0.91998 ,2.47181 ,24.25338 
203 ,37.7968 ,0.92192 ,2.45470 ,24.08549 
204 ,37.9888 ,0.92381 ,2.45127 ,24.05191 
205 ,38.1808 ,0.92575 ,2.42390 ,23.78328 
206 ,38.3570 ,0.92759 ,2.41363 ,23.68255 
207 ,38.5491 ,0.92943 ,2.41363 ,23.68255 
208 ,38.7248 ,0.93132 ,2.38625 ,23.41392 
209 ,38.9173 ,0.93311 ,2.38283 ,23.38034 
210 ,39.1413 ,0.93524 ,2.35545 ,23.11171 
211 ,39.3331 ,0.93737 ,2.35203 ,23.07814 
212 ,39.5095 ,0.93909 ,2.33834 ,22.94382 
213 ,39.7012 ,0.94095 ,2.31097 ,22.67520 
214 ,39.8777 ,0.94278 ,2.30412 ,22.60804 
215 ,40.0696 ,0.94469 ,2.30754 ,22.64162 
216 ,40.2456 ,0.94638 ,2.27674 ,22.33941 
217 ,40.4218 ,0.94818 ,2.25279 ,22.10437 
218 ,40.5980 ,0.94993 ,2.24594 ,22.03721 
219 ,40.7736 ,0.95170 ,2.24937 ,22.07079 
220 ,40.9501 ,0.95343 ,2.23226 ,21.90290 
221 ,41.1257 ,0.95521 ,2.21172 ,21.70143 
222 ,41.3023 ,0.95699 ,2.19461 ,21.53353 
223 ,41.5103 ,0.95893 ,2.19461 ,21.53353 
224 ,41.6863 ,0.96085 ,2.18092 ,21.39922 
225 ,41.8620 ,0.96254 ,2.15012 ,21.09702 
226 ,42.0385 ,0.96435 ,2.13644 ,20.96270 
227 ,42.2465 ,0.96636 ,2.12617 ,20.86197 
228 ,42.4387 ,0.96821 ,2.10906 ,20.69408 
229 ,42.6787 ,0.97051 ,2.09195 ,20.52619 
230 ,42.8545 ,0.97248 ,2.07826 ,20.39187 
231 ,43.0308 ,0.97427 ,2.07826 ,20.39187 
232 ,43.2230 ,0.97618 ,2.04746 ,20.08967 
233 ,43.3992 ,0.97793 ,2.05088 ,20.12325 
234 ,43.5910 ,0.97989 ,2.04061 ,20.02251 
235 ,43.7673 ,0.98165 ,2.02350 ,19.85462 
236 ,43.9749 ,0.98366 ,2.02008 ,19.82104 
237 ,44.1514 ,0.98548 ,2.00297 ,19.65315 
238 ,44.3435 ,0.98732 ,1.98244 ,19.45168 
239 ,44.5355 ,0.98930 ,1.96875 ,19.31737 
240 ,44.7273 ,0.99118 ,1.94137 ,19.04874 
241 ,44.9037 ,0.99300 ,1.92768 ,18.91443 
242 ,45.1117 ,0.99502 ,1.93453 ,18.98158 
243 ,45.3038 ,0.99692 ,1.89004 ,18.54507 
244 ,45.4799 ,0.99876 ,1.87977 ,18.44433 
245 ,45.6720 ,1.00066 ,1.88662 ,18.51149 
246 ,45.8481 ,1.00238 ,1.85582 ,18.20928 
247 ,46.0237 ,1.00415 ,1.83871 ,18.04139 
248 ,46.2003 ,1.00595 ,1.83528 ,18.00781 
249 ,46.4082 ,1.00796 ,1.82844 ,17.94066 
250 ,46.5842 ,1.00975 ,1.80791 ,17.73919 
251 ,46.7765 ,1.01170 ,1.79764 ,17.63845 
252 ,46.9844 ,1.01363 ,1.78395 ,17.50414 
253 ,47.1602 ,1.01552 ,1.77369 ,17.40340 
254 ,47.3367 ,1.01734 ,1.75315 ,17.20193 
255 ,47.5448 ,1.01933 ,1.73946 ,17.06762 
256 ,47.7368 ,1.02128 ,1.73946 ,17.06762 
257 ,47.9287 ,1.02313 ,1.70182 ,16.69826 
258 ,48.1371 ,1.02519 ,1.69840 ,16.66468 
259 ,48.3291 ,1.02730 ,1.66418 ,16.32890 
260 ,48.5209 ,1.02915 ,1.65733 ,16.26174 
261 ,48.6972 ,1.03090 ,1.66075 ,16.29532 
262 ,48.8733 ,1.03271 ,1.64707 ,16.16101 
263 ,49.0495 ,1.03443 ,1.63680 ,16.06027 
264 ,49.2253 ,1.03619 ,1.60942 ,15.79164 
265 ,49.4176 ,1.03814 ,1.61284 ,15.82522 
266 ,49.6253 ,1.04008 ,1.59231 ,15.62375 
267 ,49.8019 ,1.04193 ,1.58547 ,15.55660 
268 ,49.9778 ,1.04374 ,1.57520 ,15.45586 
269 ,50.1538 ,1.04546 ,1.55809 ,15.28797 
270 ,50.3616 ,1.04747 ,1.53071 ,15.01934 
271 ,50.5381 ,1.04932 ,1.52387 ,14.95219 
272 ,50.7301 ,1.05117 ,1.51018 ,14.81787 
273 ,50.9223 ,1.05311 ,1.49991 ,14.71714 
274 ,51.1302 ,1.05517 ,1.47253 ,14.44851 
275 ,51.3384 ,1.05719 ,1.47253 ,14.44851 
276 ,51.5143 ,1.05916 ,1.45200 ,14.24704 
277 ,51.6905 ,1.06079 ,1.44174 ,14.14631 
278 ,51.8665 ,1.06260 ,1.43489 ,14.07915 
279 ,52.0587 ,1.06439 ,1.41778 ,13.91126 
280 ,52.2667 ,1.06657 ,1.39383 ,13.67621 
281 ,52.4428 ,1.06837 ,1.38014 ,13.54190 
282 ,52.6345 ,1.07025 ,1.38356 ,13.57548 
283 ,52.8110 ,1.07203 ,1.36303 ,13.37401 
284 ,53.0030 ,1.07397 ,1.35960 ,13.34043 
285 ,53.1791 ,1.07571 ,1.35960 ,13.34043 
286 ,53.3712 ,1.07756 ,1.31854 ,12.93749 
287 ,53.5472 ,1.07939 ,1.30485 ,12.80318 
288 ,53.7394 ,1.08119 ,1.30143 ,12.76960 
289 ,53.9313 ,1.08323 ,1.28432 ,12.60171 
290 ,54.1235 ,1.08515 ,1.28089 ,12.56813 
291 ,54.3154 ,1.08706 ,1.26378 ,12.40024 
292 ,54.5076 ,1.08890 ,1.25009 ,12.26592 
293 ,54.6835 ,1.09079 ,1.23983 ,12.16519 
294 ,54.8598 ,1.09251 ,1.24325 ,12.19877 
295 ,55.0360 ,1.09423 ,1.22272 ,11.99730 
296 ,55.2120 ,1.09607 ,1.21245 ,11.89656 
297 ,55.4201 ,1.09798 ,1.18850 ,11.66151 
298 ,55.5962 ,1.09992 ,1.18165 ,11.59436 
299 ,55.7721 ,1.10168 ,1.16112 ,11.39289 
300 ,55.9483 ,1.10337 ,1.15770 ,11.35931 
301 ,56.1403 ,1.10525 ,1.14743 ,11.25857 
302 ,56.3485 ,1.10722 ,1.12347 ,11.02353 
303 ,56.5405 ,1.10930 ,1.12005 ,10.98995 
304 ,56.7166 ,1.11105 ,1.10636 ,10.85563 
305 ,56.9087 ,1.11290 ,1.07899 ,10.58701 
306 ,57.1326 ,1.11522 ,1.06530 ,10.45270 
307 ,57.3248 ,1.11714 ,1.06187 ,10.41912 
308 ,57.5011 ,1.11889 ,1.05503 ,10.35196 
309 ,57.6931 ,1.12076 ,1.01396 ,9.94902 
310 ,57.8687 ,1.12260 ,1.01739 ,9.98260 
311 ,58.0451 ,1.12431 ,1.00712 ,9.88186 
312 ,58.2212 ,1.12612 ,1.00712 ,9.88186 
313 ,58.4130 ,1.12805 ,0.97290 ,9.54608 
314 ,58.5894 ,1.12981 ,0.94552 ,9.27745 
315 ,58.7814 ,1.13166 ,0.95579 ,9.37819 
316 ,58.9734 ,1.13354 ,0.93868 ,9.21030 
317 ,59.1657 ,1.13547 ,0.92499 ,9.07598 
318 ,59.3417 ,1.13739 ,0.93183 ,9.14314 
319 ,59.5337 ,1.13924 ,0.91130 ,8.94167 
320 ,59.7258 ,1.14112 ,0.90103 ,8.84094 
321 ,59.9179 ,1.14309 ,0.89077 ,8.74020 
322 ,60.1421 ,1.14525 ,0.87708 ,8.60589 
323 ,60.3502 ,1.14734 ,0.84970 ,8.33726 
324 ,60.5422 ,1.14931 ,0.85312 ,8.37084 
325 ,60.7183 ,1.15108 ,0.83601 ,8.20295 
326 ,60.9104 ,1.15299 ,0.80521 ,7.90074 
327 ,61.1020 ,1.15485 ,0.80179 ,7.86717 
328 ,61.2780 ,1.15666 ,0.80179 ,7.86717 
329 ,61.4544 ,1.15842 ,0.77441 ,7.59854 
330 ,61.6787 ,1.16056 ,0.77784 ,7.63212 
331 ,61.8866 ,1.16266 ,0.75730 ,7.43065 
332 ,62.0787 ,1.16456 ,0.75046 ,7.36349 
333 ,62.2710 ,1.16654 ,0.71281 ,6.99413 
334 ,62.4469 ,1.16836 ,0.70939 ,6.96055 
335 ,62.6231 ,1.17011 ,0.71281 ,6.99413 
336 ,62.8149 ,1.17195 ,0.68886 ,6.75908 
337 ,62.9911 ,1.17392 ,0.67175 ,6.59119 
338 ,63.1669 ,1.17558 ,0.66833 ,6.55761 
339 ,63.3434 ,1.17730 ,0.65806 ,6.45688 
340 ,63.5353 ,1.17922 ,0.64095 ,6.28899 
341 ,63.6956 ,1.18094 ,0.62726 ,6.15467 
342 ,63.8715 ,1.18257 ,0.61699 ,6.05394 
343 ,64.0476 ,1.18435 ,0.61357 ,6.02036 
344 ,64.2237 ,1.18609 ,0.61357 ,6.02036 
345 ,64.4158 ,1.18795 ,0.58619 ,5.75173 
346 ,64.6239 ,1.19004 ,0.58619 ,5.75173 
347 ,64.8001 ,1.19187 ,0.56908 ,5.58384 
348 ,64.9760 ,1.19367 ,0.55197 ,5.41595 
349 ,65.1522 ,1.19536 ,0.53486 ,5.24806 
350 ,65.3599 ,1.19743 ,0.52459 ,5.14732 
351 ,65.5362 ,1.19916 ,0.51091 ,5.01301 
352 ,65.7122 ,1.20100 ,0.49380 ,4.84512 
353 ,65.9049 ,1.20286 ,0.50406 ,4.94585 
354 ,66.0965 ,1.20477 ,0.46642 ,4.57649 
355 ,66.3047 ,1.20691 ,0.47668 ,4.67723 
356 ,66.4807 ,1.20868 ,0.46300 ,4.54291 
357 ,66.6568 ,1.21041 ,0.45273 ,4.44218 
358 ,66.8487 ,1.21237 ,0.42193 ,4.13997 
359 ,67.0410 ,1.21417 ,0.43220 ,4.24071 
360 ,67.2330 ,1.21620 ,0.40140 ,3.93850 
361 ,67.4087 ,1.21795 ,0.39455 ,3.87135 
362 ,67.5849 ,1.21968 ,0.39113 ,3.83777 
363 ,67.7931 ,1.22174 ,0.37744 ,3.70346 
364 ,67.9694 ,1.22356 ,0.35006 ,3.43483 
365 ,68.1451 ,1.22531 ,0.35006 ,3.43483 
366 ,68.3376 ,1.22716 ,0.35349 ,3.46841 
367 ,68.5291 ,1.22908 ,0.32953 ,3.23336 
368 ,68.7056 ,1.23091 ,0.31584 ,3.09905 
369 ,68.8817 ,1.23267 ,0.31926 ,3.13263 
370 ,69.0898 ,1.23468 ,0.30215 ,2.96473 
371 ,69.2658 ,1.23646 ,0.29531 ,2.89758 
372 ,69.4580 ,1.23846 ,0.27820 ,2.72969 
373 ,69.6499 ,1.24028 ,0.26793 ,2.62895 
374 ,69.8261 ,1.24216 ,0.25767 ,2.52822 
375 ,70.0182 ,1.24404 ,0.24055 ,2.36032 
376 ,70.1942 ,1.24580 ,0.21660 ,2.12528 
377 ,70.3704 ,1.24761 ,0.20976 ,2.05812 
378 ,70.5624 ,1.24940 ,0.21660 ,2.12528 
379 ,70.7384 ,1.25121 ,0.21318 ,2.09170 
380 ,70.9305 ,1.25313 ,0.18238 ,1.78949 
381 ,71.1065 ,1.25490 ,0.19264 ,1.89023 
382 ,71.2827 ,1.25665 ,0.16869 ,1.65518 
383 ,71.4588 ,1.25842 ,0.16527 ,1.62160 
384 ,71.6509 ,1.26032 ,0.15158 ,1.48729 
385 ,71.8270 ,1.26214 ,0.14131 ,1.38655 
386 ,72.0351 ,1.26420 ,0.10025 ,0.98361 
387 ,72.2108 ,1.26600 ,0.10709 ,1.05077 
388 ,72.3870 ,1.26774 ,0.10367 ,1.01719 
389 ,72.5793 ,1.26966 ,0.08656 ,0.84930 
390 ,72.7550 ,1.27138 ,0.06602 ,0.64783 
391 ,72.9474 ,1.27325 ,0.06945 ,0.68141 
392 ,73.1232 ,1.27507 ,0.07629 ,0.74857 
393 ,73.2994 ,1.27682 ,0.05918 ,0.58067 
394 ,73.4756 ,1.27860 ,0.04207 ,0.41278 
395 ,73.6517 ,1.28035 ,0.03180 ,0.31205 
396 ,73.8276 ,1.28212 ,0.02838 ,0.27847 
397 ,74.0039 ,1.28393 ,0.00785 ,0.07700 
398 ,74.1958 ,1.28580 ,-0.00584 ,-0.05731 
399 ,74.3879 ,1.28760 ,0.00443 ,0.04342 
400 ,74.5801 ,1.28960 ,-0.01611 ,-0.15805 
401 ,74.7721 ,1.29153 ,-0.01953 ,-0.19163 
402 ,74.9318 ,1.29326 ,-0.03664 ,-0.35952 
403 ,75.1083 ,1.29494 ,-0.02980 ,-0.29236 
404 ,75.3005 ,1.29685 ,-0.04348 ,-0.42667 
405 ,75.4925 ,1.29877 ,-0.05717 ,-0.56099 
406 ,75.6843 ,1.30074 ,-0.06060 ,-0.59457 
407 ,75.8602 ,1.30243 ,-0.07086 ,-0.69530 
408 ,76.0201 ,1.30415 ,-0.10166 ,-0.99751 
409 ,76.1967 ,1.30581 ,-0.10166 ,-0.99751 
410 ,76.3888 ,1.30772 ,-0.10166 ,-0.99751 
411 ,76.5808 ,1.30958 ,-0.11535 ,-1.13182 
412 ,76.7569 ,1.31135 ,-0.13246 ,-1.29971 
413 ,76.9328 ,1.31317 ,-0.14615 ,-1.43402 
414 ,77.1248 ,1.31511 ,-0.14273 ,-1.40045 
415 ,77.3010 ,1.31686 ,-0.15642 ,-1.53476 
416 ,77.4772 ,1.31859 ,-0.17353 ,-1.70265 
417 ,77.6692 ,1.32041 ,-0.16326 ,-1.60191 
418 ,77.8613 ,1.32231 ,-0.16668 ,-1.63549 
419 ,78.0373 ,1.32422 ,-0.19748 ,-1.93770 
420 ,78.2134 ,1.32594 ,-0.21117 ,-2.07201 
421 ,78.4055 ,1.32786 ,-0.20090 ,-1.97128 
422 ,78.5815 ,1.32963 ,-0.22828 ,-2.23990 
423 ,78.7735 ,1.33155 ,-0.22828 ,-2.23990 
424 ,78.9494 ,1.33327 ,-0.24539 ,-2.40779 
425 ,79.1258 ,1.33505 ,-0.24881 ,-2.44137 
426 ,79.3178 ,1.33690 ,-0.26250 ,-2.57569 
427 ,79.5100 ,1.33893 ,-0.26250 ,-2.57569 
428 ,79.7180 ,1.34082 ,-0.27277 ,-2.67642 
429 ,79.9102 ,1.34282 ,-0.30357 ,-2.97863 
430 ,80.1179 ,1.34490 ,-0.28988 ,-2.84431 
431 ,80.2943 ,1.34674 ,-0.30015 ,-2.94505 
432 ,80.4700 ,1.34847 ,-0.32068 ,-3.14652 
433 ,80.6301 ,1.35021 ,-0.30699 ,-3.01220 
434 ,80.8063 ,1.35184 ,-0.31726 ,-3.11294 
435 ,81.0145 ,1.35388 ,-0.34121 ,-3.34799 
436 ,81.2226 ,1.35589 ,-0.34464 ,-3.38156 
437 ,81.3988 ,1.35780 ,-0.36517 ,-3.58303 
438 ,81.5744 ,1.35956 ,-0.37886 ,-3.71735 
439 ,81.7506 ,1.36134 ,-0.37201 ,-3.65019 
440 ,81.9427 ,1.36319 ,-0.38570 ,-3.78450 
441 ,82.1189 ,1.36500 ,-0.38912 ,-3.81808 
442 ,82.3110 ,1.36685 ,-0.40966 ,-4.01955 
443 ,82.5033 ,1.36875 ,-0.40623 ,-3.98597 
444 ,82.6952 ,1.37076 ,-0.43703 ,-4.28818 
445 ,82.8874 ,1.37260 ,-0.41650 ,-4.08671 
446 ,83.0955 ,1.37468 ,-0.44388 ,-4.35534 
447 ,83.2876 ,1.37666 ,-0.43703 ,-4.28818 
448 ,83.4795 ,1.37853 ,-0.47126 ,-4.62396 
449 ,83.6716 ,1.38048 ,-0.46441 ,-4.55681 
450 ,83.8476 ,1.38227 ,-0.46783 ,-4.59038 
451 ,84.0397 ,1.38415 ,-0.50206 ,-4.92617 
452 ,84.2159 ,1.38599 ,-0.50206 ,-4.92617 
453 ,84.4079 ,1.38784 ,-0.47810 ,-4.69112 
454 ,84.6001 ,1.38977 ,-0.51574 ,-5.06048 
455 ,84.8081 ,1.39176 ,-0.52259 ,-5.12764 
456 ,85.0161 ,1.39386 ,-0.52601 ,-5.16121 
457 ,85.1922 ,1.39573 ,-0.53628 ,-5.26195 
458 ,85.3684 ,1.39749 ,-0.52259 ,-5.12764 
459 ,85.5600 ,1.39937 ,-0.54312 ,-5.32911 
460 ,85.7360 ,1.40118 ,-0.56708 ,-5.56415 
461 ,85.9126 ,1.40293 ,-0.56708 ,-5.56415 
462 ,86.1045 ,1.40475 ,-0.56365 ,-5.53058 
463 ,86.2969 ,1.40679 ,-0.60472 ,-5.93352 
464 ,86.4728 ,1.40849 ,-0.59445 ,-5.83278 
