Data stamp = , 12-04-2022 09:08:35 220

Calibration Values: 
Slope = , 26.54 , g/V 
Offset Voltage at no contact = , -0.501760 , V 

No , Time , Stage Position ,   Mass , Force 
   ,  (s) ,      (mm)      ,   (g)  , (mN)  

1 ,0.0000 ,0.59929 ,5.02474 ,49.30279 
2 ,0.2368 ,0.59941 ,5.03159 ,49.36995 
3 ,0.6214 ,0.60053 ,5.02132 ,49.26921 
4 ,0.8133 ,0.60231 ,5.02474 ,49.30279 
5 ,1.0054 ,0.60405 ,5.01448 ,49.20205 
6 ,1.1814 ,0.60585 ,5.03159 ,49.36995 
7 ,1.3735 ,0.60766 ,5.00763 ,49.13490 
8 ,1.5498 ,0.60946 ,5.01106 ,49.16848 
9 ,1.7577 ,0.61150 ,4.99737 ,49.03416 
10 ,1.9499 ,0.61343 ,4.99394 ,49.00058 
11 ,2.1420 ,0.61538 ,4.96657 ,48.73196 
12 ,2.3340 ,0.61733 ,4.94603 ,48.53049 
13 ,2.5258 ,0.61921 ,4.94603 ,48.53049 
14 ,2.7181 ,0.62118 ,4.91523 ,48.22828 
15 ,2.9102 ,0.62316 ,4.88786 ,47.95966 
16 ,3.0861 ,0.62487 ,4.90155 ,48.09397 
17 ,3.2782 ,0.62675 ,4.84679 ,47.55672 
18 ,3.4543 ,0.62856 ,4.83995 ,47.48956 
19 ,3.6301 ,0.63032 ,4.82284 ,47.32167 
20 ,3.8065 ,0.63207 ,4.82284 ,47.32167 
21 ,3.9825 ,0.63392 ,4.78861 ,46.98589 
22 ,4.1746 ,0.63573 ,4.77150 ,46.81800 
23 ,4.3508 ,0.63753 ,4.77493 ,46.85157 
24 ,4.5429 ,0.63940 ,4.76124 ,46.71726 
25 ,4.7185 ,0.64121 ,4.73728 ,46.48221 
26 ,4.8950 ,0.64296 ,4.70990 ,46.21359 
27 ,5.1031 ,0.64500 ,4.70648 ,46.18001 
28 ,5.2951 ,0.64691 ,4.68595 ,45.97854 
29 ,5.5031 ,0.64898 ,4.66199 ,45.74349 
30 ,5.6793 ,0.65076 ,4.65173 ,45.64275 
31 ,5.8714 ,0.65269 ,4.63119 ,45.44128 
32 ,6.0474 ,0.65452 ,4.62093 ,45.34055 
33 ,6.2716 ,0.65656 ,4.59697 ,45.10550 
34 ,6.4476 ,0.65854 ,4.59013 ,45.03835 
35 ,6.6397 ,0.66042 ,4.55933 ,44.73614 
36 ,6.8153 ,0.66214 ,4.54906 ,44.63541 
37 ,7.0078 ,0.66402 ,4.53880 ,44.53467 
38 ,7.2320 ,0.66616 ,4.51826 ,44.33320 
39 ,7.4241 ,0.66826 ,4.51142 ,44.26604 
40 ,7.6158 ,0.67014 ,4.47035 ,43.86310 
41 ,7.7757 ,0.67189 ,4.46009 ,43.76237 
42 ,7.9516 ,0.67361 ,4.47035 ,43.86310 
43 ,8.1117 ,0.67526 ,4.45324 ,43.69521 
44 ,8.2882 ,0.67686 ,4.42929 ,43.46016 
45 ,8.5605 ,0.67956 ,4.41902 ,43.35943 
46 ,8.7524 ,0.68149 ,4.39507 ,43.12438 
47 ,8.9283 ,0.68330 ,4.37795 ,42.95649 
48 ,9.1047 ,0.68504 ,4.37795 ,42.95649 
49 ,9.3290 ,0.68718 ,4.34373 ,42.62071 
50 ,9.5049 ,0.68903 ,4.33347 ,42.51997 
51 ,9.6968 ,0.69090 ,4.31293 ,42.31850 
52 ,9.8730 ,0.69272 ,4.29240 ,42.11703 
53 ,10.0487 ,0.69448 ,4.28556 ,42.04988 
54 ,10.2248 ,0.69620 ,4.27529 ,41.94914 
55 ,10.4013 ,0.69801 ,4.24107 ,41.61336 
56 ,10.5932 ,0.69989 ,4.24791 ,41.68051 
57 ,10.7853 ,0.70181 ,4.24107 ,41.61336 
58 ,10.9614 ,0.70362 ,4.21027 ,41.31115 
59 ,11.1215 ,0.70533 ,4.18289 ,41.04253 
60 ,11.2975 ,0.70697 ,4.17947 ,41.00895 
61 ,11.4897 ,0.70890 ,4.17605 ,40.97537 
62 ,11.6818 ,0.71079 ,4.15551 ,40.77390 
63 ,11.8738 ,0.71267 ,4.14183 ,40.63959 
64 ,12.0499 ,0.71449 ,4.12129 ,40.43812 
65 ,12.2421 ,0.71637 ,4.09391 ,40.16949 
66 ,12.4181 ,0.71824 ,4.08023 ,40.03518 
67 ,12.5941 ,0.71995 ,4.06996 ,39.93444 
68 ,12.7703 ,0.72171 ,4.06654 ,39.90087 
69 ,12.9622 ,0.72359 ,4.03916 ,39.63224 
70 ,13.1384 ,0.72537 ,4.01178 ,39.36361 
71 ,13.3465 ,0.72728 ,4.02547 ,39.49793 
72 ,13.5385 ,0.72938 ,3.98783 ,39.12856 
73 ,13.7308 ,0.73120 ,3.99125 ,39.16214 
74 ,13.9227 ,0.73311 ,3.96729 ,38.92709 
75 ,14.1309 ,0.73513 ,3.95361 ,38.79278 
76 ,14.3067 ,0.73712 ,3.92965 ,38.55773 
77 ,14.5150 ,0.73902 ,3.90570 ,38.32268 
78 ,14.7070 ,0.74105 ,3.90570 ,38.32268 
79 ,14.8990 ,0.74293 ,3.88174 ,38.08764 
80 ,15.0752 ,0.74471 ,3.87832 ,38.05406 
81 ,15.2672 ,0.74657 ,3.86121 ,37.88617 
82 ,15.4750 ,0.74866 ,3.83725 ,37.65112 
83 ,15.6672 ,0.75058 ,3.83041 ,37.58396 
84 ,15.8434 ,0.75240 ,3.81330 ,37.41607 
85 ,16.0354 ,0.75430 ,3.78592 ,37.14744 
86 ,16.2116 ,0.75606 ,3.78592 ,37.14744 
87 ,16.4033 ,0.75793 ,3.76196 ,36.91240 
88 ,16.5796 ,0.75978 ,3.73459 ,36.64377 
89 ,16.7875 ,0.76170 ,3.74828 ,36.77808 
90 ,16.9639 ,0.76360 ,3.72090 ,36.50946 
91 ,17.1398 ,0.76539 ,3.69010 ,36.20725 
92 ,17.3320 ,0.76730 ,3.69694 ,36.27441 
93 ,17.5241 ,0.76920 ,3.67641 ,36.07294 
94 ,17.7002 ,0.77097 ,3.65930 ,35.90505 
95 ,17.8918 ,0.77290 ,3.64219 ,35.73716 
96 ,18.0684 ,0.77459 ,3.63192 ,35.63642 
97 ,18.2443 ,0.77641 ,3.62850 ,35.60284 
98 ,18.4205 ,0.77817 ,3.59428 ,35.26706 
99 ,18.5964 ,0.77989 ,3.58401 ,35.16632 
100 ,18.7727 ,0.78167 ,3.59428 ,35.26706 
101 ,18.9647 ,0.78365 ,3.56006 ,34.93128 
102 ,19.1408 ,0.78537 ,3.54637 ,34.79696 
103 ,19.3170 ,0.78714 ,3.52241 ,34.56192 
104 ,19.5251 ,0.78906 ,3.50530 ,34.39402 
105 ,19.7171 ,0.79104 ,3.50530 ,34.39402 
106 ,19.9251 ,0.79311 ,3.47792 ,34.12540 
107 ,20.1173 ,0.79517 ,3.46424 ,33.99108 
108 ,20.2933 ,0.79690 ,3.45397 ,33.89035 
109 ,20.4852 ,0.79873 ,3.44028 ,33.75604 
110 ,20.6613 ,0.80058 ,3.41633 ,33.52099 
111 ,20.8372 ,0.80236 ,3.40264 ,33.38667 
112 ,21.0296 ,0.80424 ,3.40948 ,33.45383 
113 ,21.2218 ,0.80615 ,3.36842 ,33.05089 
114 ,21.3977 ,0.80789 ,3.36157 ,32.98374 
115 ,21.5899 ,0.80983 ,3.34788 ,32.84942 
116 ,21.7656 ,0.81164 ,3.33077 ,32.68153 
117 ,21.9420 ,0.81337 ,3.31708 ,32.54722 
118 ,22.1501 ,0.81539 ,3.32051 ,32.58080 
119 ,22.3264 ,0.81722 ,3.30339 ,32.41290 
120 ,22.5181 ,0.81907 ,3.28971 ,32.27859 
121 ,22.6943 ,0.82088 ,3.26233 ,32.00996 
122 ,22.8703 ,0.82262 ,3.25891 ,31.97639 
123 ,23.0464 ,0.82436 ,3.23153 ,31.70776 
124 ,23.2224 ,0.82619 ,3.21100 ,31.50629 
125 ,23.3987 ,0.82794 ,3.20757 ,31.47271 
126 ,23.6067 ,0.82995 ,3.18704 ,31.27124 
127 ,23.7988 ,0.83184 ,3.18020 ,31.20409 
128 ,23.9749 ,0.83368 ,3.17677 ,31.17051 
129 ,24.1990 ,0.83576 ,3.16309 ,31.03619 
130 ,24.3909 ,0.83777 ,3.13229 ,30.73399 
131 ,24.5827 ,0.83979 ,3.11860 ,30.59968 
132 ,24.7588 ,0.84152 ,3.10491 ,30.46536 
133 ,24.9350 ,0.84325 ,3.10491 ,30.46536 
134 ,25.1274 ,0.84512 ,3.09806 ,30.39821 
135 ,25.3193 ,0.84716 ,3.06726 ,30.09600 
136 ,25.4954 ,0.84885 ,3.06384 ,30.06242 
137 ,25.6874 ,0.85072 ,3.03647 ,29.79380 
138 ,25.8635 ,0.85257 ,3.01251 ,29.55875 
139 ,26.0554 ,0.85446 ,3.02278 ,29.65948 
140 ,26.2317 ,0.85624 ,3.00224 ,29.45801 
141 ,26.4078 ,0.85805 ,2.99198 ,29.35728 
142 ,26.6000 ,0.85991 ,2.95776 ,29.02150 
143 ,26.7919 ,0.86181 ,2.97144 ,29.15581 
144 ,26.9681 ,0.86367 ,2.93380 ,28.78645 
145 ,27.1440 ,0.86547 ,2.93038 ,28.75287 
146 ,27.3202 ,0.86714 ,2.90985 ,28.55140 
147 ,27.4962 ,0.86889 ,2.90985 ,28.55140 
148 ,27.7044 ,0.87095 ,2.88589 ,28.31635 
149 ,27.8963 ,0.87281 ,2.89273 ,28.38351 
150 ,28.0725 ,0.87462 ,2.86193 ,28.08130 
151 ,28.2327 ,0.87636 ,2.85509 ,28.01415 
152 ,28.4249 ,0.87813 ,2.82771 ,27.74552 
153 ,28.5846 ,0.87990 ,2.81060 ,27.57763 
154 ,28.7605 ,0.88154 ,2.80034 ,27.47689 
155 ,28.9370 ,0.88328 ,2.79349 ,27.40974 
156 ,29.1289 ,0.88510 ,2.77296 ,27.20827 
157 ,29.3052 ,0.88700 ,2.75585 ,27.04038 
158 ,29.4971 ,0.88891 ,2.75585 ,27.04038 
159 ,29.6892 ,0.89076 ,2.74216 ,26.90606 
160 ,29.8652 ,0.89269 ,2.72505 ,26.73817 
161 ,30.0573 ,0.89447 ,2.70452 ,26.53670 
162 ,30.2491 ,0.89641 ,2.69083 ,26.40239 
163 ,30.4416 ,0.89822 ,2.67714 ,26.26807 
164 ,30.6337 ,0.90020 ,2.68398 ,26.33523 
165 ,30.8259 ,0.90214 ,2.62238 ,25.73082 
166 ,31.0177 ,0.90415 ,2.64634 ,25.96587 
167 ,31.1935 ,0.90584 ,2.62923 ,25.79798 
168 ,31.3695 ,0.90762 ,2.61212 ,25.63009 
169 ,31.5457 ,0.90938 ,2.59501 ,25.46220 
170 ,31.7381 ,0.91121 ,2.56763 ,25.19357 
171 ,31.9461 ,0.91330 ,2.55736 ,25.09283 
172 ,32.1223 ,0.91514 ,2.55052 ,25.02568 
173 ,32.3144 ,0.91701 ,2.54367 ,24.95852 
174 ,32.4904 ,0.91878 ,2.52656 ,24.79063 
175 ,32.6665 ,0.92055 ,2.49234 ,24.45485 
176 ,32.8585 ,0.92246 ,2.48892 ,24.42127 
177 ,33.0345 ,0.92422 ,2.48892 ,24.42127 
178 ,33.2107 ,0.92597 ,2.45470 ,24.08549 
179 ,33.4027 ,0.92797 ,2.45470 ,24.08549 
180 ,33.5947 ,0.92989 ,2.42732 ,23.81686 
181 ,33.7707 ,0.93164 ,2.43074 ,23.85044 
182 ,33.9630 ,0.93355 ,2.40679 ,23.61539 
183 ,34.1388 ,0.93533 ,2.38968 ,23.44750 
184 ,34.3150 ,0.93705 ,2.38283 ,23.38034 
185 ,34.4912 ,0.93884 ,2.37941 ,23.34676 
186 ,34.6672 ,0.94060 ,2.35545 ,23.11171 
187 ,34.8434 ,0.94235 ,2.33834 ,22.94382 
188 ,35.0195 ,0.94410 ,2.33492 ,22.91024 
189 ,35.1953 ,0.94582 ,2.32808 ,22.84309 
190 ,35.3714 ,0.94762 ,2.30754 ,22.64162 
191 ,35.5475 ,0.94939 ,2.27674 ,22.33941 
192 ,35.7237 ,0.95111 ,2.27332 ,22.30584 
193 ,35.9157 ,0.95301 ,2.27674 ,22.33941 
194 ,36.0917 ,0.95480 ,2.25963 ,22.17152 
195 ,36.3000 ,0.95687 ,2.25621 ,22.13794 
196 ,36.4921 ,0.95877 ,2.21172 ,21.70143 
197 ,36.6837 ,0.96069 ,2.19461 ,21.53353 
198 ,36.8922 ,0.96264 ,2.17408 ,21.33206 
199 ,37.1003 ,0.96476 ,2.18092 ,21.39922 
200 ,37.3403 ,0.96703 ,2.16381 ,21.23133 
201 ,37.5003 ,0.96901 ,2.15697 ,21.16417 
202 ,37.6764 ,0.97070 ,2.12617 ,20.86197 
203 ,37.8526 ,0.97239 ,2.12617 ,20.86197 
204 ,38.0447 ,0.97439 ,2.09537 ,20.55976 
205 ,38.2209 ,0.97611 ,2.09195 ,20.52619 
206 ,38.4290 ,0.97806 ,2.08852 ,20.49261 
207 ,38.6049 ,0.97994 ,2.04746 ,20.08967 
208 ,38.7965 ,0.98181 ,2.05773 ,20.19040 
209 ,38.9728 ,0.98362 ,2.05088 ,20.12325 
210 ,39.1649 ,0.98550 ,2.01666 ,19.78746 
211 ,39.3571 ,0.98744 ,2.01666 ,19.78746 
212 ,39.5489 ,0.98935 ,1.97559 ,19.38452 
213 ,39.7414 ,0.99117 ,1.96533 ,19.28379 
214 ,39.9332 ,0.99315 ,1.96533 ,19.28379 
215 ,40.1253 ,0.99513 ,1.94479 ,19.08232 
216 ,40.3014 ,0.99688 ,1.93453 ,18.98158 
217 ,40.4775 ,0.99864 ,1.93453 ,18.98158 
218 ,40.6537 ,1.00044 ,1.91057 ,18.74654 
219 ,40.8458 ,1.00224 ,1.89346 ,18.57864 
220 ,41.0538 ,1.00426 ,1.88319 ,18.47791 
221 ,41.2460 ,1.00635 ,1.85924 ,18.24286 
222 ,41.4222 ,1.00812 ,1.84555 ,18.10855 
223 ,41.6142 ,1.00997 ,1.83528 ,18.00781 
224 ,41.8222 ,1.01205 ,1.83528 ,18.00781 
225 ,41.9981 ,1.01383 ,1.81817 ,17.83992 
226 ,42.1903 ,1.01571 ,1.80106 ,17.67203 
227 ,42.3823 ,1.01767 ,1.78395 ,17.50414 
228 ,42.5585 ,1.01947 ,1.76000 ,17.26909 
229 ,42.7665 ,1.02143 ,1.77711 ,17.43698 
230 ,42.9426 ,1.02329 ,1.74973 ,17.16836 
231 ,43.1183 ,1.02507 ,1.72920 ,16.96689 
232 ,43.2949 ,1.02679 ,1.72578 ,16.93331 
233 ,43.5029 ,1.02886 ,1.71209 ,16.79899 
234 ,43.6949 ,1.03077 ,1.70866 ,16.76542 
235 ,43.8869 ,1.03266 ,1.67786 ,16.46321 
236 ,44.0792 ,1.03466 ,1.67786 ,16.46321 
237 ,44.2548 ,1.03637 ,1.66418 ,16.32890 
238 ,44.4472 ,1.03832 ,1.62995 ,15.99311 
239 ,44.6393 ,1.04020 ,1.61284 ,15.82522 
240 ,44.8153 ,1.04196 ,1.61627 ,15.85880 
241 ,44.9913 ,1.04380 ,1.60600 ,15.75807 
242 ,45.1835 ,1.04571 ,1.58204 ,15.52302 
243 ,45.3757 ,1.04756 ,1.58547 ,15.55660 
244 ,45.5836 ,1.04964 ,1.56151 ,15.32155 
245 ,45.7759 ,1.05161 ,1.55467 ,15.25439 
246 ,45.9519 ,1.05340 ,1.54098 ,15.12008 
247 ,46.1439 ,1.05529 ,1.52729 ,14.98577 
248 ,46.3197 ,1.05708 ,1.52387 ,14.95219 
249 ,46.4960 ,1.05887 ,1.49307 ,14.64998 
250 ,46.6882 ,1.06061 ,1.48280 ,14.54925 
251 ,46.8801 ,1.06253 ,1.47253 ,14.44851 
252 ,47.0723 ,1.06453 ,1.46569 ,14.38136 
253 ,47.2483 ,1.06635 ,1.43147 ,14.04557 
254 ,47.4405 ,1.06823 ,1.44174 ,14.14631 
255 ,47.6005 ,1.06998 ,1.42805 ,14.01199 
256 ,47.7766 ,1.07158 ,1.42462 ,13.97842 
257 ,47.9847 ,1.07358 ,1.38356 ,13.57548 
258 ,48.1769 ,1.07555 ,1.40067 ,13.74337 
259 ,48.3525 ,1.07744 ,1.35618 ,13.30685 
260 ,48.5446 ,1.07920 ,1.34934 ,13.23969 
261 ,48.7207 ,1.08107 ,1.32880 ,13.03822 
262 ,48.9128 ,1.08291 ,1.33565 ,13.10538 
263 ,49.1047 ,1.08480 ,1.30143 ,12.76960 
264 ,49.2809 ,1.08665 ,1.28774 ,12.63528 
265 ,49.4892 ,1.08860 ,1.29458 ,12.70244 
266 ,49.6814 ,1.09066 ,1.27405 ,12.50097 
267 ,49.8735 ,1.09253 ,1.27747 ,12.53455 
268 ,50.0496 ,1.09429 ,1.23641 ,12.13161 
269 ,50.2417 ,1.09629 ,1.22614 ,12.03088 
270 ,50.4337 ,1.09817 ,1.22956 ,12.06445 
271 ,50.6255 ,1.09994 ,1.24325 ,12.19877 
272 ,50.8019 ,1.10188 ,1.19192 ,11.69509 
273 ,51.0100 ,1.10384 ,1.18507 ,11.62794 
274 ,51.2021 ,1.10576 ,1.18507 ,11.62794 
275 ,51.3939 ,1.10779 ,1.18165 ,11.59436 
276 ,51.5862 ,1.10968 ,1.13374 ,11.12426 
277 ,51.7622 ,1.11152 ,1.14401 ,11.22500 
278 ,51.9704 ,1.11341 ,1.12690 ,11.05710 
279 ,52.1625 ,1.11547 ,1.09267 ,10.72132 
280 ,52.3544 ,1.11735 ,1.09610 ,10.75490 
281 ,52.5307 ,1.11913 ,1.08241 ,10.62059 
282 ,52.7224 ,1.12099 ,1.07556 ,10.55343 
283 ,52.9147 ,1.12293 ,1.05845 ,10.38554 
284 ,53.1066 ,1.12481 ,1.02423 ,10.04976 
285 ,53.2824 ,1.12668 ,1.01396 ,9.94902 
286 ,53.4588 ,1.12841 ,1.02765 ,10.08333 
287 ,53.6350 ,1.13017 ,1.01396 ,9.94902 
288 ,53.8268 ,1.13203 ,0.98317 ,9.64682 
289 ,54.0031 ,1.13385 ,0.96948 ,9.51250 
290 ,54.2110 ,1.13586 ,0.96263 ,9.44535 
291 ,54.4033 ,1.13780 ,0.97290 ,9.54608 
292 ,54.5953 ,1.13977 ,0.94210 ,9.24388 
293 ,54.7874 ,1.14160 ,0.92157 ,9.04241 
294 ,54.9633 ,1.14355 ,0.92841 ,9.10956 
295 ,55.1396 ,1.14520 ,0.92841 ,9.10956 
296 ,55.3319 ,1.14708 ,0.89077 ,8.74020 
297 ,55.5237 ,1.14905 ,0.88392 ,8.67305 
298 ,55.6996 ,1.15083 ,0.86681 ,8.50515 
299 ,55.8919 ,1.15271 ,0.86339 ,8.47158 
300 ,56.0679 ,1.15450 ,0.83943 ,8.23653 
301 ,56.2600 ,1.15642 ,0.84970 ,8.33726 
302 ,56.4521 ,1.15820 ,0.83259 ,8.16937 
303 ,56.6442 ,1.16020 ,0.83601 ,8.20295 
304 ,56.8199 ,1.16205 ,0.80521 ,7.90074 
305 ,56.9961 ,1.16374 ,0.80179 ,7.86717 
306 ,57.1883 ,1.16567 ,0.77099 ,7.56496 
307 ,57.3962 ,1.16771 ,0.76757 ,7.53138 
308 ,57.5726 ,1.16957 ,0.75388 ,7.39707 
309 ,57.7646 ,1.17145 ,0.73335 ,7.19560 
310 ,57.9407 ,1.17326 ,0.73677 ,7.22918 
311 ,58.1325 ,1.17513 ,0.71624 ,7.02771 
312 ,58.3089 ,1.17690 ,0.69228 ,6.79266 
313 ,58.5169 ,1.17891 ,0.69913 ,6.85982 
314 ,58.6930 ,1.18071 ,0.68886 ,6.75908 
315 ,58.8692 ,1.18249 ,0.65464 ,6.42330 
316 ,59.0612 ,1.18434 ,0.66490 ,6.52403 
317 ,59.2532 ,1.18633 ,0.63753 ,6.25541 
318 ,59.4454 ,1.18823 ,0.62384 ,6.12109 
319 ,59.6371 ,1.19008 ,0.62726 ,6.15467 
320 ,59.8297 ,1.19199 ,0.61357 ,6.02036 
321 ,60.0377 ,1.19409 ,0.58962 ,5.78531 
322 ,60.2452 ,1.19610 ,0.57251 ,5.61742 
323 ,60.4219 ,1.19804 ,0.55539 ,5.44953 
324 ,60.6459 ,1.20011 ,0.54513 ,5.34879 
325 ,60.8376 ,1.20209 ,0.54855 ,5.38237 
326 ,61.0297 ,1.20412 ,0.53144 ,5.21448 
327 ,61.2215 ,1.20595 ,0.51433 ,5.04659 
328 ,61.3976 ,1.20783 ,0.50748 ,4.97943 
329 ,61.5737 ,1.20951 ,0.51091 ,5.01301 
330 ,61.7498 ,1.21130 ,0.48353 ,4.74438 
331 ,61.9421 ,1.21314 ,0.47668 ,4.67723 
332 ,62.1185 ,1.21502 ,0.48011 ,4.71081 
333 ,62.3104 ,1.21688 ,0.43904 ,4.30787 
334 ,62.4867 ,1.21868 ,0.43562 ,4.27429 
335 ,62.6626 ,1.22041 ,0.42193 ,4.13997 
336 ,62.8547 ,1.22232 ,0.41851 ,4.10640 
337 ,63.0309 ,1.22411 ,0.39797 ,3.90493 
338 ,63.2069 ,1.22589 ,0.38771 ,3.80419 
339 ,63.3986 ,1.22777 ,0.38771 ,3.80419 
340 ,63.5750 ,1.22954 ,0.37744 ,3.70346 
341 ,63.7671 ,1.23147 ,0.34322 ,3.36767 
342 ,63.9591 ,1.23331 ,0.35349 ,3.46841 
343 ,64.1352 ,1.23510 ,0.34664 ,3.40125 
344 ,64.3276 ,1.23700 ,0.31584 ,3.09905 
345 ,64.5351 ,1.23904 ,0.30558 ,2.99831 
346 ,64.7113 ,1.24088 ,0.29873 ,2.93116 
347 ,64.9036 ,1.24281 ,0.28504 ,2.79684 
348 ,65.0797 ,1.24455 ,0.28504 ,2.79684 
349 ,65.2718 ,1.24640 ,0.28847 ,2.83042 
350 ,65.4799 ,1.24847 ,0.25424 ,2.49464 
351 ,65.6880 ,1.25061 ,0.23371 ,2.29317 
352 ,65.8960 ,1.25268 ,0.22344 ,2.19243 
353 ,66.0722 ,1.25452 ,0.22002 ,2.15885 
354 ,66.2481 ,1.25622 ,0.20976 ,2.05812 
355 ,66.4244 ,1.25802 ,0.19607 ,1.92381 
356 ,66.6000 ,1.25984 ,0.18922 ,1.85665 
357 ,66.7765 ,1.26157 ,0.18922 ,1.85665 
358 ,67.0005 ,1.26360 ,0.19264 ,1.89023 
359 ,67.1925 ,1.26573 ,0.15158 ,1.48729 
360 ,67.4007 ,1.26768 ,0.14131 ,1.38655 
361 ,67.5768 ,1.26953 ,0.13447 ,1.31940 
362 ,67.7848 ,1.27153 ,0.14473 ,1.42013 
363 ,67.9767 ,1.27352 ,0.12762 ,1.25224 
364 ,68.1530 ,1.27529 ,0.09340 ,0.91646 
365 ,68.3447 ,1.27717 ,0.09682 ,0.95004 
366 ,68.5208 ,1.27898 ,0.07287 ,0.71499 
367 ,68.6968 ,1.28070 ,0.07971 ,0.78214 
368 ,68.8892 ,1.28258 ,0.06602 ,0.64783 
369 ,69.0975 ,1.28469 ,0.05576 ,0.54710 
370 ,69.2895 ,1.28660 ,0.02838 ,0.27847 
371 ,69.4655 ,1.28841 ,0.03180 ,0.31205 
372 ,69.6415 ,1.29017 ,0.02496 ,0.24489 
373 ,69.8013 ,1.29188 ,0.02154 ,0.21131 
374 ,69.9938 ,1.29371 ,0.01127 ,0.11058 
375 ,70.2015 ,1.29567 ,-0.00584 ,-0.05731 
376 ,70.3779 ,1.29752 ,-0.00584 ,-0.05731 
377 ,70.5700 ,1.29945 ,-0.03664 ,-0.35952 
378 ,70.7458 ,1.30116 ,-0.03322 ,-0.32594 
379 ,70.9382 ,1.30307 ,-0.04006 ,-0.39310 
380 ,71.1304 ,1.30504 ,-0.06060 ,-0.59457 
381 ,71.3220 ,1.30699 ,-0.06060 ,-0.59457 
382 ,71.4984 ,1.30875 ,-0.06744 ,-0.66172 
383 ,71.7065 ,1.31078 ,-0.07086 ,-0.69530 
384 ,71.8986 ,1.31266 ,-0.08113 ,-0.79604 
385 ,72.0907 ,1.31461 ,-0.11877 ,-1.16540 
386 ,72.2827 ,1.31664 ,-0.11877 ,-1.16540 
387 ,72.4587 ,1.31830 ,-0.11193 ,-1.09824 
388 ,72.6349 ,1.32011 ,-0.13931 ,-1.36687 
389 ,72.8430 ,1.32212 ,-0.12904 ,-1.26613 
390 ,73.0348 ,1.32400 ,-0.14957 ,-1.46760 
391 ,73.2111 ,1.32581 ,-0.17011 ,-1.66907 
392 ,73.3872 ,1.32764 ,-0.17011 ,-1.66907 
393 ,73.5633 ,1.32939 ,-0.18037 ,-1.76981 
394 ,73.7553 ,1.33123 ,-0.17695 ,-1.73623 
395 ,73.9474 ,1.33320 ,-0.20433 ,-2.00485 
396 ,74.1234 ,1.33503 ,-0.19406 ,-1.90412 
397 ,74.2995 ,1.33675 ,-0.20775 ,-2.03843 
398 ,74.4756 ,1.33856 ,-0.23170 ,-2.27348 
399 ,74.6516 ,1.34024 ,-0.25224 ,-2.47495 
400 ,74.8439 ,1.34212 ,-0.23855 ,-2.34064 
401 ,75.0518 ,1.34416 ,-0.24539 ,-2.40779 
402 ,75.2439 ,1.34620 ,-0.25908 ,-2.54211 
403 ,75.4358 ,1.34805 ,-0.27619 ,-2.71000 
404 ,75.6281 ,1.35002 ,-0.29673 ,-2.91147 
405 ,75.8204 ,1.35191 ,-0.28988 ,-2.84431 
406 ,75.9961 ,1.35373 ,-0.29673 ,-2.91147 
407 ,76.1724 ,1.35545 ,-0.31384 ,-3.07936 
408 ,76.3643 ,1.35733 ,-0.29673 ,-2.91147 
409 ,76.5565 ,1.35933 ,-0.32068 ,-3.14652 
410 ,76.7487 ,1.36120 ,-0.33437 ,-3.28083 
411 ,76.9248 ,1.36298 ,-0.34121 ,-3.34799 
412 ,77.1168 ,1.36487 ,-0.35148 ,-3.44872 
413 ,77.2927 ,1.36668 ,-0.38228 ,-3.75093 
414 ,77.4689 ,1.36846 ,-0.37886 ,-3.71735 
415 ,77.6770 ,1.37041 ,-0.38228 ,-3.75093 
416 ,77.8691 ,1.37238 ,-0.38570 ,-3.78450 
417 ,78.0612 ,1.37427 ,-0.39255 ,-3.85166 
418 ,78.2532 ,1.37621 ,-0.41650 ,-4.08671 
419 ,78.4452 ,1.37822 ,-0.41308 ,-4.05313 
420 ,78.6212 ,1.37996 ,-0.41308 ,-4.05313 
421 ,78.7974 ,1.38169 ,-0.43361 ,-4.25460 
422 ,79.0055 ,1.38370 ,-0.43703 ,-4.28818 
423 ,79.1816 ,1.38557 ,-0.45072 ,-4.42249 
424 ,79.3896 ,1.38755 ,-0.46783 ,-4.59038 
425 ,79.5818 ,1.38940 ,-0.48152 ,-4.72470 
426 ,79.7738 ,1.39153 ,-0.48152 ,-4.72470 
427 ,79.9658 ,1.39335 ,-0.49521 ,-4.85901 
428 ,80.1420 ,1.39516 ,-0.49863 ,-4.89259 
429 ,80.3341 ,1.39698 ,-0.50890 ,-4.99332 
430 ,80.5098 ,1.39883 ,-0.52601 ,-5.16121 
431 ,80.7022 ,1.40070 ,-0.51232 ,-5.02690 
432 ,80.8784 ,1.40252 ,-0.51232 ,-5.02690 
433 ,81.0544 ,1.40430 ,-0.53970 ,-5.29553 
434 ,81.2624 ,1.40628 ,-0.52943 ,-5.19479 
435 ,81.4383 ,1.40814 ,-0.53970 ,-5.29553 
436 ,81.6303 ,1.41001 ,-0.57050 ,-5.59773 
437 ,81.8065 ,1.41176 ,-0.56365 ,-5.53058 
438 ,81.9827 ,1.41355 ,-0.58761 ,-5.76562 
439 ,82.1589 ,1.41535 ,-0.56708 ,-5.56415 
440 ,82.3509 ,1.41721 ,-0.61156 ,-6.00067 
441 ,82.5430 ,1.41916 ,-0.61499 ,-6.03425 
442 ,82.7350 ,1.42097 ,-0.62183 ,-6.10141 
443 ,82.9111 ,1.42285 ,-0.61499 ,-6.03425 
444 ,83.1032 ,1.42472 ,-0.61499 ,-6.03425 
445 ,83.2950 ,1.42660 ,-0.64921 ,-6.37003 
446 ,83.4873 ,1.42852 ,-0.64921 ,-6.37003 
447 ,83.6634 ,1.43036 ,-0.64921 ,-6.37003 
448 ,83.8395 ,1.43211 ,-0.64579 ,-6.33646 
449 ,84.0316 ,1.43399 ,-0.66974 ,-6.57150 
450 ,84.2075 ,1.43577 ,-0.68685 ,-6.73940 
451 ,84.3998 ,1.43766 ,-0.68001 ,-6.67224 
452 ,84.5915 ,1.43961 ,-0.70396 ,-6.90729 
453 ,84.7676 ,1.44135 ,-0.71081 ,-6.97444 
454 ,84.9276 ,1.44311 ,-0.70739 ,-6.94086 
455 ,85.1036 ,1.44471 ,-0.72107 ,-7.07518 
456 ,85.2801 ,1.44654 ,-0.71081 ,-6.97444 
457 ,85.4721 ,1.44843 ,-0.73134 ,-7.17591 
458 ,85.6483 ,1.45021 ,-0.74503 ,-7.31023 
459 ,85.8400 ,1.45205 ,-0.74161 ,-7.27665 
460 ,86.0326 ,1.45397 ,-0.73476 ,-7.20949 
461 ,86.2244 ,1.45588 ,-0.76214 ,-7.47812 
462 ,86.4007 ,1.45763 ,-0.77583 ,-7.61243 
463 ,86.5925 ,1.45967 ,-0.78267 ,-7.67959 
