Data stamp = , 12-04-2022 01:04:47 469

Calibration Values: 
Slope = , 26.54 , g/V 
Offset Voltage at no contact = , -0.501760 , V 

No , Time , Stage Position ,   Mass , Force 
   ,  (s) ,      (mm)      ,   (g)  , (mN)  

1 ,0.0000 ,0.59943 ,5.04528 ,49.50426 
2 ,0.2216 ,0.59952 ,5.02132 ,49.26921 
3 ,0.5739 ,0.60050 ,5.06239 ,49.67215 
4 ,0.7980 ,0.60226 ,5.04870 ,49.53784 
5 ,1.0062 ,0.60414 ,5.04528 ,49.50426 
6 ,1.2302 ,0.60628 ,5.06239 ,49.67215 
7 ,1.4381 ,0.60846 ,5.04185 ,49.47068 
8 ,1.6304 ,0.61035 ,5.02474 ,49.30279 
9 ,1.8065 ,0.61220 ,5.01448 ,49.20205 
10 ,2.0143 ,0.61429 ,5.01790 ,49.23563 
11 ,2.2065 ,0.61617 ,4.98368 ,48.89985 
12 ,2.4148 ,0.61827 ,4.98368 ,48.89985 
13 ,2.6066 ,0.62018 ,4.94261 ,48.49691 
14 ,2.8148 ,0.62229 ,4.95288 ,48.59764 
15 ,2.9910 ,0.62407 ,4.92550 ,48.32902 
16 ,3.1987 ,0.62609 ,4.91866 ,48.26186 
17 ,3.3912 ,0.62797 ,4.88786 ,47.95966 
18 ,3.5992 ,0.63013 ,4.87759 ,47.85892 
19 ,3.7913 ,0.63207 ,4.85021 ,47.59030 
20 ,3.9836 ,0.63395 ,4.85021 ,47.59030 
21 ,4.1754 ,0.63586 ,4.81599 ,47.25451 
22 ,4.3516 ,0.63764 ,4.79888 ,47.08662 
23 ,4.5596 ,0.63969 ,4.79888 ,47.08662 
24 ,4.7516 ,0.64157 ,4.76124 ,46.71726 
25 ,4.9277 ,0.64347 ,4.75782 ,46.68368 
26 ,5.1039 ,0.64517 ,4.72359 ,46.34790 
27 ,5.3115 ,0.64729 ,4.70648 ,46.18001 
28 ,5.5043 ,0.64914 ,4.70648 ,46.18001 
29 ,5.7121 ,0.65128 ,4.67568 ,45.87780 
30 ,5.9042 ,0.65315 ,4.67226 ,45.84422 
31 ,6.1281 ,0.65535 ,4.63804 ,45.50844 
32 ,6.3044 ,0.65718 ,4.62093 ,45.34055 
33 ,6.4644 ,0.65892 ,4.63804 ,45.50844 
34 ,6.6404 ,0.66059 ,4.61408 ,45.27339 
35 ,6.8165 ,0.66228 ,4.59355 ,45.07192 
36 ,7.0405 ,0.66447 ,4.58671 ,45.00477 
37 ,7.2487 ,0.66655 ,4.54564 ,44.60183 
38 ,7.4247 ,0.66844 ,4.55249 ,44.66898 
39 ,7.6167 ,0.67026 ,4.52853 ,44.43394 
40 ,7.8249 ,0.67233 ,4.50115 ,44.16531 
41 ,8.0168 ,0.67428 ,4.48746 ,44.03100 
42 ,8.2410 ,0.67629 ,4.44982 ,43.66163 
43 ,8.4169 ,0.67835 ,4.43271 ,43.49374 
44 ,8.5933 ,0.68004 ,4.43613 ,43.52732 
45 ,8.7694 ,0.68183 ,4.42244 ,43.39301 
46 ,8.9935 ,0.68390 ,4.41218 ,43.29227 
47 ,9.2016 ,0.68612 ,4.40191 ,43.19154 
48 ,9.3936 ,0.68805 ,4.38138 ,42.99007 
49 ,9.5697 ,0.68980 ,4.35058 ,42.68786 
50 ,9.7777 ,0.69187 ,4.35742 ,42.75502 
51 ,9.9860 ,0.69396 ,4.31978 ,42.38566 
52 ,10.1939 ,0.69603 ,4.30267 ,42.21777 
53 ,10.3865 ,0.69794 ,4.29582 ,42.15061 
54 ,10.5781 ,0.69985 ,4.27871 ,41.98272 
55 ,10.7702 ,0.70180 ,4.25133 ,41.71409 
56 ,10.9782 ,0.70387 ,4.25476 ,41.74767 
57 ,11.1705 ,0.70573 ,4.21369 ,41.34473 
58 ,11.3784 ,0.70791 ,4.22053 ,41.41189 
59 ,11.5705 ,0.70976 ,4.17947 ,41.00895 
60 ,11.7622 ,0.71181 ,4.19316 ,41.14326 
61 ,11.9385 ,0.71347 ,4.17605 ,40.97537 
62 ,12.1306 ,0.71532 ,4.13840 ,40.60601 
63 ,12.3069 ,0.71718 ,4.11445 ,40.37096 
64 ,12.5145 ,0.71919 ,4.10760 ,40.30380 
65 ,12.6909 ,0.72101 ,4.08365 ,40.06876 
66 ,12.8669 ,0.72277 ,4.08365 ,40.06876 
67 ,13.0591 ,0.72465 ,4.06996 ,39.93444 
68 ,13.2511 ,0.72653 ,4.03916 ,39.63224 
69 ,13.4271 ,0.72840 ,4.05285 ,39.76655 
70 ,13.6353 ,0.73040 ,4.01178 ,39.36361 
71 ,13.8432 ,0.73238 ,4.01863 ,39.43077 
72 ,14.0354 ,0.73442 ,3.98098 ,39.06141 
73 ,14.2116 ,0.73620 ,3.96387 ,38.89352 
74 ,14.4197 ,0.73835 ,3.97756 ,39.02783 
75 ,14.6275 ,0.74035 ,3.94334 ,38.69205 
76 ,14.8198 ,0.74220 ,3.92965 ,38.55773 
77 ,15.0279 ,0.74432 ,3.91938 ,38.45700 
78 ,15.2517 ,0.74656 ,3.88858 ,38.15479 
79 ,15.4280 ,0.74837 ,3.86805 ,37.95332 
80 ,15.6359 ,0.75051 ,3.85094 ,37.78543 
81 ,15.8122 ,0.75223 ,3.83383 ,37.61754 
82 ,15.9879 ,0.75396 ,3.81330 ,37.41607 
83 ,16.1964 ,0.75593 ,3.79619 ,37.24818 
84 ,16.4043 ,0.75813 ,3.81330 ,37.41607 
85 ,16.6126 ,0.76025 ,3.75854 ,36.87882 
86 ,16.8208 ,0.76229 ,3.77223 ,37.01313 
87 ,17.0127 ,0.76424 ,3.73459 ,36.64377 
88 ,17.2209 ,0.76621 ,3.73459 ,36.64377 
89 ,17.4287 ,0.76844 ,3.72432 ,36.54303 
90 ,17.6209 ,0.77020 ,3.71063 ,36.40872 
91 ,17.8131 ,0.77217 ,3.67641 ,36.07294 
92 ,18.0052 ,0.77412 ,3.67641 ,36.07294 
93 ,18.2132 ,0.77629 ,3.64219 ,35.73716 
94 ,18.4054 ,0.77812 ,3.62850 ,35.60284 
95 ,18.5817 ,0.77992 ,3.63534 ,35.67000 
96 ,18.8055 ,0.78210 ,3.60454 ,35.36779 
97 ,19.0136 ,0.78415 ,3.58401 ,35.16632 
98 ,19.2053 ,0.78607 ,3.57717 ,35.09917 
99 ,19.3975 ,0.78801 ,3.53952 ,34.72981 
100 ,19.6216 ,0.79021 ,3.54637 ,34.79696 
101 ,19.8139 ,0.79215 ,3.51215 ,34.46118 
102 ,20.0060 ,0.79405 ,3.51557 ,34.49476 
103 ,20.1821 ,0.79590 ,3.48819 ,34.22613 
104 ,20.3581 ,0.79763 ,3.47450 ,34.09182 
105 ,20.5503 ,0.79950 ,3.46424 ,33.99108 
106 ,20.7584 ,0.80167 ,3.45055 ,33.85677 
107 ,20.9664 ,0.80370 ,3.44028 ,33.75604 
108 ,21.1426 ,0.80552 ,3.42317 ,33.58814 
109 ,21.3342 ,0.80734 ,3.38210 ,33.18520 
110 ,21.5266 ,0.80928 ,3.38210 ,33.18520 
111 ,21.7186 ,0.81123 ,3.37526 ,33.11805 
112 ,21.9107 ,0.81307 ,3.33077 ,32.68153 
113 ,22.0871 ,0.81493 ,3.35473 ,32.91658 
114 ,22.2790 ,0.81679 ,3.31366 ,32.51364 
115 ,22.4871 ,0.81885 ,3.31708 ,32.54722 
116 ,22.6952 ,0.82090 ,3.28628 ,32.24501 
117 ,22.9033 ,0.82307 ,3.28286 ,32.21143 
118 ,23.0794 ,0.82482 ,3.26233 ,32.00996 
119 ,23.2874 ,0.82689 ,3.25206 ,31.90923 
120 ,23.4955 ,0.82897 ,3.22468 ,31.64060 
121 ,23.7036 ,0.83111 ,3.21100 ,31.50629 
122 ,23.9117 ,0.83314 ,3.20073 ,31.40555 
123 ,24.0879 ,0.83493 ,3.18704 ,31.27124 
124 ,24.2801 ,0.83687 ,3.16993 ,31.10335 
125 ,24.4720 ,0.83871 ,3.15966 ,31.00262 
126 ,24.6799 ,0.84079 ,3.13571 ,30.76757 
127 ,24.8882 ,0.84292 ,3.12544 ,30.66683 
128 ,25.0961 ,0.84496 ,3.09464 ,30.36463 
129 ,25.2722 ,0.84681 ,3.08438 ,30.26389 
130 ,25.4805 ,0.84876 ,3.08095 ,30.23031 
131 ,25.6881 ,0.85088 ,3.05700 ,29.99527 
132 ,25.8805 ,0.85289 ,3.05358 ,29.96169 
133 ,26.0564 ,0.85462 ,3.02278 ,29.65948 
134 ,26.2487 ,0.85656 ,3.02278 ,29.65948 
135 ,26.4564 ,0.85854 ,2.99198 ,29.35728 
136 ,26.6325 ,0.86040 ,2.97487 ,29.18939 
137 ,26.8248 ,0.86226 ,2.98855 ,29.32370 
138 ,27.0171 ,0.86418 ,2.96118 ,29.05507 
139 ,27.2410 ,0.86640 ,2.93038 ,28.75287 
140 ,27.4333 ,0.86834 ,2.93722 ,28.82003 
141 ,27.6574 ,0.87050 ,2.89273 ,28.38351 
142 ,27.8654 ,0.87261 ,2.89958 ,28.45066 
143 ,28.0735 ,0.87481 ,2.89273 ,28.38351 
144 ,28.2817 ,0.87684 ,2.85167 ,27.98057 
145 ,28.4896 ,0.87891 ,2.86193 ,28.08130 
146 ,28.6817 ,0.88079 ,2.82771 ,27.74552 
147 ,28.8738 ,0.88286 ,2.82087 ,27.67836 
148 ,29.0497 ,0.88466 ,2.82429 ,27.71194 
149 ,29.2259 ,0.88633 ,2.80034 ,27.47689 
150 ,29.4020 ,0.88807 ,2.76611 ,27.14111 
151 ,29.5941 ,0.88994 ,2.76269 ,27.10753 
152 ,29.8022 ,0.89200 ,2.74216 ,26.90606 
153 ,29.9943 ,0.89398 ,2.72847 ,26.77175 
154 ,30.2022 ,0.89605 ,2.70109 ,26.50312 
155 ,30.3784 ,0.89783 ,2.69425 ,26.43597 
156 ,30.6025 ,0.90001 ,2.67714 ,26.26807 
157 ,30.7945 ,0.90195 ,2.66003 ,26.10018 
158 ,30.9874 ,0.90385 ,2.64976 ,25.99945 
159 ,31.1946 ,0.90591 ,2.63949 ,25.89871 
160 ,31.4027 ,0.90806 ,2.61212 ,25.63009 
161 ,31.5790 ,0.90984 ,2.59843 ,25.49577 
162 ,31.8029 ,0.91201 ,2.58474 ,25.36146 
163 ,31.9950 ,0.91393 ,2.58132 ,25.32788 
164 ,32.2030 ,0.91603 ,2.56421 ,25.15999 
165 ,32.3951 ,0.91794 ,2.55394 ,25.05926 
166 ,32.5873 ,0.91985 ,2.54025 ,24.92494 
167 ,32.7792 ,0.92182 ,2.51287 ,24.65632 
168 ,32.9873 ,0.92376 ,2.52656 ,24.79063 
169 ,33.1953 ,0.92594 ,2.49234 ,24.45485 
170 ,33.4034 ,0.92807 ,2.47523 ,24.28696 
171 ,33.5956 ,0.92996 ,2.44785 ,24.01833 
172 ,33.7715 ,0.93173 ,2.44443 ,23.98475 
173 ,33.9474 ,0.93349 ,2.44101 ,23.95117 
174 ,34.1234 ,0.93524 ,2.42390 ,23.78328 
175 ,34.3320 ,0.93719 ,2.41021 ,23.64897 
176 ,34.5398 ,0.93934 ,2.38968 ,23.44750 
177 ,34.7480 ,0.94145 ,2.37256 ,23.27961 
178 ,34.9562 ,0.94345 ,2.35545 ,23.11171 
179 ,35.1639 ,0.94563 ,2.32465 ,22.80951 
180 ,35.3565 ,0.94754 ,2.33150 ,22.87667 
181 ,35.5482 ,0.94945 ,2.32808 ,22.84309 
182 ,35.7405 ,0.95135 ,2.31097 ,22.67520 
183 ,35.9486 ,0.95346 ,2.27674 ,22.33941 
184 ,36.1563 ,0.95552 ,2.26648 ,22.23868 
185 ,36.3327 ,0.95735 ,2.24252 ,22.00363 
186 ,36.5248 ,0.95929 ,2.24937 ,22.07079 
187 ,36.7488 ,0.96137 ,2.21857 ,21.76858 
188 ,36.9249 ,0.96328 ,2.21172 ,21.70143 
189 ,37.1327 ,0.96528 ,2.20830 ,21.66785 
190 ,37.3406 ,0.96731 ,2.16723 ,21.26491 
191 ,37.5332 ,0.96929 ,2.16723 ,21.26491 
192 ,37.7411 ,0.97137 ,2.14670 ,21.06344 
193 ,37.9332 ,0.97325 ,2.14670 ,21.06344 
194 ,38.1093 ,0.97512 ,2.12617 ,20.86197 
195 ,38.3013 ,0.97701 ,2.09537 ,20.55976 
196 ,38.4935 ,0.97889 ,2.08510 ,20.45903 
197 ,38.7017 ,0.98101 ,2.05088 ,20.12325 
198 ,38.8938 ,0.98292 ,2.06115 ,20.22398 
199 ,39.0858 ,0.98480 ,2.04404 ,20.05609 
200 ,39.2619 ,0.98663 ,2.01666 ,19.78746 
201 ,39.4859 ,0.98878 ,2.02350 ,19.85462 
202 ,39.6620 ,0.99063 ,1.99955 ,19.61957 
203 ,39.8380 ,0.99235 ,1.99270 ,19.55241 
204 ,40.0460 ,0.99440 ,1.98244 ,19.45168 
205 ,40.2223 ,0.99624 ,1.95164 ,19.14948 
206 ,40.4144 ,0.99812 ,1.95848 ,19.21663 
207 ,40.6381 ,1.00029 ,1.92768 ,18.91443 
208 ,40.8305 ,1.00217 ,1.90373 ,18.67938 
209 ,41.0384 ,1.00433 ,1.90031 ,18.64580 
210 ,41.2147 ,1.00617 ,1.89346 ,18.57864 
211 ,41.4227 ,1.00815 ,1.86951 ,18.34360 
212 ,41.5985 ,1.01003 ,1.87635 ,18.41075 
213 ,41.7748 ,1.01179 ,1.84555 ,18.10855 
214 ,41.9509 ,1.01350 ,1.84897 ,18.14213 
215 ,42.1590 ,1.01552 ,1.81817 ,17.83992 
216 ,42.3511 ,1.01743 ,1.81475 ,17.80634 
217 ,42.5431 ,1.01939 ,1.79080 ,17.57129 
218 ,42.7193 ,1.02121 ,1.78053 ,17.47056 
219 ,42.9271 ,1.02323 ,1.77711 ,17.43698 
220 ,43.1031 ,1.02501 ,1.75657 ,17.23551 
221 ,43.2954 ,1.02694 ,1.72920 ,16.96689 
222 ,43.4715 ,1.02873 ,1.72578 ,16.93331 
223 ,43.6474 ,1.03046 ,1.72920 ,16.96689 
224 ,43.8235 ,1.03228 ,1.69155 ,16.59752 
225 ,44.0158 ,1.03415 ,1.68471 ,16.53037 
226 ,44.2077 ,1.03603 ,1.68471 ,16.53037 
227 ,44.3999 ,1.03791 ,1.65391 ,16.22816 
228 ,44.5760 ,1.03981 ,1.66075 ,16.29532 
229 ,44.7518 ,1.04148 ,1.64707 ,16.16101 
230 ,44.9441 ,1.04338 ,1.62311 ,15.92596 
231 ,45.1522 ,1.04549 ,1.60942 ,15.79164 
232 ,45.3441 ,1.04739 ,1.59573 ,15.65733 
233 ,45.5524 ,1.04948 ,1.58547 ,15.55660 
234 ,45.7284 ,1.05125 ,1.56836 ,15.38871 
235 ,45.9526 ,1.05338 ,1.54440 ,15.15366 
236 ,46.1606 ,1.05558 ,1.52387 ,14.95219 
237 ,46.3685 ,1.05762 ,1.54782 ,15.18724 
238 ,46.5607 ,1.05948 ,1.49991 ,14.71714 
239 ,46.7529 ,1.06147 ,1.51360 ,14.85145 
240 ,46.9450 ,1.06339 ,1.47253 ,14.44851 
241 ,47.1530 ,1.06544 ,1.48280 ,14.54925 
242 ,47.3451 ,1.06737 ,1.44174 ,14.14631 
243 ,47.5531 ,1.06947 ,1.44858 ,14.21346 
244 ,47.7292 ,1.07130 ,1.44174 ,14.14631 
245 ,47.9368 ,1.07332 ,1.40409 ,13.77695 
246 ,48.1297 ,1.07520 ,1.40751 ,13.81053 
247 ,48.3374 ,1.07738 ,1.39725 ,13.70979 
248 ,48.5456 ,1.07929 ,1.37671 ,13.50832 
249 ,48.7376 ,1.08129 ,1.36303 ,13.37401 
250 ,48.9297 ,1.08327 ,1.35960 ,13.34043 
251 ,49.1378 ,1.08534 ,1.31854 ,12.93749 
252 ,49.3619 ,1.08750 ,1.31169 ,12.87033 
253 ,49.5537 ,1.08946 ,1.29800 ,12.73602 
254 ,49.7300 ,1.09127 ,1.30143 ,12.76960 
255 ,49.9221 ,1.09317 ,1.27747 ,12.53455 
256 ,50.1141 ,1.09503 ,1.27747 ,12.53455 
257 ,50.3223 ,1.09719 ,1.24667 ,12.23235 
258 ,50.5143 ,1.09914 ,1.24325 ,12.19877 
259 ,50.6904 ,1.10091 ,1.22956 ,12.06445 
260 ,50.8984 ,1.10295 ,1.22272 ,11.99730 
261 ,51.1063 ,1.10503 ,1.20218 ,11.79583 
262 ,51.2987 ,1.10691 ,1.18850 ,11.66151 
263 ,51.5066 ,1.10898 ,1.19192 ,11.69509 
264 ,51.6988 ,1.11086 ,1.14058 ,11.19142 
265 ,51.9069 ,1.11299 ,1.14743 ,11.25857 
266 ,52.1151 ,1.11507 ,1.14401 ,11.22500 
267 ,52.3233 ,1.11720 ,1.12690 ,11.05710 
268 ,52.5313 ,1.11929 ,1.11321 ,10.92279 
269 ,52.7071 ,1.12109 ,1.07899 ,10.58701 
270 ,52.8836 ,1.12281 ,1.09610 ,10.75490 
271 ,53.0752 ,1.12468 ,1.07556 ,10.55343 
272 ,53.2511 ,1.12643 ,1.03792 ,10.18407 
273 ,53.4436 ,1.12835 ,1.05161 ,10.31838 
274 ,53.6517 ,1.13047 ,1.04819 ,10.28480 
275 ,53.8434 ,1.13235 ,1.01054 ,9.91544 
276 ,54.0518 ,1.13443 ,1.01396 ,9.94902 
277 ,54.2275 ,1.13631 ,0.99343 ,9.74755 
278 ,54.4040 ,1.13797 ,0.96948 ,9.51250 
279 ,54.5800 ,1.13975 ,0.96948 ,9.51250 
280 ,54.7562 ,1.14151 ,0.94552 ,9.27745 
281 ,54.9642 ,1.14355 ,0.92841 ,9.10956 
282 ,55.1724 ,1.14565 ,0.93525 ,9.17672 
283 ,55.3643 ,1.14755 ,0.90446 ,8.87451 
284 ,55.5725 ,1.14966 ,0.90103 ,8.84094 
285 ,55.7804 ,1.15166 ,0.88734 ,8.70662 
286 ,55.9726 ,1.15363 ,0.87366 ,8.57231 
287 ,56.1643 ,1.15549 ,0.84628 ,8.30368 
288 ,56.3408 ,1.15737 ,0.83943 ,8.23653 
289 ,56.5327 ,1.15938 ,0.84970 ,8.33726 
290 ,56.7089 ,1.16106 ,0.82575 ,8.10221 
291 ,56.9009 ,1.16285 ,0.81206 ,7.96790 
292 ,57.0930 ,1.16478 ,0.80863 ,7.93432 
293 ,57.2851 ,1.16672 ,0.78126 ,7.66570 
294 ,57.4613 ,1.16857 ,0.77784 ,7.63212 
295 ,57.6534 ,1.17043 ,0.76072 ,7.46423 
296 ,57.8449 ,1.17250 ,0.74704 ,7.32991 
297 ,58.0370 ,1.17421 ,0.73677 ,7.22918 
298 ,58.2294 ,1.17613 ,0.74361 ,7.29633 
299 ,58.4536 ,1.17842 ,0.70939 ,6.96055 
300 ,58.6456 ,1.18031 ,0.68886 ,6.75908 
301 ,58.8217 ,1.18212 ,0.69228 ,6.79266 
302 ,59.0300 ,1.18424 ,0.67517 ,6.62477 
303 ,59.2220 ,1.18613 ,0.65121 ,6.38972 
304 ,59.4141 ,1.18804 ,0.65121 ,6.38972 
305 ,59.6221 ,1.19014 ,0.62042 ,6.08752 
306 ,59.8302 ,1.19214 ,0.62726 ,6.15467 
307 ,60.0222 ,1.19418 ,0.60330 ,5.91962 
308 ,60.2304 ,1.19623 ,0.60330 ,5.91962 
309 ,60.4226 ,1.19810 ,0.57251 ,5.61742 
310 ,60.6306 ,1.20021 ,0.57593 ,5.65100 
311 ,60.9664 ,1.20286 ,0.55197 ,5.41595 
312 ,61.1746 ,1.20562 ,0.53486 ,5.24806 
313 ,61.3667 ,1.20753 ,0.51775 ,5.08017 
314 ,61.5910 ,1.20958 ,0.49380 ,4.84512 
315 ,61.8147 ,1.21199 ,0.51091 ,5.01301 
316 ,62.0232 ,1.21400 ,0.46984 ,4.61007 
317 ,62.2313 ,1.21626 ,0.46642 ,4.57649 
318 ,62.4392 ,1.21831 ,0.45273 ,4.44218 
319 ,62.6312 ,1.22019 ,0.46642 ,4.57649 
320 ,62.8074 ,1.22197 ,0.43562 ,4.27429 
321 ,63.0155 ,1.22407 ,0.41166 ,4.03924 
322 ,63.2236 ,1.22614 ,0.41509 ,4.07282 
323 ,63.4318 ,1.22805 ,0.40482 ,3.97208 
324 ,63.6398 ,1.23029 ,0.37060 ,3.63630 
325 ,63.8317 ,1.23216 ,0.37744 ,3.70346 
326 ,64.0239 ,1.23407 ,0.35349 ,3.46841 
327 ,64.2160 ,1.23604 ,0.33638 ,3.30052 
328 ,64.4081 ,1.23789 ,0.33980 ,3.33410 
329 ,64.6161 ,1.24006 ,0.30558 ,2.99831 
330 ,64.8084 ,1.24195 ,0.31926 ,3.13263 
331 ,65.0161 ,1.24399 ,0.28504 ,2.79684 
332 ,65.2085 ,1.24596 ,0.30215 ,2.96473 
333 ,65.4164 ,1.24806 ,0.27135 ,2.66253 
334 ,65.6086 ,1.24993 ,0.26793 ,2.62895 
335 ,65.8163 ,1.25206 ,0.24740 ,2.42748 
336 ,66.0087 ,1.25389 ,0.22687 ,2.22601 
337 ,66.1847 ,1.25583 ,0.21660 ,2.12528 
338 ,66.3771 ,1.25770 ,0.20633 ,2.02454 
339 ,66.5689 ,1.25952 ,0.21660 ,2.12528 
340 ,66.7772 ,1.26166 ,0.18922 ,1.85665 
341 ,67.0010 ,1.26377 ,0.16869 ,1.65518 
342 ,67.2092 ,1.26586 ,0.15500 ,1.52087 
343 ,67.4174 ,1.26804 ,0.15500 ,1.52087 
344 ,67.6254 ,1.27010 ,0.13789 ,1.35298 
345 ,67.8334 ,1.27207 ,0.14816 ,1.45371 
346 ,68.0575 ,1.27440 ,0.12420 ,1.21866 
347 ,68.2333 ,1.27629 ,0.11393 ,1.11793 
348 ,68.4097 ,1.27800 ,0.12762 ,1.25224 
349 ,68.5858 ,1.27978 ,0.09340 ,0.91646 
350 ,68.7778 ,1.28163 ,0.08998 ,0.88288 
351 ,68.9700 ,1.28357 ,0.08314 ,0.81572 
352 ,69.1941 ,1.28567 ,0.04891 ,0.47994 
353 ,69.4022 ,1.28774 ,0.04891 ,0.47994 
354 ,69.6104 ,1.29001 ,0.04207 ,0.41278 
355 ,69.8022 ,1.29185 ,0.00785 ,0.07700 
356 ,70.0104 ,1.29392 ,0.01469 ,0.14416 
357 ,70.2025 ,1.29593 ,0.00100 ,0.00984 
358 ,70.4105 ,1.29785 ,-0.00926 ,-0.09089 
359 ,70.6346 ,1.30020 ,-0.00926 ,-0.09089 
360 ,70.8265 ,1.30209 ,-0.02295 ,-0.22520 
361 ,71.0188 ,1.30400 ,-0.04348 ,-0.42667 
362 ,71.2269 ,1.30613 ,-0.04691 ,-0.46025 
363 ,71.4350 ,1.30817 ,-0.05717 ,-0.56099 
364 ,71.6271 ,1.31014 ,-0.07428 ,-0.72888 
365 ,71.8031 ,1.31189 ,-0.08455 ,-0.82961 
366 ,71.9792 ,1.31372 ,-0.09482 ,-0.93035 
367 ,72.1713 ,1.31553 ,-0.07771 ,-0.76246 
368 ,72.3629 ,1.31762 ,-0.10508 ,-1.03108 
369 ,72.5551 ,1.31937 ,-0.10851 ,-1.06466 
370 ,72.7310 ,1.32119 ,-0.10851 ,-1.06466 
371 ,72.9235 ,1.32305 ,-0.13588 ,-1.33329 
372 ,73.1315 ,1.32517 ,-0.14273 ,-1.40045 
373 ,73.3078 ,1.32694 ,-0.12904 ,-1.26613 
374 ,73.5157 ,1.32898 ,-0.15984 ,-1.56834 
375 ,73.7076 ,1.33088 ,-0.17353 ,-1.70265 
376 ,73.8840 ,1.33270 ,-0.18037 ,-1.76981 
377 ,74.0921 ,1.33470 ,-0.19406 ,-1.90412 
378 ,74.2840 ,1.33670 ,-0.20775 ,-2.03843 
379 ,74.4603 ,1.33850 ,-0.20775 ,-2.03843 
380 ,74.6522 ,1.34030 ,-0.21117 ,-2.07201 
381 ,74.8440 ,1.34232 ,-0.22486 ,-2.20632 
382 ,75.0361 ,1.34416 ,-0.24881 ,-2.44137 
383 ,75.2126 ,1.34602 ,-0.23170 ,-2.27348 
384 ,75.4206 ,1.34808 ,-0.26593 ,-2.60926 
385 ,75.6124 ,1.34990 ,-0.24881 ,-2.44137 
386 ,75.8048 ,1.35187 ,-0.28988 ,-2.84431 
387 ,76.0288 ,1.35410 ,-0.27619 ,-2.71000 
388 ,76.2209 ,1.35601 ,-0.28988 ,-2.84431 
389 ,76.4130 ,1.35802 ,-0.30699 ,-3.01220 
390 ,76.6210 ,1.36007 ,-0.32068 ,-3.14652 
391 ,76.8133 ,1.36197 ,-0.32752 ,-3.21367 
392 ,77.0212 ,1.36404 ,-0.33779 ,-3.31441 
393 ,77.2133 ,1.36590 ,-0.33095 ,-3.24725 
394 ,77.4055 ,1.36787 ,-0.35490 ,-3.48230 
395 ,77.5975 ,1.36987 ,-0.36859 ,-3.61661 
396 ,77.8055 ,1.37187 ,-0.35490 ,-3.48230 
397 ,77.9818 ,1.37369 ,-0.38570 ,-3.78450 
398 ,78.1897 ,1.37573 ,-0.38228 ,-3.75093 
399 ,78.3657 ,1.37749 ,-0.39597 ,-3.88524 
400 ,78.5575 ,1.37936 ,-0.39939 ,-3.91882 
401 ,78.7342 ,1.38119 ,-0.40281 ,-3.95240 
402 ,78.9420 ,1.38329 ,-0.43019 ,-4.22102 
403 ,79.1501 ,1.38535 ,-0.41308 ,-4.05313 
404 ,79.3261 ,1.38707 ,-0.43361 ,-4.25460 
405 ,79.5344 ,1.38921 ,-0.45414 ,-4.45607 
406 ,79.7264 ,1.39106 ,-0.44388 ,-4.35534 
407 ,79.9020 ,1.39286 ,-0.47810 ,-4.69112 
408 ,80.0942 ,1.39471 ,-0.46441 ,-4.55681 
409 ,80.2704 ,1.39657 ,-0.47126 ,-4.62396 
410 ,80.4627 ,1.39844 ,-0.49179 ,-4.82543 
411 ,80.6548 ,1.40033 ,-0.51232 ,-5.02690 
412 ,80.8625 ,1.40245 ,-0.52259 ,-5.12764 
413 ,81.0387 ,1.40421 ,-0.53285 ,-5.22837 
414 ,81.2468 ,1.40629 ,-0.52943 ,-5.19479 
415 ,81.4551 ,1.40835 ,-0.52943 ,-5.19479 
416 ,81.6468 ,1.41024 ,-0.54654 ,-5.36268 
417 ,81.8232 ,1.41205 ,-0.56365 ,-5.53058 
418 ,82.0311 ,1.41411 ,-0.54312 ,-5.32911 
419 ,82.2075 ,1.41593 ,-0.56365 ,-5.53058 
420 ,82.3991 ,1.41779 ,-0.58761 ,-5.76562 
421 ,82.5757 ,1.41959 ,-0.59103 ,-5.79920 
422 ,82.7835 ,1.42167 ,-0.60130 ,-5.89994 
423 ,82.9598 ,1.42343 ,-0.60814 ,-5.96709 
424 ,83.1677 ,1.42546 ,-0.60814 ,-5.96709 
425 ,83.3919 ,1.42750 ,-0.61841 ,-6.06783 
426 ,83.6001 ,1.42975 ,-0.62868 ,-6.16856 
427 ,83.8080 ,1.43189 ,-0.64921 ,-6.37003 
428 ,83.9841 ,1.43368 ,-0.64579 ,-6.33646 
429 ,84.1600 ,1.43540 ,-0.66632 ,-6.53793 
430 ,84.3682 ,1.43750 ,-0.64921 ,-6.37003 
431 ,84.5444 ,1.43929 ,-0.66974 ,-6.57150 
432 ,84.7364 ,1.44116 ,-0.68343 ,-6.70582 
433 ,84.9285 ,1.44305 ,-0.67659 ,-6.63866 
434 ,85.1368 ,1.44515 ,-0.68685 ,-6.73940 
435 ,85.3287 ,1.44712 ,-0.69712 ,-6.84013 
436 ,85.5366 ,1.44916 ,-0.72107 ,-7.07518 
437 ,85.7288 ,1.45106 ,-0.72792 ,-7.14233 
438 ,85.9369 ,1.45315 ,-0.73134 ,-7.17591 
439 ,86.1288 ,1.45503 ,-0.74161 ,-7.27665 
440 ,86.3371 ,1.45712 ,-0.73134 ,-7.17591 
441 ,86.5451 ,1.45926 ,-0.77241 ,-7.57885 
442 ,86.7373 ,1.46119 ,-0.76214 ,-7.47812 
443 ,86.9613 ,1.46340 ,-0.78267 ,-7.67959 
444 ,87.1533 ,1.46530 ,-0.76556 ,-7.51170 
445 ,87.3454 ,1.46723 ,-0.78952 ,-7.74674 
446 ,87.5215 ,1.46904 ,-0.81689 ,-8.01537 
447 ,87.6977 ,1.47081 ,-0.81005 ,-7.94821 
448 ,87.8894 ,1.47264 ,-0.81005 ,-7.94821 
449 ,88.0816 ,1.47457 ,-0.81005 ,-7.94821 
450 ,88.2738 ,1.47652 ,-0.82716 ,-8.11611 
451 ,88.4495 ,1.47838 ,-0.84085 ,-8.25042 
452 ,88.6417 ,1.48024 ,-0.85796 ,-8.41831 
453 ,88.8180 ,1.48198 ,-0.84769 ,-8.31758 
454 ,89.0260 ,1.48405 ,-0.86823 ,-8.51904 
455 ,89.2182 ,1.48591 ,-0.86138 ,-8.45189 
456 ,89.4101 ,1.48792 ,-0.88534 ,-8.68694 
457 ,89.6024 ,1.48978 ,-0.88534 ,-8.68694 
458 ,89.7945 ,1.49171 ,-0.89218 ,-8.75409 
459 ,90.0025 ,1.49383 ,-0.91614 ,-8.98914 
460 ,90.2106 ,1.49577 ,-0.90929 ,-8.92198 
461 ,90.4183 ,1.49793 ,-0.92298 ,-9.05630 
462 ,90.6108 ,1.49987 ,-0.93667 ,-9.19061 
