Data stamp = , 12-04-2022 18:21:55 854

Calibration Values: 
Slope = , 26.54 , g/V 
Offset Voltage at no contact = , -0.501760 , V 

No , Time , Stage Position ,   Mass , Force 
   ,  (s) ,      (mm)      ,   (g)  , (mN)  

1 ,0.0000 ,0.54935 ,5.42172 ,53.19787 
2 ,0.2060 ,0.54943 ,5.43540 ,53.33219 
3 ,0.5426 ,0.55030 ,5.40803 ,53.06356 
4 ,0.7505 ,0.55183 ,5.42172 ,53.19787 
5 ,0.9428 ,0.55354 ,5.41829 ,53.16429 
6 ,1.1508 ,0.55553 ,5.40803 ,53.06356 
7 ,1.3269 ,0.55734 ,5.43883 ,53.36576 
8 ,1.5188 ,0.55921 ,5.41145 ,53.09714 
9 ,1.7270 ,0.56139 ,5.40460 ,53.02998 
10 ,1.9192 ,0.56330 ,5.39092 ,52.89567 
11 ,2.1113 ,0.56520 ,5.38065 ,52.79493 
12 ,2.3194 ,0.56728 ,5.36012 ,52.59346 
13 ,2.5114 ,0.56915 ,5.34301 ,52.42557 
14 ,2.6873 ,0.57095 ,5.33274 ,52.32484 
15 ,2.8636 ,0.57279 ,5.30536 ,52.05621 
16 ,3.0554 ,0.57463 ,5.29167 ,51.92190 
17 ,3.2475 ,0.57661 ,5.27456 ,51.75401 
18 ,3.4236 ,0.57837 ,5.26087 ,51.61969 
19 ,3.6158 ,0.58027 ,5.23692 ,51.38464 
20 ,3.7917 ,0.58202 ,5.23350 ,51.35107 
21 ,3.9515 ,0.58374 ,5.23350 ,51.35107 
22 ,4.1276 ,0.58543 ,5.18559 ,50.88097 
23 ,4.3036 ,0.58713 ,5.16848 ,50.71308 
24 ,4.4797 ,0.58890 ,5.15136 ,50.54519 
25 ,4.6558 ,0.59062 ,5.16505 ,50.67950 
26 ,4.8318 ,0.59242 ,5.13768 ,50.41087 
27 ,4.9920 ,0.59414 ,5.11372 ,50.17583 
28 ,5.1520 ,0.59575 ,5.11372 ,50.17583 
29 ,5.3126 ,0.59735 ,5.08292 ,49.87362 
30 ,5.4884 ,0.59897 ,5.07950 ,49.84004 
31 ,5.6646 ,0.60075 ,5.05212 ,49.57142 
32 ,5.8403 ,0.60252 ,5.03843 ,49.43710 
33 ,6.0167 ,0.60432 ,5.03501 ,49.40352 
34 ,6.1929 ,0.60605 ,5.01448 ,49.20205 
35 ,6.3852 ,0.60789 ,4.98368 ,48.89985 
36 ,6.5768 ,0.60984 ,4.98710 ,48.93343 
37 ,6.7530 ,0.61166 ,4.95630 ,48.63122 
38 ,6.9288 ,0.61338 ,4.96657 ,48.73196 
39 ,7.1213 ,0.61529 ,4.93235 ,48.39618 
40 ,7.2972 ,0.61713 ,4.90839 ,48.16113 
41 ,7.4894 ,0.61905 ,4.90155 ,48.09397 
42 ,7.6653 ,0.62079 ,4.87417 ,47.82534 
43 ,7.8416 ,0.62254 ,4.85706 ,47.65745 
44 ,8.0332 ,0.62439 ,4.83995 ,47.48956 
45 ,8.2097 ,0.62617 ,4.83652 ,47.45598 
46 ,8.4018 ,0.62813 ,4.80915 ,47.18736 
47 ,8.5779 ,0.62993 ,4.80573 ,47.15378 
48 ,8.7538 ,0.63169 ,4.79546 ,47.05304 
49 ,8.9458 ,0.63357 ,4.77493 ,46.85157 
50 ,9.1220 ,0.63530 ,4.74755 ,46.58295 
51 ,9.2982 ,0.63708 ,4.74413 ,46.54937 
52 ,9.4902 ,0.63891 ,4.73044 ,46.41506 
53 ,9.6659 ,0.64073 ,4.71675 ,46.28074 
54 ,9.8425 ,0.64253 ,4.68253 ,45.94496 
55 ,10.0345 ,0.64440 ,4.66884 ,45.81065 
56 ,10.2105 ,0.64619 ,4.67568 ,45.87780 
57 ,10.3866 ,0.64796 ,4.64146 ,45.54202 
58 ,10.5627 ,0.64971 ,4.64146 ,45.54202 
59 ,10.7548 ,0.65159 ,4.62777 ,45.40771 
60 ,10.9309 ,0.65344 ,4.61408 ,45.27339 
61 ,11.1229 ,0.65523 ,4.59697 ,45.10550 
62 ,11.3151 ,0.65723 ,4.56617 ,44.80330 
63 ,11.5390 ,0.65935 ,4.55249 ,44.66898 
64 ,11.7153 ,0.66121 ,4.54222 ,44.56825 
65 ,11.9071 ,0.66316 ,4.52853 ,44.43394 
66 ,12.0832 ,0.66498 ,4.50115 ,44.16531 
67 ,12.2591 ,0.66670 ,4.48746 ,44.03100 
68 ,12.4516 ,0.66852 ,4.47378 ,43.89668 
69 ,12.6115 ,0.67034 ,4.46351 ,43.79595 
70 ,12.7877 ,0.67195 ,4.44298 ,43.59448 
71 ,12.9799 ,0.67392 ,4.42586 ,43.42659 
72 ,13.1557 ,0.67568 ,4.41560 ,43.32585 
73 ,13.3475 ,0.67757 ,4.39507 ,43.12438 
74 ,13.5399 ,0.67937 ,4.36769 ,42.85576 
75 ,13.7320 ,0.68144 ,4.37453 ,42.92291 
76 ,13.9080 ,0.68319 ,4.36427 ,42.82218 
77 ,14.0840 ,0.68489 ,4.33347 ,42.51997 
78 ,14.2922 ,0.68693 ,4.33347 ,42.51997 
79 ,14.4523 ,0.68872 ,4.28556 ,42.04988 
80 ,14.6282 ,0.69034 ,4.27871 ,41.98272 
81 ,14.8204 ,0.69221 ,4.27871 ,41.98272 
82 ,14.9964 ,0.69404 ,4.25818 ,41.78125 
83 ,15.1724 ,0.69579 ,4.25133 ,41.71409 
84 ,15.3646 ,0.69766 ,4.21369 ,41.34473 
85 ,15.5565 ,0.69955 ,4.22738 ,41.47905 
86 ,15.7488 ,0.70155 ,4.21369 ,41.34473 
87 ,15.9248 ,0.70339 ,4.17605 ,40.97537 
88 ,16.1010 ,0.70509 ,4.14183 ,40.63959 
89 ,16.2931 ,0.70690 ,4.14525 ,40.67317 
90 ,16.4690 ,0.70879 ,4.13498 ,40.57243 
91 ,16.6612 ,0.71057 ,4.12129 ,40.43812 
92 ,16.8533 ,0.71263 ,4.12129 ,40.43812 
93 ,17.0293 ,0.71436 ,4.10076 ,40.23665 
94 ,17.2212 ,0.71630 ,4.06312 ,39.86729 
95 ,17.3973 ,0.71802 ,4.05969 ,39.83371 
96 ,17.5732 ,0.71980 ,4.04943 ,39.73297 
97 ,17.7495 ,0.72156 ,4.03232 ,39.56508 
98 ,17.9576 ,0.72363 ,4.01178 ,39.36361 
99 ,18.1496 ,0.72550 ,3.97756 ,39.02783 
100 ,18.3258 ,0.72731 ,3.98098 ,39.06141 
101 ,18.5018 ,0.72908 ,3.95018 ,38.75920 
102 ,18.6777 ,0.73088 ,3.94334 ,38.69205 
103 ,18.8543 ,0.73261 ,3.94334 ,38.69205 
104 ,19.0621 ,0.73462 ,3.91596 ,38.42342 
105 ,19.2382 ,0.73643 ,3.89885 ,38.25553 
106 ,19.4143 ,0.73824 ,3.90227 ,38.28911 
107 ,19.6224 ,0.74016 ,3.87832 ,38.05406 
108 ,19.8306 ,0.74226 ,3.87147 ,37.98690 
109 ,20.0224 ,0.74429 ,3.83041 ,37.58396 
110 ,20.1985 ,0.74609 ,3.81330 ,37.41607 
111 ,20.3907 ,0.74797 ,3.82356 ,37.51681 
112 ,20.5668 ,0.74971 ,3.80645 ,37.34891 
113 ,20.7589 ,0.75159 ,3.79276 ,37.21460 
114 ,20.9510 ,0.75354 ,3.77908 ,37.08029 
115 ,21.1426 ,0.75542 ,3.74485 ,36.74450 
116 ,21.3026 ,0.75723 ,3.73801 ,36.67735 
117 ,21.4949 ,0.75892 ,3.73801 ,36.67735 
118 ,21.7034 ,0.76105 ,3.71063 ,36.40872 
119 ,21.8950 ,0.76300 ,3.69010 ,36.20725 
120 ,22.0715 ,0.76477 ,3.69694 ,36.27441 
121 ,22.2634 ,0.76666 ,3.65930 ,35.90505 
122 ,22.4556 ,0.76863 ,3.65588 ,35.87147 
123 ,22.6316 ,0.77038 ,3.64219 ,35.73716 
124 ,22.8078 ,0.77211 ,3.61481 ,35.46853 
125 ,22.9839 ,0.77399 ,3.59086 ,35.23348 
126 ,23.1598 ,0.77559 ,3.58743 ,35.19990 
127 ,23.3360 ,0.77737 ,3.57717 ,35.09917 
128 ,23.5281 ,0.77936 ,3.57717 ,35.09917 
129 ,23.7362 ,0.78126 ,3.56690 ,34.99843 
130 ,23.9123 ,0.78317 ,3.55321 ,34.86412 
131 ,24.1042 ,0.78511 ,3.51899 ,34.52834 
132 ,24.2963 ,0.78698 ,3.51557 ,34.49476 
133 ,24.4724 ,0.78877 ,3.50872 ,34.42760 
134 ,24.6804 ,0.79078 ,3.48819 ,34.22613 
135 ,24.8726 ,0.79262 ,3.46766 ,34.02466 
136 ,25.0644 ,0.79462 ,3.44370 ,33.78961 
137 ,25.2408 ,0.79647 ,3.42317 ,33.58814 
138 ,25.4326 ,0.79836 ,3.42659 ,33.62172 
139 ,25.6089 ,0.80017 ,3.40606 ,33.42025 
140 ,25.8008 ,0.80209 ,3.38553 ,33.21878 
141 ,25.9931 ,0.80400 ,3.38553 ,33.21878 
142 ,26.1688 ,0.80569 ,3.36842 ,33.05089 
143 ,26.3452 ,0.80749 ,3.34446 ,32.81584 
144 ,26.5213 ,0.80929 ,3.32393 ,32.61437 
145 ,26.7134 ,0.81119 ,3.33419 ,32.71511 
146 ,26.8897 ,0.81295 ,3.30339 ,32.41290 
147 ,27.0976 ,0.81486 ,3.29313 ,32.31217 
148 ,27.2895 ,0.81684 ,3.27259 ,32.11070 
149 ,27.4816 ,0.81884 ,3.23153 ,31.70776 
150 ,27.6737 ,0.82079 ,3.24864 ,31.87565 
151 ,27.8498 ,0.82251 ,3.23495 ,31.74134 
152 ,28.0416 ,0.82447 ,3.22468 ,31.64060 
153 ,28.2340 ,0.82630 ,3.20757 ,31.47271 
154 ,28.4260 ,0.82829 ,3.18362 ,31.23766 
155 ,28.6181 ,0.83015 ,3.16651 ,31.06977 
156 ,28.7942 ,0.83197 ,3.15624 ,30.96904 
157 ,28.9863 ,0.83388 ,3.12202 ,30.63325 
158 ,29.1624 ,0.83562 ,3.11518 ,30.56610 
159 ,29.3542 ,0.83756 ,3.11518 ,30.56610 
160 ,29.5306 ,0.83933 ,3.10491 ,30.46536 
161 ,29.7383 ,0.84133 ,3.08438 ,30.26389 
162 ,29.9307 ,0.84320 ,3.07411 ,30.16316 
163 ,30.1068 ,0.84509 ,3.04673 ,29.89453 
164 ,30.2830 ,0.84688 ,3.02962 ,29.72664 
165 ,30.4746 ,0.84875 ,3.02620 ,29.69306 
166 ,30.6509 ,0.85050 ,3.01935 ,29.62590 
167 ,30.8428 ,0.85239 ,2.98855 ,29.32370 
168 ,31.0192 ,0.85424 ,2.96460 ,29.08865 
169 ,31.2111 ,0.85605 ,2.96460 ,29.08865 
170 ,31.4193 ,0.85818 ,2.96802 ,29.12223 
171 ,31.5953 ,0.85996 ,2.94064 ,28.85360 
172 ,31.7716 ,0.86174 ,2.95091 ,28.95434 
173 ,31.9636 ,0.86363 ,2.91669 ,28.61856 
174 ,32.1717 ,0.86557 ,2.90985 ,28.55140 
175 ,32.3637 ,0.86760 ,2.87905 ,28.24919 
176 ,32.5555 ,0.86952 ,2.89273 ,28.38351 
177 ,32.7319 ,0.87137 ,2.86193 ,28.08130 
178 ,32.9241 ,0.87325 ,2.83798 ,27.84625 
179 ,33.1161 ,0.87519 ,2.83114 ,27.77910 
180 ,33.2922 ,0.87695 ,2.81745 ,27.64479 
181 ,33.4842 ,0.87888 ,2.78665 ,27.34258 
182 ,33.6599 ,0.88057 ,2.77638 ,27.24185 
183 ,33.8365 ,0.88235 ,2.76954 ,27.17469 
184 ,34.0126 ,0.88415 ,2.75927 ,27.07395 
185 ,34.1885 ,0.88595 ,2.75585 ,27.04038 
186 ,34.3645 ,0.88762 ,2.71820 ,26.67101 
187 ,34.5406 ,0.88942 ,2.72847 ,26.77175 
188 ,34.7004 ,0.89112 ,2.71478 ,26.63744 
189 ,34.8767 ,0.89278 ,2.70452 ,26.53670 
190 ,35.0687 ,0.89457 ,2.69083 ,26.40239 
191 ,35.2610 ,0.89648 ,2.65318 ,26.03303 
192 ,35.4530 ,0.89852 ,2.65318 ,26.03303 
193 ,35.6291 ,0.90029 ,2.63949 ,25.89871 
194 ,35.8211 ,0.90221 ,2.62923 ,25.79798 
195 ,35.9970 ,0.90393 ,2.62581 ,25.76440 
196 ,36.1893 ,0.90581 ,2.59501 ,25.46220 
197 ,36.3654 ,0.90768 ,2.57105 ,25.22715 
198 ,36.5575 ,0.90953 ,2.57105 ,25.22715 
199 ,36.7337 ,0.91134 ,2.56078 ,25.12641 
200 ,36.9257 ,0.91330 ,2.54367 ,24.95852 
201 ,37.1174 ,0.91521 ,2.54025 ,24.92494 
202 ,37.2938 ,0.91690 ,2.52314 ,24.75705 
203 ,37.4539 ,0.91862 ,2.50261 ,24.55558 
204 ,37.6299 ,0.92029 ,2.48892 ,24.42127 
205 ,37.8060 ,0.92204 ,2.46839 ,24.21980 
206 ,37.9819 ,0.92380 ,2.45470 ,24.08549 
207 ,38.1581 ,0.92559 ,2.43759 ,23.91759 
208 ,38.3181 ,0.92728 ,2.44443 ,23.98475 
209 ,38.4943 ,0.92894 ,2.42390 ,23.78328 
210 ,38.7025 ,0.93082 ,2.40336 ,23.58181 
211 ,38.8945 ,0.93294 ,2.39310 ,23.48108 
212 ,39.0705 ,0.93467 ,2.39994 ,23.54823 
213 ,39.2465 ,0.93645 ,2.35888 ,23.14529 
214 ,39.4228 ,0.93821 ,2.34177 ,22.97740 
215 ,39.6307 ,0.94017 ,2.32808 ,22.84309 
216 ,39.8067 ,0.94200 ,2.31781 ,22.74235 
217 ,39.9830 ,0.94383 ,2.30070 ,22.57446 
218 ,40.1589 ,0.94557 ,2.28359 ,22.40657 
219 ,40.3511 ,0.94746 ,2.28359 ,22.40657 
220 ,40.5430 ,0.94936 ,2.24937 ,22.07079 
221 ,40.7353 ,0.95127 ,2.25963 ,22.17152 
222 ,40.9273 ,0.95320 ,2.23226 ,21.90290 
223 ,41.1031 ,0.95499 ,2.21857 ,21.76858 
224 ,41.2795 ,0.95681 ,2.20488 ,21.63427 
225 ,41.4717 ,0.95871 ,2.19119 ,21.49996 
226 ,41.6635 ,0.96063 ,2.17408 ,21.33206 
227 ,41.8237 ,0.96234 ,2.16381 ,21.23133 
228 ,41.9997 ,0.96403 ,2.15012 ,21.09702 
229 ,42.1916 ,0.96589 ,2.14328 ,21.02986 
230 ,42.3678 ,0.96760 ,2.13986 ,20.99628 
231 ,42.5441 ,0.96936 ,2.10906 ,20.69408 
232 ,42.7201 ,0.97120 ,2.08852 ,20.49261 
233 ,42.8961 ,0.97292 ,2.09537 ,20.55976 
234 ,43.0882 ,0.97481 ,2.08510 ,20.45903 
235 ,43.2644 ,0.97656 ,2.05430 ,20.15682 
236 ,43.4564 ,0.97852 ,2.05773 ,20.19040 
237 ,43.6323 ,0.98032 ,2.03035 ,19.92178 
238 ,43.8085 ,0.98210 ,2.03377 ,19.95535 
239 ,44.0005 ,0.98398 ,1.98928 ,19.51884 
240 ,44.1926 ,0.98576 ,2.00297 ,19.65315 
241 ,44.3849 ,0.98780 ,1.97217 ,19.35094 
242 ,44.5767 ,0.98971 ,1.95506 ,19.18305 
243 ,44.7689 ,0.99159 ,1.93795 ,19.01516 
244 ,44.9449 ,0.99343 ,1.93453 ,18.98158 
245 ,45.1209 ,0.99518 ,1.91742 ,18.81369 
246 ,45.3129 ,0.99710 ,1.92768 ,18.91443 
247 ,45.5049 ,0.99899 ,1.89688 ,18.61222 
248 ,45.6811 ,1.00074 ,1.88319 ,18.47791 
249 ,45.8572 ,1.00252 ,1.85582 ,18.20928 
250 ,46.0334 ,1.00431 ,1.86951 ,18.34360 
251 ,46.2256 ,1.00622 ,1.84555 ,18.10855 
252 ,46.4013 ,1.00796 ,1.82160 ,17.87350 
253 ,46.5775 ,1.00975 ,1.80449 ,17.70561 
254 ,46.7698 ,1.01165 ,1.80791 ,17.73919 
255 ,46.9456 ,1.01345 ,1.78053 ,17.47056 
256 ,47.1219 ,1.01522 ,1.76342 ,17.30267 
257 ,47.2979 ,1.01691 ,1.76000 ,17.26909 
258 ,47.4898 ,1.01877 ,1.74973 ,17.16836 
259 ,47.6822 ,1.02076 ,1.72235 ,16.89973 
260 ,47.8901 ,1.02272 ,1.71893 ,16.86615 
261 ,48.0823 ,1.02466 ,1.70866 ,16.76542 
262 ,48.2744 ,1.02669 ,1.70182 ,16.69826 
263 ,48.4825 ,1.02861 ,1.66075 ,16.29532 
264 ,48.6745 ,1.03062 ,1.67444 ,16.42963 
265 ,48.8506 ,1.03247 ,1.66418 ,16.32890 
266 ,49.0263 ,1.03418 ,1.62653 ,15.95954 
267 ,49.2027 ,1.03599 ,1.61627 ,15.85880 
268 ,49.4108 ,1.03795 ,1.60942 ,15.79164 
269 ,49.6029 ,1.04000 ,1.58547 ,15.55660 
270 ,49.7950 ,1.04186 ,1.57178 ,15.42228 
271 ,50.0030 ,1.04383 ,1.55809 ,15.28797 
272 ,50.1793 ,1.04574 ,1.54098 ,15.12008 
273 ,50.3873 ,1.04772 ,1.53756 ,15.08650 
274 ,50.5633 ,1.04957 ,1.53071 ,15.01934 
275 ,50.7554 ,1.05147 ,1.51360 ,14.85145 
276 ,50.9316 ,1.05326 ,1.51360 ,14.85145 
277 ,51.1074 ,1.05499 ,1.48965 ,14.61640 
278 ,51.2995 ,1.05686 ,1.46227 ,14.34778 
279 ,51.4917 ,1.05887 ,1.47596 ,14.48209 
280 ,51.7954 ,1.06123 ,1.45542 ,14.28062 
281 ,51.9719 ,1.06368 ,1.42805 ,14.01199 
282 ,52.1639 ,1.06555 ,1.40067 ,13.74337 
283 ,52.3399 ,1.06731 ,1.39040 ,13.64263 
284 ,52.5480 ,1.06932 ,1.39383 ,13.67621 
285 ,52.7402 ,1.07132 ,1.36987 ,13.44116 
286 ,52.9323 ,1.07318 ,1.35276 ,13.27327 
287 ,53.1243 ,1.07517 ,1.33907 ,13.13896 
288 ,53.3005 ,1.07687 ,1.34249 ,13.17254 
289 ,53.4925 ,1.07880 ,1.33907 ,13.13896 
290 ,53.6846 ,1.08073 ,1.30485 ,12.80318 
291 ,53.8925 ,1.08273 ,1.29800 ,12.73602 
292 ,54.0687 ,1.08458 ,1.29458 ,12.70244 
293 ,54.2768 ,1.08668 ,1.27747 ,12.53455 
294 ,54.4689 ,1.08852 ,1.25694 ,12.33308 
295 ,54.6767 ,1.09065 ,1.22614 ,12.03088 
296 ,54.8530 ,1.09244 ,1.24667 ,12.23235 
297 ,55.0289 ,1.09423 ,1.23298 ,12.09803 
298 ,55.2052 ,1.09595 ,1.19876 ,11.76225 
299 ,55.3971 ,1.09785 ,1.19192 ,11.69509 
300 ,55.5734 ,1.09961 ,1.19876 ,11.76225 
301 ,55.7815 ,1.10169 ,1.15770 ,11.35931 
302 ,55.9736 ,1.10357 ,1.16112 ,11.39289 
303 ,56.1657 ,1.10557 ,1.13716 ,11.15784 
304 ,56.3576 ,1.10748 ,1.12347 ,11.02353 
305 ,56.5337 ,1.10927 ,1.12347 ,11.02353 
306 ,56.7260 ,1.11115 ,1.09952 ,10.78848 
307 ,56.9498 ,1.11316 ,1.08925 ,10.68774 
308 ,57.1419 ,1.11532 ,1.05503 ,10.35196 
309 ,57.3180 ,1.11706 ,1.04134 ,10.21765 
310 ,57.5261 ,1.11914 ,1.04476 ,10.25123 
311 ,57.7341 ,1.12109 ,1.03108 ,10.11691 
312 ,57.9262 ,1.12324 ,0.99001 ,9.71397 
313 ,58.1024 ,1.12494 ,1.00370 ,9.84829 
314 ,58.2942 ,1.12682 ,1.00028 ,9.81471 
315 ,58.5025 ,1.12879 ,0.99001 ,9.71397 
316 ,58.6945 ,1.13077 ,0.96948 ,9.51250 
317 ,58.8707 ,1.13264 ,0.96605 ,9.47892 
318 ,59.0627 ,1.13452 ,0.93183 ,9.14314 
319 ,59.2383 ,1.13627 ,0.91130 ,8.94167 
320 ,59.4148 ,1.13805 ,0.91814 ,9.00883 
321 ,59.6069 ,1.13994 ,0.91472 ,8.97525 
322 ,59.7988 ,1.14183 ,0.88392 ,8.67305 
323 ,59.9912 ,1.14385 ,0.89077 ,8.74020 
324 ,60.1671 ,1.14558 ,0.88050 ,8.63947 
325 ,60.3271 ,1.14730 ,0.84286 ,8.27011 
326 ,60.5032 ,1.14895 ,0.83601 ,8.20295 
327 ,60.6791 ,1.15070 ,0.81890 ,8.03506 
328 ,60.8551 ,1.15249 ,0.82232 ,8.06864 
329 ,61.0474 ,1.15433 ,0.81548 ,8.00148 
330 ,61.2236 ,1.15615 ,0.79152 ,7.76643 
331 ,61.4156 ,1.15804 ,0.77441 ,7.59854 
332 ,61.6077 ,1.15995 ,0.78126 ,7.66570 
333 ,61.7998 ,1.16182 ,0.75046 ,7.36349 
334 ,61.9758 ,1.16367 ,0.75046 ,7.36349 
335 ,62.1518 ,1.16540 ,0.74019 ,7.26276 
336 ,62.3280 ,1.16717 ,0.73677 ,7.22918 
337 ,62.5038 ,1.16899 ,0.70939 ,6.96055 
338 ,62.6962 ,1.17084 ,0.69570 ,6.82624 
339 ,62.8882 ,1.17271 ,0.70255 ,6.89340 
340 ,63.0804 ,1.17475 ,0.67859 ,6.65835 
341 ,63.2564 ,1.17650 ,0.66833 ,6.55761 
342 ,63.4484 ,1.17824 ,0.65121 ,6.38972 
343 ,63.6403 ,1.18031 ,0.61357 ,6.02036 
344 ,63.8167 ,1.18205 ,0.62042 ,6.08752 
345 ,63.9923 ,1.18386 ,0.62042 ,6.08752 
346 ,64.1523 ,1.18552 ,0.61357 ,6.02036 
347 ,64.3285 ,1.18715 ,0.59304 ,5.81889 
348 ,64.5047 ,1.18894 ,0.58619 ,5.75173 
349 ,64.7130 ,1.19097 ,0.57593 ,5.65100 
350 ,64.9050 ,1.19294 ,0.56566 ,5.55026 
351 ,65.0813 ,1.19471 ,0.54855 ,5.38237 
352 ,65.2571 ,1.19645 ,0.53144 ,5.21448 
353 ,65.4333 ,1.19823 ,0.51775 ,5.08017 
354 ,65.6250 ,1.20009 ,0.51775 ,5.08017 
355 ,65.8014 ,1.20193 ,0.49722 ,4.87870 
356 ,65.9936 ,1.20375 ,0.49722 ,4.87870 
357 ,66.1855 ,1.20569 ,0.46984 ,4.61007 
358 ,66.3616 ,1.20751 ,0.46300 ,4.54291 
359 ,66.5535 ,1.20944 ,0.45957 ,4.50934 
360 ,66.7134 ,1.21113 ,0.45273 ,4.44218 
361 ,66.8900 ,1.21280 ,0.43562 ,4.27429 
362 ,67.0818 ,1.21470 ,0.40824 ,4.00566 
363 ,67.2579 ,1.21642 ,0.39797 ,3.90493 
364 ,67.4500 ,1.21833 ,0.40140 ,3.93850 
365 ,67.6261 ,1.22013 ,0.39797 ,3.90493 
366 ,67.8022 ,1.22188 ,0.37060 ,3.63630 
367 ,67.9783 ,1.22363 ,0.34664 ,3.40125 
368 ,68.1541 ,1.22545 ,0.33638 ,3.30052 
369 ,68.3303 ,1.22722 ,0.33295 ,3.26694 
370 ,68.5226 ,1.22910 ,0.33295 ,3.26694 
371 ,68.7145 ,1.23094 ,0.32611 ,3.19978 
372 ,68.8908 ,1.23274 ,0.31584 ,3.09905 
373 ,69.0666 ,1.23454 ,0.29189 ,2.86400 
374 ,69.2589 ,1.23644 ,0.26793 ,2.62895 
375 ,69.4347 ,1.23830 ,0.27820 ,2.72969 
376 ,69.6110 ,1.24003 ,0.26793 ,2.62895 
377 ,69.8029 ,1.24188 ,0.24398 ,2.39390 
378 ,69.9793 ,1.24367 ,0.23371 ,2.29317 
379 ,70.1710 ,1.24557 ,0.24740 ,2.42748 
380 ,70.3472 ,1.24732 ,0.22344 ,2.19243 
381 ,70.5233 ,1.24910 ,0.20633 ,2.02454 
382 ,70.6995 ,1.25080 ,0.18238 ,1.78949 
383 ,70.8756 ,1.25264 ,0.18238 ,1.78949 
384 ,71.0995 ,1.25471 ,0.17896 ,1.75592 
385 ,71.2917 ,1.25675 ,0.17553 ,1.72234 
386 ,71.4676 ,1.25850 ,0.16869 ,1.65518 
387 ,71.6438 ,1.26029 ,0.14816 ,1.45371 
388 ,71.8359 ,1.26216 ,0.13789 ,1.35298 
389 ,72.0280 ,1.26411 ,0.12420 ,1.21866 
390 ,72.2199 ,1.26599 ,0.10367 ,1.01719 
391 ,72.4281 ,1.26809 ,0.10709 ,1.05077 
392 ,72.6042 ,1.26988 ,0.09340 ,0.91646 
393 ,72.7803 ,1.27167 ,0.07971 ,0.78214 
394 ,72.9724 ,1.27350 ,0.07287 ,0.71499 
395 ,73.1643 ,1.27541 ,0.05234 ,0.51352 
396 ,73.3405 ,1.27729 ,0.04549 ,0.44636 
397 ,73.5326 ,1.27921 ,0.05234 ,0.51352 
398 ,73.7404 ,1.28108 ,0.03522 ,0.34563 
399 ,73.9167 ,1.28303 ,0.01811 ,0.17773 
400 ,74.1088 ,1.28488 ,0.00785 ,0.07700 
401 ,74.3008 ,1.28686 ,0.00100 ,0.00984 
402 ,74.4929 ,1.28877 ,-0.01269 ,-0.12447 
403 ,74.6691 ,1.29053 ,-0.00926 ,-0.09089 
404 ,74.8611 ,1.29240 ,-0.03664 ,-0.35952 
405 ,75.0372 ,1.29424 ,-0.03664 ,-0.35952 
406 ,75.2131 ,1.29597 ,-0.03664 ,-0.35952 
407 ,75.4214 ,1.29807 ,-0.07086 ,-0.69530 
408 ,75.6296 ,1.30010 ,-0.05033 ,-0.49383 
409 ,75.8055 ,1.30201 ,-0.08797 ,-0.86319 
410 ,75.9817 ,1.30368 ,-0.09482 ,-0.93035 
411 ,76.1738 ,1.30555 ,-0.09140 ,-0.89677 
412 ,76.3494 ,1.30733 ,-0.09140 ,-0.89677 
413 ,76.5258 ,1.30909 ,-0.10851 ,-1.06466 
414 ,76.7339 ,1.31113 ,-0.11193 ,-1.09824 
415 ,76.9099 ,1.31297 ,-0.13246 ,-1.29971 
416 ,77.1021 ,1.31480 ,-0.14615 ,-1.43402 
417 ,77.2942 ,1.31673 ,-0.15642 ,-1.53476 
418 ,77.4862 ,1.31859 ,-0.17695 ,-1.73623 
419 ,77.6782 ,1.32053 ,-0.18379 ,-1.80338 
420 ,77.8705 ,1.32257 ,-0.16326 ,-1.60191 
421 ,78.0624 ,1.32444 ,-0.20090 ,-1.97128 
422 ,78.2386 ,1.32622 ,-0.20775 ,-2.03843 
423 ,78.4306 ,1.32810 ,-0.21459 ,-2.10559 
424 ,78.6227 ,1.33003 ,-0.22144 ,-2.17275 
425 ,78.8148 ,1.33197 ,-0.23170 ,-2.27348 
426 ,79.0229 ,1.33388 ,-0.25566 ,-2.50853 
427 ,79.1989 ,1.33585 ,-0.25908 ,-2.54211 
428 ,79.3751 ,1.33754 ,-0.24539 ,-2.40779 
429 ,79.5507 ,1.33946 ,-0.25908 ,-2.54211 
430 ,79.7431 ,1.34114 ,-0.28304 ,-2.77716 
431 ,79.9353 ,1.34318 ,-0.28988 ,-2.84431 
432 ,80.1114 ,1.34499 ,-0.27961 ,-2.74358 
433 ,80.3033 ,1.34680 ,-0.31384 ,-3.07936 
434 ,80.4796 ,1.34866 ,-0.32068 ,-3.14652 
435 ,80.6551 ,1.35034 ,-0.31726 ,-3.11294 
436 ,80.8316 ,1.35215 ,-0.32410 ,-3.18010 
437 ,81.0398 ,1.35416 ,-0.34121 ,-3.34799 
438 ,81.2477 ,1.35615 ,-0.35490 ,-3.48230 
439 ,81.4240 ,1.35806 ,-0.35832 ,-3.51588 
440 ,81.5994 ,1.35983 ,-0.37201 ,-3.65019 
441 ,81.7595 ,1.36153 ,-0.38570 ,-3.78450 
442 ,81.9356 ,1.36314 ,-0.38228 ,-3.75093 
443 ,82.1281 ,1.36504 ,-0.38912 ,-3.81808 
444 ,82.3358 ,1.36713 ,-0.38912 ,-3.81808 
445 ,82.5123 ,1.36895 ,-0.40623 ,-3.98597 
446 ,82.7044 ,1.37083 ,-0.44046 ,-4.32176 
447 ,82.8964 ,1.37268 ,-0.42677 ,-4.18744 
448 ,83.0884 ,1.37469 ,-0.43703 ,-4.28818 
449 ,83.2645 ,1.37643 ,-0.45414 ,-4.45607 
450 ,83.4407 ,1.37822 ,-0.46783 ,-4.59038 
451 ,83.6487 ,1.38020 ,-0.47126 ,-4.62396 
452 ,83.8245 ,1.38203 ,-0.47810 ,-4.69112 
453 ,84.0169 ,1.38391 ,-0.47126 ,-4.62396 
454 ,84.2090 ,1.38587 ,-0.47810 ,-4.69112 
455 ,84.4170 ,1.38788 ,-0.49521 ,-4.85901 
456 ,84.5932 ,1.38974 ,-0.50206 ,-4.92617 
457 ,84.7854 ,1.39165 ,-0.52259 ,-5.12764 
458 ,84.9613 ,1.39351 ,-0.53628 ,-5.26195 
459 ,85.1373 ,1.39522 ,-0.53285 ,-5.22837 
460 ,85.3295 ,1.39702 ,-0.54997 ,-5.39626 
461 ,85.5055 ,1.39899 ,-0.56708 ,-5.56415 
462 ,85.6976 ,1.40070 ,-0.56365 ,-5.53058 
463 ,85.9057 ,1.40282 ,-0.57734 ,-5.66489 
464 ,86.0976 ,1.40473 ,-0.57734 ,-5.66489 
