Data stamp = , 12-04-2022 22:46:22 255

Calibration Values: 
Slope = , 26.54 , g/V 
Offset Voltage at no contact = , -0.501760 , V 

No , Time , Stage Position ,   Mass , Force 
   ,  (s) ,      (mm)      ,   (g)  , (mN)  

1 ,0.0000 ,0.59938 ,5.02474 ,49.30279 
2 ,0.2142 ,0.59946 ,5.02474 ,49.30279 
3 ,0.5346 ,0.60029 ,5.00763 ,49.13490 
4 ,0.7429 ,0.60178 ,5.03159 ,49.36995 
5 ,0.9349 ,0.60356 ,5.03159 ,49.36995 
6 ,1.1107 ,0.60524 ,5.03501 ,49.40352 
7 ,1.3031 ,0.60712 ,5.01448 ,49.20205 
8 ,1.4952 ,0.60904 ,5.02132 ,49.26921 
9 ,1.6711 ,0.61086 ,5.01790 ,49.23563 
10 ,1.8633 ,0.61280 ,4.99394 ,49.00058 
11 ,2.0555 ,0.61462 ,4.99052 ,48.96701 
12 ,2.2470 ,0.61656 ,4.97683 ,48.83269 
13 ,2.4234 ,0.61838 ,4.94261 ,48.49691 
14 ,2.5992 ,0.62010 ,4.92550 ,48.32902 
15 ,2.7755 ,0.62190 ,4.92208 ,48.29544 
16 ,2.9838 ,0.62389 ,4.88101 ,47.89250 
17 ,3.1757 ,0.62585 ,4.89470 ,48.02681 
18 ,3.3678 ,0.62780 ,4.86732 ,47.75819 
19 ,3.5595 ,0.62971 ,4.84679 ,47.55672 
20 ,3.7356 ,0.63154 ,4.84679 ,47.55672 
21 ,3.9116 ,0.63328 ,4.82626 ,47.35525 
22 ,4.0879 ,0.63501 ,4.79546 ,47.05304 
23 ,4.2964 ,0.63707 ,4.79546 ,47.05304 
24 ,4.5045 ,0.63915 ,4.75439 ,46.65010 
25 ,4.6964 ,0.64109 ,4.75439 ,46.65010 
26 ,4.8726 ,0.64290 ,4.74070 ,46.51579 
27 ,5.0645 ,0.64475 ,4.69964 ,46.11285 
28 ,5.2401 ,0.64648 ,4.69279 ,46.04569 
29 ,5.4323 ,0.64839 ,4.68937 ,46.01212 
30 ,5.6088 ,0.65019 ,4.67226 ,45.84422 
31 ,5.7850 ,0.65198 ,4.64831 ,45.60918 
32 ,5.9771 ,0.65387 ,4.64146 ,45.54202 
33 ,6.1531 ,0.65568 ,4.63119 ,45.44128 
34 ,6.3451 ,0.65753 ,4.59355 ,45.07192 
35 ,6.5212 ,0.65940 ,4.59697 ,45.10550 
36 ,6.6971 ,0.66106 ,4.57986 ,44.93761 
37 ,6.8734 ,0.66285 ,4.56960 ,44.83688 
38 ,7.0815 ,0.66488 ,4.54222 ,44.56825 
39 ,7.2574 ,0.66666 ,4.52853 ,44.43394 
40 ,7.4335 ,0.66848 ,4.52511 ,44.40036 
41 ,7.6095 ,0.67020 ,4.49431 ,44.09815 
42 ,7.8015 ,0.67205 ,4.47378 ,43.89668 
43 ,7.9938 ,0.67406 ,4.46693 ,43.82953 
44 ,8.1856 ,0.67591 ,4.43271 ,43.49374 
45 ,8.3780 ,0.67778 ,4.43613 ,43.52732 
46 ,8.5856 ,0.67995 ,4.40191 ,43.19154 
47 ,8.7616 ,0.68176 ,4.38138 ,42.99007 
48 ,8.9380 ,0.68345 ,4.39507 ,43.12438 
49 ,9.1464 ,0.68552 ,4.35742 ,42.75502 
50 ,9.3381 ,0.68743 ,4.35400 ,42.72144 
51 ,9.5304 ,0.68932 ,4.35058 ,42.68786 
52 ,9.7064 ,0.69113 ,4.30609 ,42.25135 
53 ,9.8826 ,0.69295 ,4.29924 ,42.18419 
54 ,10.0906 ,0.69485 ,4.28213 ,42.01630 
55 ,10.2667 ,0.69678 ,4.26845 ,41.88198 
56 ,10.4587 ,0.69866 ,4.24791 ,41.68051 
57 ,10.6347 ,0.70047 ,4.24791 ,41.68051 
58 ,10.8428 ,0.70250 ,4.22396 ,41.44547 
59 ,11.0670 ,0.70463 ,4.19316 ,41.14326 
60 ,11.2597 ,0.70662 ,4.18974 ,41.10968 
61 ,11.4512 ,0.70861 ,4.17605 ,40.97537 
62 ,11.6430 ,0.71049 ,4.15551 ,40.77390 
63 ,11.8354 ,0.71245 ,4.14867 ,40.70674 
64 ,12.0433 ,0.71448 ,4.11103 ,40.33738 
65 ,12.2352 ,0.71646 ,4.10076 ,40.23665 
66 ,12.4115 ,0.71825 ,4.08707 ,40.10233 
67 ,12.5876 ,0.71997 ,4.05285 ,39.76655 
68 ,12.7796 ,0.72180 ,4.06654 ,39.90087 
69 ,12.9558 ,0.72363 ,4.05627 ,39.80013 
70 ,13.1320 ,0.72544 ,4.03574 ,39.59866 
71 ,13.3239 ,0.72728 ,4.00836 ,39.33003 
72 ,13.5001 ,0.72911 ,4.00152 ,39.26288 
73 ,13.7079 ,0.73110 ,3.98783 ,39.12856 
74 ,13.8842 ,0.73295 ,3.96387 ,38.89352 
75 ,14.0764 ,0.73483 ,3.95703 ,38.82636 
76 ,14.2683 ,0.73679 ,3.92281 ,38.49058 
77 ,14.4444 ,0.73854 ,3.90912 ,38.35626 
78 ,14.6526 ,0.74057 ,3.89885 ,38.25553 
79 ,14.8285 ,0.74235 ,3.88174 ,38.08764 
80 ,15.0042 ,0.74418 ,3.86121 ,37.88617 
81 ,15.1967 ,0.74598 ,3.84752 ,37.75185 
82 ,15.4048 ,0.74811 ,3.83725 ,37.65112 
83 ,15.5808 ,0.74993 ,3.82014 ,37.48323 
84 ,15.7568 ,0.75168 ,3.81672 ,37.44965 
85 ,15.9330 ,0.75343 ,3.79276 ,37.21460 
86 ,16.0927 ,0.75513 ,3.77908 ,37.08029 
87 ,16.2690 ,0.75676 ,3.75512 ,36.84524 
88 ,16.4452 ,0.75856 ,3.73801 ,36.67735 
89 ,16.6213 ,0.76033 ,3.73801 ,36.67735 
90 ,16.7974 ,0.76205 ,3.73459 ,36.64377 
91 ,16.9734 ,0.76383 ,3.71063 ,36.40872 
92 ,17.1651 ,0.76571 ,3.68668 ,36.17367 
93 ,17.3575 ,0.76758 ,3.67641 ,36.07294 
94 ,17.5656 ,0.76959 ,3.64903 ,35.80431 
95 ,17.7737 ,0.77164 ,3.65930 ,35.90505 
96 ,17.9494 ,0.77363 ,3.62166 ,35.53569 
97 ,18.1419 ,0.77545 ,3.60797 ,35.40137 
98 ,18.3178 ,0.77730 ,3.59770 ,35.30064 
99 ,18.5100 ,0.77912 ,3.57375 ,35.06559 
100 ,18.6861 ,0.78099 ,3.56690 ,34.99843 
101 ,18.8778 ,0.78291 ,3.55663 ,34.89770 
102 ,19.0543 ,0.78456 ,3.55663 ,34.89770 
103 ,19.2621 ,0.78654 ,3.52926 ,34.62907 
104 ,19.4544 ,0.78861 ,3.50188 ,34.36045 
105 ,19.6465 ,0.79052 ,3.47450 ,34.09182 
106 ,19.8385 ,0.79240 ,3.48819 ,34.22613 
107 ,20.0305 ,0.79435 ,3.44713 ,33.82319 
108 ,20.2066 ,0.79609 ,3.42659 ,33.62172 
109 ,20.3984 ,0.79807 ,3.42317 ,33.58814 
110 ,20.5749 ,0.79982 ,3.41633 ,33.52099 
111 ,20.7509 ,0.80157 ,3.39921 ,33.35310 
112 ,20.9266 ,0.80333 ,3.37184 ,33.08447 
113 ,21.1031 ,0.80510 ,3.36157 ,32.98374 
114 ,21.2951 ,0.80698 ,3.36157 ,32.98374 
115 ,21.4868 ,0.80896 ,3.32051 ,32.58080 
116 ,21.6632 ,0.81069 ,3.33077 ,32.68153 
117 ,21.8393 ,0.81246 ,3.31708 ,32.54722 
118 ,22.0154 ,0.81422 ,3.31024 ,32.48006 
119 ,22.1913 ,0.81600 ,3.29997 ,32.37933 
120 ,22.3675 ,0.81772 ,3.26233 ,32.00996 
121 ,22.5432 ,0.81957 ,3.25891 ,31.97639 
122 ,22.7198 ,0.82130 ,3.24180 ,31.80849 
123 ,22.9113 ,0.82320 ,3.23495 ,31.74134 
124 ,23.1039 ,0.82498 ,3.20757 ,31.47271 
125 ,23.2640 ,0.82684 ,3.19731 ,31.37198 
126 ,23.4400 ,0.82843 ,3.19731 ,31.37198 
127 ,23.6316 ,0.83043 ,3.18020 ,31.20409 
128 ,23.8081 ,0.83213 ,3.15282 ,30.93546 
129 ,23.9841 ,0.83388 ,3.13913 ,30.80115 
130 ,24.1602 ,0.83568 ,3.13229 ,30.73399 
131 ,24.3683 ,0.83772 ,3.10149 ,30.43178 
132 ,24.5605 ,0.83963 ,3.09806 ,30.39821 
133 ,24.7685 ,0.84168 ,3.07411 ,30.16316 
134 ,24.9766 ,0.84376 ,3.07069 ,30.12958 
135 ,25.1525 ,0.84562 ,3.05700 ,29.99527 
136 ,25.3448 ,0.84747 ,3.02278 ,29.65948 
137 ,25.5209 ,0.84927 ,3.03304 ,29.76022 
138 ,25.7287 ,0.85124 ,3.01593 ,29.59233 
139 ,25.9049 ,0.85311 ,2.97144 ,29.15581 
140 ,26.0811 ,0.85489 ,2.98513 ,29.29012 
141 ,26.2731 ,0.85672 ,2.96802 ,29.12223 
142 ,26.4653 ,0.85857 ,2.93722 ,28.82003 
143 ,26.6413 ,0.86048 ,2.93038 ,28.75287 
144 ,26.8329 ,0.86235 ,2.93038 ,28.75287 
145 ,27.0093 ,0.86413 ,2.90642 ,28.51782 
146 ,27.2173 ,0.86620 ,2.89958 ,28.45066 
147 ,27.3935 ,0.86797 ,2.88931 ,28.34993 
148 ,27.5695 ,0.86969 ,2.85851 ,28.04772 
149 ,27.7456 ,0.87149 ,2.85167 ,27.98057 
150 ,27.9214 ,0.87327 ,2.83798 ,27.84625 
151 ,28.1138 ,0.87512 ,2.82429 ,27.71194 
152 ,28.2899 ,0.87691 ,2.80034 ,27.47689 
153 ,28.4661 ,0.87869 ,2.79691 ,27.44332 
154 ,28.6582 ,0.88052 ,2.79691 ,27.44332 
155 ,28.8338 ,0.88251 ,2.76269 ,27.10753 
156 ,29.0098 ,0.88417 ,2.75243 ,27.00680 
157 ,29.2020 ,0.88598 ,2.74216 ,26.90606 
158 ,29.3939 ,0.88790 ,2.72847 ,26.77175 
159 ,29.5863 ,0.88979 ,2.69083 ,26.40239 
160 ,29.8104 ,0.89202 ,2.69767 ,26.46954 
161 ,30.0025 ,0.89406 ,2.68056 ,26.30165 
162 ,30.1945 ,0.89596 ,2.66345 ,26.13376 
163 ,30.3869 ,0.89787 ,2.63607 ,25.86514 
164 ,30.5788 ,0.89976 ,2.63607 ,25.86514 
165 ,30.7869 ,0.90173 ,2.61212 ,25.63009 
166 ,30.9630 ,0.90366 ,2.59158 ,25.42862 
167 ,31.1711 ,0.90571 ,2.58816 ,25.39504 
168 ,31.3470 ,0.90752 ,2.56763 ,25.19357 
169 ,31.5234 ,0.90925 ,2.56078 ,25.12641 
170 ,31.7313 ,0.91125 ,2.55394 ,25.05926 
171 ,31.9070 ,0.91312 ,2.52314 ,24.75705 
172 ,32.0835 ,0.91485 ,2.50603 ,24.58916 
173 ,32.2432 ,0.91657 ,2.52314 ,24.75705 
174 ,32.4357 ,0.91839 ,2.50603 ,24.58916 
175 ,32.6276 ,0.92030 ,2.47523 ,24.28696 
176 ,32.8038 ,0.92209 ,2.46154 ,24.15264 
177 ,32.9958 ,0.92390 ,2.45127 ,24.05191 
178 ,33.1720 ,0.92578 ,2.44101 ,23.95117 
179 ,33.3639 ,0.92766 ,2.41021 ,23.64897 
180 ,33.5721 ,0.92966 ,2.39994 ,23.54823 
181 ,33.7481 ,0.93149 ,2.39652 ,23.51465 
182 ,33.9245 ,0.93326 ,2.36914 ,23.24603 
183 ,34.1164 ,0.93518 ,2.38968 ,23.44750 
184 ,34.3080 ,0.93702 ,2.35203 ,23.07814 
185 ,34.4843 ,0.93888 ,2.33492 ,22.91024 
186 ,34.6765 ,0.94075 ,2.33492 ,22.91024 
187 ,34.8527 ,0.94250 ,2.32123 ,22.77593 
188 ,35.0608 ,0.94445 ,2.30754 ,22.64162 
189 ,35.2527 ,0.94645 ,2.28017 ,22.37299 
190 ,35.4450 ,0.94846 ,2.26648 ,22.23868 
191 ,35.6368 ,0.95041 ,2.25963 ,22.17152 
192 ,35.8288 ,0.95219 ,2.24937 ,22.07079 
193 ,36.0050 ,0.95406 ,2.22541 ,21.83574 
194 ,36.1973 ,0.95594 ,2.21172 ,21.70143 
195 ,36.3732 ,0.95777 ,2.19461 ,21.53353 
196 ,36.5493 ,0.95949 ,2.19119 ,21.49996 
197 ,36.7412 ,0.96142 ,2.16381 ,21.23133 
198 ,36.9173 ,0.96315 ,2.17408 ,21.33206 
199 ,37.0936 ,0.96496 ,2.15012 ,21.09702 
200 ,37.2697 ,0.96674 ,2.12959 ,20.89555 
201 ,37.4934 ,0.96875 ,2.12959 ,20.89555 
202 ,37.6695 ,0.97070 ,2.10906 ,20.69408 
203 ,37.8297 ,0.97238 ,2.08852 ,20.49261 
204 ,38.0059 ,0.97406 ,2.06115 ,20.22398 
205 ,38.1980 ,0.97596 ,2.06457 ,20.25756 
206 ,38.3901 ,0.97785 ,2.06457 ,20.25756 
207 ,38.5979 ,0.97996 ,2.03377 ,19.95535 
208 ,38.7743 ,0.98175 ,2.03035 ,19.92178 
209 ,38.9824 ,0.98375 ,2.00982 ,19.72031 
210 ,39.1584 ,0.98563 ,2.00297 ,19.65315 
211 ,39.3506 ,0.98754 ,1.98586 ,19.48526 
212 ,39.5269 ,0.98929 ,1.96533 ,19.28379 
213 ,39.7025 ,0.99104 ,1.94479 ,19.08232 
214 ,39.8785 ,0.99280 ,1.95848 ,19.21663 
215 ,40.0709 ,0.99472 ,1.92768 ,18.91443 
216 ,40.2629 ,0.99660 ,1.91057 ,18.74654 
217 ,40.4389 ,0.99838 ,1.91057 ,18.74654 
218 ,40.6311 ,1.00022 ,1.87635 ,18.41075 
219 ,40.8070 ,1.00204 ,1.87293 ,18.37717 
220 ,40.9830 ,1.00382 ,1.86608 ,18.31002 
221 ,41.1913 ,1.00577 ,1.86951 ,18.34360 
222 ,41.3832 ,1.00780 ,1.84897 ,18.14213 
223 ,41.5915 ,1.00988 ,1.81133 ,17.77276 
224 ,41.7671 ,1.01169 ,1.80449 ,17.70561 
225 ,41.9436 ,1.01344 ,1.78053 ,17.47056 
226 ,42.1515 ,1.01541 ,1.78053 ,17.47056 
227 ,42.3434 ,1.01732 ,1.76342 ,17.30267 
228 ,42.5197 ,1.01920 ,1.75657 ,17.23551 
229 ,42.6958 ,1.02096 ,1.75657 ,17.23551 
230 ,42.8716 ,1.02268 ,1.73604 ,17.03404 
231 ,43.0478 ,1.02447 ,1.72578 ,16.93331 
232 ,43.2401 ,1.02637 ,1.70182 ,16.69826 
233 ,43.4162 ,1.02813 ,1.69840 ,16.66468 
234 ,43.5923 ,1.02994 ,1.69155 ,16.59752 
235 ,43.7683 ,1.03170 ,1.66418 ,16.32890 
236 ,43.9601 ,1.03348 ,1.65049 ,16.19458 
237 ,44.1525 ,1.03546 ,1.64364 ,16.12743 
238 ,44.3445 ,1.03750 ,1.63338 ,16.02669 
239 ,44.5367 ,1.03938 ,1.61627 ,15.85880 
240 ,44.7286 ,1.04123 ,1.59916 ,15.69091 
241 ,44.9048 ,1.04301 ,1.57862 ,15.48944 
242 ,45.0966 ,1.04502 ,1.57178 ,15.42228 
243 ,45.2888 ,1.04682 ,1.54440 ,15.15366 
244 ,45.4650 ,1.04862 ,1.54098 ,15.12008 
245 ,45.6568 ,1.05055 ,1.54098 ,15.12008 
246 ,45.8333 ,1.05231 ,1.52045 ,14.91861 
247 ,46.0412 ,1.05425 ,1.49991 ,14.71714 
248 ,46.2171 ,1.05612 ,1.49991 ,14.71714 
249 ,46.4253 ,1.05816 ,1.46569 ,14.38136 
250 ,46.6015 ,1.05998 ,1.45885 ,14.31420 
251 ,46.7772 ,1.06171 ,1.45885 ,14.31420 
252 ,46.9535 ,1.06349 ,1.45885 ,14.31420 
253 ,47.1294 ,1.06520 ,1.43147 ,14.04557 
254 ,47.3217 ,1.06713 ,1.42120 ,13.94484 
255 ,47.4975 ,1.06890 ,1.40751 ,13.81053 
256 ,47.6740 ,1.07071 ,1.40067 ,13.74337 
257 ,47.8500 ,1.07251 ,1.39040 ,13.64263 
258 ,48.0418 ,1.07431 ,1.37329 ,13.47474 
259 ,48.2178 ,1.07616 ,1.36303 ,13.37401 
260 ,48.3943 ,1.07789 ,1.35960 ,13.34043 
261 ,48.6023 ,1.07998 ,1.33223 ,13.07180 
262 ,48.7782 ,1.08173 ,1.32538 ,13.00465 
263 ,48.9704 ,1.08372 ,1.32538 ,13.00465 
264 ,49.1466 ,1.08541 ,1.29800 ,12.73602 
265 ,49.3062 ,1.08716 ,1.27405 ,12.50097 
266 ,49.4986 ,1.08890 ,1.26378 ,12.40024 
267 ,49.6747 ,1.09070 ,1.27405 ,12.50097 
268 ,49.8507 ,1.09242 ,1.26036 ,12.36666 
269 ,50.0267 ,1.09422 ,1.22956 ,12.06445 
270 ,50.2030 ,1.09599 ,1.20903 ,11.86298 
271 ,50.3950 ,1.09793 ,1.20903 ,11.86298 
272 ,50.5712 ,1.09970 ,1.20903 ,11.86298 
273 ,50.7468 ,1.10142 ,1.18507 ,11.62794 
274 ,50.9235 ,1.10318 ,1.15770 ,11.35931 
275 ,51.0993 ,1.10500 ,1.15770 ,11.35931 
276 ,51.2914 ,1.10687 ,1.14743 ,11.25857 
277 ,51.4672 ,1.10863 ,1.13716 ,11.15784 
278 ,51.6436 ,1.11041 ,1.10979 ,10.88921 
279 ,51.8355 ,1.11230 ,1.12005 ,10.98995 
280 ,52.0277 ,1.11417 ,1.08925 ,10.68774 
281 ,52.2357 ,1.11621 ,1.07214 ,10.51985 
282 ,52.4119 ,1.11809 ,1.09267 ,10.72132 
283 ,52.5879 ,1.11990 ,1.06187 ,10.41912 
284 ,52.7800 ,1.12171 ,1.04476 ,10.25123 
285 ,52.9722 ,1.12359 ,1.04476 ,10.25123 
286 ,53.1642 ,1.12557 ,1.02423 ,10.04976 
287 ,53.3400 ,1.12735 ,1.00712 ,9.88186 
288 ,53.5480 ,1.12939 ,0.99685 ,9.78113 
289 ,53.7403 ,1.13125 ,0.97974 ,9.61324 
290 ,53.9324 ,1.13328 ,0.98659 ,9.68039 
291 ,54.1085 ,1.13501 ,0.96605 ,9.47892 
292 ,54.2845 ,1.13679 ,0.94894 ,9.31103 
293 ,54.4606 ,1.13850 ,0.92841 ,9.10956 
294 ,54.6364 ,1.14030 ,0.92841 ,9.10956 
295 ,54.8129 ,1.14207 ,0.91472 ,8.97525 
296 ,55.0050 ,1.14393 ,0.89761 ,8.80736 
297 ,55.2130 ,1.14592 ,0.91130 ,8.94167 
298 ,55.4212 ,1.14800 ,0.87366 ,8.57231 
299 ,55.5969 ,1.14990 ,0.85654 ,8.40442 
300 ,55.7733 ,1.15160 ,0.86681 ,8.50515 
301 ,55.9814 ,1.15366 ,0.83943 ,8.23653 
302 ,56.1894 ,1.15571 ,0.83259 ,8.16937 
303 ,56.3655 ,1.15756 ,0.81548 ,8.00148 
304 ,56.5576 ,1.15949 ,0.80179 ,7.86717 
305 ,56.7334 ,1.16134 ,0.77784 ,7.63212 
306 ,56.9098 ,1.16306 ,0.79495 ,7.80001 
307 ,57.1015 ,1.16497 ,0.76415 ,7.49780 
308 ,57.2940 ,1.16680 ,0.76757 ,7.53138 
309 ,57.4700 ,1.16867 ,0.74704 ,7.32991 
310 ,57.6621 ,1.17046 ,0.74019 ,7.26276 
311 ,57.8379 ,1.17231 ,0.72650 ,7.12844 
312 ,58.0303 ,1.17409 ,0.72650 ,7.12844 
313 ,58.2382 ,1.17620 ,0.68886 ,6.75908 
314 ,58.4303 ,1.17814 ,0.68201 ,6.69193 
315 ,58.6065 ,1.17998 ,0.66490 ,6.52403 
316 ,58.7985 ,1.18187 ,0.66833 ,6.55761 
317 ,59.0065 ,1.18391 ,0.64095 ,6.28899 
318 ,59.1827 ,1.18577 ,0.62726 ,6.15467 
319 ,59.3747 ,1.18765 ,0.62726 ,6.15467 
320 ,59.5509 ,1.18942 ,0.61357 ,6.02036 
321 ,59.7429 ,1.19138 ,0.58962 ,5.78531 
322 ,59.9346 ,1.19318 ,0.59646 ,5.85247 
323 ,60.1111 ,1.19505 ,0.57935 ,5.68458 
324 ,60.3028 ,1.19697 ,0.55882 ,5.48311 
325 ,60.4793 ,1.19866 ,0.54171 ,5.31522 
326 ,60.6710 ,1.20053 ,0.53828 ,5.28164 
327 ,60.8474 ,1.20241 ,0.52117 ,5.11375 
328 ,61.0391 ,1.20422 ,0.52459 ,5.14732 
329 ,61.2155 ,1.20605 ,0.50406 ,4.94585 
330 ,61.4233 ,1.20799 ,0.49380 ,4.84512 
331 ,61.5997 ,1.20989 ,0.48011 ,4.71081 
332 ,61.7917 ,1.21183 ,0.48011 ,4.71081 
333 ,61.9838 ,1.21375 ,0.44588 ,4.37502 
334 ,62.1759 ,1.21563 ,0.45273 ,4.44218 
335 ,62.3676 ,1.21753 ,0.42535 ,4.17355 
336 ,62.5440 ,1.21936 ,0.41509 ,4.07282 
337 ,62.7202 ,1.22114 ,0.41166 ,4.03924 
338 ,62.9123 ,1.22304 ,0.40140 ,3.93850 
339 ,63.0881 ,1.22481 ,0.39113 ,3.83777 
340 ,63.2644 ,1.22652 ,0.36375 ,3.56914 
341 ,63.4725 ,1.22856 ,0.36718 ,3.60272 
342 ,63.6483 ,1.23041 ,0.35349 ,3.46841 
343 ,63.8245 ,1.23216 ,0.33638 ,3.30052 
344 ,64.0007 ,1.23389 ,0.33980 ,3.33410 
345 ,64.2082 ,1.23588 ,0.31584 ,3.09905 
346 ,64.3842 ,1.23777 ,0.29873 ,2.93116 
347 ,64.5606 ,1.23948 ,0.28504 ,2.79684 
348 ,64.7850 ,1.24169 ,0.27820 ,2.72969 
349 ,64.9769 ,1.24366 ,0.26451 ,2.59537 
350 ,65.1531 ,1.24542 ,0.26793 ,2.62895 
351 ,65.3450 ,1.24726 ,0.25082 ,2.46106 
352 ,65.5213 ,1.24913 ,0.24398 ,2.39390 
353 ,65.7133 ,1.25090 ,0.23713 ,2.32675 
354 ,65.9054 ,1.25289 ,0.20291 ,1.99096 
355 ,66.1135 ,1.25490 ,0.19949 ,1.95738 
356 ,66.3056 ,1.25689 ,0.18238 ,1.78949 
357 ,66.4973 ,1.25880 ,0.19264 ,1.89023 
358 ,66.7054 ,1.26089 ,0.17211 ,1.68876 
359 ,66.8819 ,1.26271 ,0.15842 ,1.55445 
360 ,67.0738 ,1.26463 ,0.16527 ,1.62160 
361 ,67.2498 ,1.26640 ,0.13447 ,1.31940 
362 ,67.4415 ,1.26835 ,0.13789 ,1.35298 
363 ,67.6179 ,1.27004 ,0.11736 ,1.15151 
364 ,67.8103 ,1.27191 ,0.10025 ,0.98361 
365 ,68.0020 ,1.27386 ,0.11051 ,1.08435 
366 ,68.1783 ,1.27571 ,0.08998 ,0.88288 
367 ,68.3543 ,1.27745 ,0.10025 ,0.98361 
368 ,68.5305 ,1.27918 ,0.06260 ,0.61425 
369 ,68.7224 ,1.28097 ,0.05234 ,0.51352 
370 ,68.9147 ,1.28301 ,0.06260 ,0.61425 
371 ,69.1223 ,1.28505 ,0.04207 ,0.41278 
372 ,69.3144 ,1.28696 ,0.03180 ,0.31205 
373 ,69.4904 ,1.28879 ,0.02154 ,0.21131 
374 ,69.6989 ,1.29071 ,0.01127 ,0.11058 
375 ,69.9070 ,1.29300 ,0.01127 ,0.11058 
376 ,70.1152 ,1.29497 ,-0.00242 ,-0.02373 
377 ,70.2912 ,1.29683 ,-0.02980 ,-0.29236 
378 ,70.4671 ,1.29857 ,-0.03664 ,-0.35952 
379 ,70.6754 ,1.30049 ,-0.03664 ,-0.35952 
380 ,70.8836 ,1.30257 ,-0.06744 ,-0.66172 
381 ,71.0755 ,1.30459 ,-0.06402 ,-0.62814 
382 ,71.2514 ,1.30638 ,-0.07086 ,-0.69530 
383 ,71.4436 ,1.30830 ,-0.08455 ,-0.82961 
384 ,71.6357 ,1.31026 ,-0.08797 ,-0.86319 
385 ,71.8437 ,1.31224 ,-0.09140 ,-0.89677 
386 ,72.0359 ,1.31423 ,-0.10508 ,-1.03108 
387 ,72.2120 ,1.31604 ,-0.11877 ,-1.16540 
388 ,72.4041 ,1.31792 ,-0.14273 ,-1.40045 
389 ,72.5962 ,1.31974 ,-0.13588 ,-1.33329 
390 ,72.7719 ,1.32160 ,-0.14957 ,-1.46760 
391 ,72.9803 ,1.32356 ,-0.17695 ,-1.73623 
392 ,73.1724 ,1.32552 ,-0.18379 ,-1.80338 
393 ,73.3644 ,1.32750 ,-0.18037 ,-1.76981 
394 ,73.5406 ,1.32922 ,-0.18722 ,-1.83696 
395 ,73.7327 ,1.33114 ,-0.20775 ,-2.03843 
396 ,73.9407 ,1.33318 ,-0.20090 ,-1.97128 
397 ,74.1487 ,1.33525 ,-0.22828 ,-2.23990 
398 ,74.3407 ,1.33721 ,-0.22828 ,-2.23990 
399 ,74.5170 ,1.33901 ,-0.23513 ,-2.30706 
400 ,74.7250 ,1.34104 ,-0.24881 ,-2.44137 
401 ,74.9012 ,1.34290 ,-0.26250 ,-2.57569 
402 ,75.0933 ,1.34474 ,-0.27619 ,-2.71000 
403 ,75.2853 ,1.34671 ,-0.27961 ,-2.74358 
404 ,75.4934 ,1.34866 ,-0.29673 ,-2.91147 
405 ,75.6854 ,1.35076 ,-0.29330 ,-2.87789 
406 ,75.8935 ,1.35277 ,-0.31384 ,-3.07936 
407 ,76.0855 ,1.35468 ,-0.31726 ,-3.11294 
408 ,76.2617 ,1.35649 ,-0.31726 ,-3.11294 
409 ,76.4697 ,1.35847 ,-0.34464 ,-3.38156 
410 ,76.6618 ,1.36045 ,-0.34121 ,-3.34799 
411 ,76.8379 ,1.36220 ,-0.33437 ,-3.28083 
412 ,77.0460 ,1.36421 ,-0.36175 ,-3.54946 
413 ,77.2379 ,1.36618 ,-0.35832 ,-3.51588 
414 ,77.4300 ,1.36821 ,-0.38228 ,-3.75093 
415 ,77.6063 ,1.36990 ,-0.38228 ,-3.75093 
416 ,77.7984 ,1.37176 ,-0.38570 ,-3.78450 
417 ,77.9903 ,1.37376 ,-0.41992 ,-4.12029 
418 ,78.1660 ,1.37548 ,-0.41992 ,-4.12029 
419 ,78.3425 ,1.37726 ,-0.41308 ,-4.05313 
420 ,78.5348 ,1.37910 ,-0.42677 ,-4.18744 
421 ,78.7107 ,1.38098 ,-0.45072 ,-4.42249 
422 ,78.9028 ,1.38280 ,-0.44388 ,-4.35534 
423 ,79.0787 ,1.38462 ,-0.45072 ,-4.42249 
424 ,79.2546 ,1.38635 ,-0.46441 ,-4.55681 
425 ,79.4309 ,1.38819 ,-0.48152 ,-4.72470 
426 ,79.6231 ,1.38998 ,-0.48152 ,-4.72470 
427 ,79.7989 ,1.39182 ,-0.49521 ,-4.85901 
428 ,80.0072 ,1.39389 ,-0.51574 ,-5.06048 
429 ,80.1834 ,1.39564 ,-0.49521 ,-4.85901 
430 ,80.3751 ,1.39756 ,-0.52943 ,-5.19479 
431 ,80.5513 ,1.39933 ,-0.53970 ,-5.29553 
432 ,80.7434 ,1.40119 ,-0.55681 ,-5.46342 
433 ,80.9357 ,1.40317 ,-0.54997 ,-5.39626 
434 ,81.1598 ,1.40532 ,-0.54997 ,-5.39626 
435 ,81.3358 ,1.40723 ,-0.55681 ,-5.46342 
436 ,81.5277 ,1.40903 ,-0.57392 ,-5.63131 
437 ,81.7360 ,1.41112 ,-0.59788 ,-5.86636 
438 ,81.9117 ,1.41293 ,-0.59788 ,-5.86636 
439 ,82.1042 ,1.41478 ,-0.61499 ,-6.03425 
440 ,82.2961 ,1.41673 ,-0.60814 ,-5.96709 
441 ,82.4879 ,1.41864 ,-0.60472 ,-5.93352 
442 ,82.6802 ,1.42055 ,-0.62183 ,-6.10141 
443 ,82.8725 ,1.42257 ,-0.62868 ,-6.16856 
444 ,83.0805 ,1.42456 ,-0.64579 ,-6.33646 
445 ,83.2566 ,1.42636 ,-0.64921 ,-6.37003 
446 ,83.4487 ,1.42823 ,-0.65947 ,-6.47077 
447 ,83.6728 ,1.43037 ,-0.67316 ,-6.60508 
448 ,83.8808 ,1.43259 ,-0.66632 ,-6.53793 
449 ,84.0730 ,1.43445 ,-0.67316 ,-6.60508 
450 ,84.2810 ,1.43654 ,-0.69370 ,-6.80655 
451 ,84.4890 ,1.43865 ,-0.70054 ,-6.87371 
452 ,84.6652 ,1.44043 ,-0.70396 ,-6.90729 
453 ,84.8571 ,1.44237 ,-0.73134 ,-7.17591 
454 ,85.0333 ,1.44413 ,-0.74161 ,-7.27665 
455 ,85.2094 ,1.44592 ,-0.73134 ,-7.17591 
456 ,85.3854 ,1.44769 ,-0.74503 ,-7.31023 
457 ,85.5776 ,1.44957 ,-0.76214 ,-7.47812 
458 ,85.7858 ,1.45161 ,-0.75530 ,-7.41096 
459 ,85.9776 ,1.45355 ,-0.75872 ,-7.44454 
460 ,86.1858 ,1.45560 ,-0.76214 ,-7.47812 
461 ,86.3614 ,1.45742 ,-0.77241 ,-7.57885 
462 ,86.5540 ,1.45933 ,-0.79294 ,-7.78032 
463 ,86.7296 ,1.46117 ,-0.78610 ,-7.71317 
