Data stamp = , 13-04-2022 00:14:39 029

Calibration Values: 
Slope = , 26.54 , g/V 
Offset Voltage at no contact = , -0.501760 , V 

No , Time , Stage Position ,   Mass , Force 
   ,  (s) ,      (mm)      ,   (g)  , (mN)  

1 ,0.0000 ,0.59938 ,4.99052 ,48.96701 
2 ,0.2432 ,0.59951 ,4.98368 ,48.89985 
3 ,0.5476 ,0.60043 ,4.98368 ,48.89985 
4 ,0.7557 ,0.60194 ,5.00079 ,49.06774 
5 ,0.9319 ,0.60349 ,4.97683 ,48.83269 
6 ,1.1240 ,0.60537 ,4.98368 ,48.89985 
7 ,1.3159 ,0.60714 ,5.00079 ,49.06774 
8 ,1.5082 ,0.60907 ,5.00079 ,49.06774 
9 ,1.7003 ,0.61114 ,4.98710 ,48.93343 
10 ,1.8758 ,0.61299 ,4.96315 ,48.69838 
11 ,2.0523 ,0.61470 ,4.95972 ,48.66480 
12 ,2.2443 ,0.61659 ,4.93919 ,48.46333 
13 ,2.4201 ,0.61835 ,4.93577 ,48.42975 
14 ,2.5965 ,0.62009 ,4.92208 ,48.29544 
15 ,2.8043 ,0.62214 ,4.89470 ,48.02681 
16 ,2.9808 ,0.62395 ,4.89812 ,48.06039 
17 ,3.1730 ,0.62585 ,4.85706 ,47.65745 
18 ,3.3489 ,0.62765 ,4.82626 ,47.35525 
19 ,3.5406 ,0.62947 ,4.84679 ,47.55672 
20 ,3.7170 ,0.63128 ,4.82968 ,47.38883 
21 ,3.9090 ,0.63316 ,4.78861 ,46.98589 
22 ,4.0850 ,0.63496 ,4.77493 ,46.85157 
23 ,4.2612 ,0.63673 ,4.77493 ,46.85157 
24 ,4.4373 ,0.63853 ,4.76466 ,46.75084 
25 ,4.6134 ,0.64028 ,4.74413 ,46.54937 
26 ,4.7894 ,0.64202 ,4.71675 ,46.28074 
27 ,4.9654 ,0.64380 ,4.70306 ,46.14643 
28 ,5.1417 ,0.64557 ,4.68937 ,46.01212 
29 ,5.3177 ,0.64736 ,4.67226 ,45.84422 
30 ,5.5098 ,0.64912 ,4.64831 ,45.60918 
31 ,5.7018 ,0.65122 ,4.65173 ,45.64275 
32 ,5.8774 ,0.65297 ,4.62093 ,45.34055 
33 ,6.0539 ,0.65463 ,4.61408 ,45.27339 
34 ,6.2457 ,0.65653 ,4.59013 ,45.03835 
35 ,6.4221 ,0.65838 ,4.57644 ,44.90403 
36 ,6.6140 ,0.66027 ,4.57302 ,44.87045 
37 ,6.7902 ,0.66204 ,4.53880 ,44.53467 
38 ,6.9982 ,0.66402 ,4.52511 ,44.40036 
39 ,7.1743 ,0.66587 ,4.51826 ,44.33320 
40 ,7.3503 ,0.66762 ,4.50115 ,44.16531 
41 ,7.5265 ,0.66935 ,4.47378 ,43.89668 
42 ,7.7026 ,0.67116 ,4.45324 ,43.69521 
43 ,7.8942 ,0.67301 ,4.45666 ,43.72879 
44 ,8.1186 ,0.67518 ,4.42929 ,43.46016 
45 ,8.2947 ,0.67705 ,4.41560 ,43.32585 
46 ,8.4709 ,0.67884 ,4.38822 ,43.05723 
47 ,8.6469 ,0.68058 ,4.37111 ,42.88933 
48 ,8.8227 ,0.68237 ,4.35400 ,42.72144 
49 ,8.9992 ,0.68412 ,4.35058 ,42.68786 
50 ,9.2072 ,0.68613 ,4.32662 ,42.45282 
51 ,9.3832 ,0.68802 ,4.34031 ,42.58713 
52 ,9.5594 ,0.68972 ,4.31293 ,42.31850 
53 ,9.7515 ,0.69158 ,4.29240 ,42.11703 
54 ,9.9435 ,0.69346 ,4.27871 ,41.98272 
55 ,10.1198 ,0.69530 ,4.27187 ,41.91556 
56 ,10.2957 ,0.69703 ,4.25476 ,41.74767 
57 ,10.5038 ,0.69904 ,4.23422 ,41.54620 
58 ,10.6797 ,0.70094 ,4.21027 ,41.31115 
59 ,10.8558 ,0.70266 ,4.20342 ,41.24400 
60 ,11.0800 ,0.70482 ,4.17262 ,40.94179 
61 ,11.2880 ,0.70690 ,4.14867 ,40.70674 
62 ,11.4641 ,0.70877 ,4.14183 ,40.63959 
63 ,11.6399 ,0.71051 ,4.13840 ,40.60601 
64 ,11.8163 ,0.71229 ,4.13156 ,40.53885 
65 ,12.0239 ,0.71425 ,4.09391 ,40.16949 
66 ,12.2004 ,0.71611 ,4.08365 ,40.06876 
67 ,12.3764 ,0.71785 ,4.08023 ,40.03518 
68 ,12.5685 ,0.71973 ,4.04258 ,39.66582 
69 ,12.7446 ,0.72155 ,4.03232 ,39.56508 
70 ,12.9207 ,0.72330 ,4.02205 ,39.46435 
71 ,13.0963 ,0.72503 ,4.01863 ,39.43077 
72 ,13.2727 ,0.72680 ,3.99809 ,39.22930 
73 ,13.4490 ,0.72862 ,3.97756 ,39.02783 
74 ,13.6569 ,0.73057 ,3.96729 ,38.92709 
75 ,13.8331 ,0.73239 ,3.95361 ,38.79278 
76 ,14.0250 ,0.73436 ,3.91938 ,38.45700 
77 ,14.2333 ,0.73639 ,3.92281 ,38.49058 
78 ,14.4092 ,0.73822 ,3.89885 ,38.25553 
79 ,14.6014 ,0.74000 ,3.88516 ,38.12122 
80 ,14.7934 ,0.74200 ,3.88858 ,38.15479 
81 ,14.9695 ,0.74381 ,3.87147 ,37.98690 
82 ,15.1615 ,0.74566 ,3.83383 ,37.61754 
83 ,15.3375 ,0.74749 ,3.81672 ,37.44965 
84 ,15.5301 ,0.74940 ,3.80987 ,37.38249 
85 ,15.7379 ,0.75137 ,3.80303 ,37.31534 
86 ,15.9458 ,0.75344 ,3.78250 ,37.11387 
87 ,16.1379 ,0.75545 ,3.76539 ,36.94597 
88 ,16.3139 ,0.75721 ,3.75170 ,36.81166 
89 ,16.4902 ,0.75901 ,3.72774 ,36.57661 
90 ,16.6823 ,0.76086 ,3.72774 ,36.57661 
91 ,16.8583 ,0.76265 ,3.70379 ,36.34157 
92 ,17.0664 ,0.76474 ,3.69010 ,36.20725 
93 ,17.2744 ,0.76676 ,3.68325 ,36.14010 
94 ,17.4665 ,0.76882 ,3.64903 ,35.80431 
95 ,17.6587 ,0.77070 ,3.64903 ,35.80431 
96 ,17.8507 ,0.77249 ,3.62508 ,35.56926 
97 ,18.0427 ,0.77452 ,3.59770 ,35.30064 
98 ,18.2347 ,0.77635 ,3.60112 ,35.33422 
99 ,18.4105 ,0.77819 ,3.57717 ,35.09917 
100 ,18.6190 ,0.78017 ,3.55321 ,34.86412 
101 ,18.8111 ,0.78215 ,3.55321 ,34.86412 
102 ,19.0034 ,0.78406 ,3.53268 ,34.66265 
103 ,19.1951 ,0.78602 ,3.52926 ,34.62907 
104 ,19.3713 ,0.78775 ,3.51557 ,34.49476 
105 ,19.5312 ,0.78947 ,3.47792 ,34.12540 
106 ,19.7074 ,0.79112 ,3.47792 ,34.12540 
107 ,19.8845 ,0.79290 ,3.44713 ,33.82319 
108 ,20.0756 ,0.79482 ,3.45055 ,33.85677 
109 ,20.2516 ,0.79663 ,3.44370 ,33.78961 
110 ,20.4279 ,0.79838 ,3.41975 ,33.55457 
111 ,20.6037 ,0.80015 ,3.40606 ,33.42025 
112 ,20.7957 ,0.80198 ,3.39921 ,33.35310 
113 ,20.9875 ,0.80391 ,3.36842 ,33.05089 
114 ,21.1636 ,0.80566 ,3.35130 ,32.88300 
115 ,21.3400 ,0.80747 ,3.34446 ,32.81584 
116 ,21.5482 ,0.80950 ,3.31708 ,32.54722 
117 ,21.7403 ,0.81139 ,3.30339 ,32.41290 
118 ,21.9323 ,0.81343 ,3.30682 ,32.44648 
119 ,22.1084 ,0.81517 ,3.27944 ,32.17786 
120 ,22.3165 ,0.81715 ,3.26917 ,32.07712 
121 ,22.5086 ,0.81904 ,3.24180 ,31.80849 
122 ,22.6842 ,0.82100 ,3.24864 ,31.87565 
123 ,22.8606 ,0.82266 ,3.23153 ,31.70776 
124 ,23.0527 ,0.82457 ,3.21784 ,31.57345 
125 ,23.2445 ,0.82651 ,3.18704 ,31.27124 
126 ,23.4210 ,0.82830 ,3.16993 ,31.10335 
127 ,23.6291 ,0.83017 ,3.16651 ,31.06977 
128 ,23.7890 ,0.83207 ,3.15282 ,30.93546 
129 ,23.9650 ,0.83369 ,3.13229 ,30.73399 
130 ,24.1572 ,0.83559 ,3.13229 ,30.73399 
131 ,24.3491 ,0.83753 ,3.10833 ,30.49894 
132 ,24.5252 ,0.83929 ,3.08780 ,30.29747 
133 ,24.7014 ,0.84104 ,3.08438 ,30.26389 
134 ,24.8935 ,0.84295 ,3.08095 ,30.23031 
135 ,25.0692 ,0.84471 ,3.05015 ,29.92811 
136 ,25.2454 ,0.84649 ,3.02620 ,29.69306 
137 ,25.4218 ,0.84828 ,3.01593 ,29.59233 
138 ,25.5978 ,0.85008 ,3.00567 ,29.49159 
139 ,25.7738 ,0.85177 ,3.00567 ,29.49159 
140 ,25.9497 ,0.85353 ,2.99540 ,29.39086 
141 ,26.1259 ,0.85528 ,2.96118 ,29.05507 
142 ,26.3182 ,0.85717 ,2.98171 ,29.25654 
143 ,26.4942 ,0.85898 ,2.95433 ,28.98792 
144 ,26.6859 ,0.86083 ,2.91669 ,28.61856 
145 ,26.8779 ,0.86284 ,2.91669 ,28.61856 
146 ,27.0541 ,0.86459 ,2.90985 ,28.55140 
147 ,27.2623 ,0.86658 ,2.87905 ,28.24919 
148 ,27.4381 ,0.86844 ,2.87220 ,28.18204 
149 ,27.6146 ,0.87018 ,2.85851 ,28.04772 
150 ,27.8066 ,0.87204 ,2.82429 ,27.71194 
151 ,27.9984 ,0.87404 ,2.83798 ,27.84625 
152 ,28.1748 ,0.87580 ,2.82771 ,27.74552 
153 ,28.3668 ,0.87765 ,2.78665 ,27.34258 
154 ,28.5430 ,0.87946 ,2.77296 ,27.20827 
155 ,28.7349 ,0.88138 ,2.78665 ,27.34258 
156 ,28.9271 ,0.88326 ,2.76954 ,27.17469 
157 ,29.0872 ,0.88500 ,2.73874 ,26.87248 
158 ,29.2632 ,0.88666 ,2.72505 ,26.73817 
159 ,29.4394 ,0.88842 ,2.71820 ,26.67101 
160 ,29.6314 ,0.89039 ,2.71478 ,26.63744 
161 ,29.8394 ,0.89227 ,2.67714 ,26.26807 
162 ,30.0155 ,0.89415 ,2.68056 ,26.30165 
163 ,30.2073 ,0.89602 ,2.65318 ,26.03303 
164 ,30.3993 ,0.89796 ,2.64634 ,25.96587 
165 ,30.5592 ,0.89976 ,2.63949 ,25.89871 
166 ,30.7356 ,0.90138 ,2.62238 ,25.73082 
167 ,30.9278 ,0.90325 ,2.61554 ,25.66367 
168 ,31.1357 ,0.90533 ,2.59501 ,25.46220 
169 ,31.3119 ,0.90717 ,2.58474 ,25.36146 
170 ,31.5202 ,0.90919 ,2.56421 ,25.15999 
171 ,31.7120 ,0.91116 ,2.55394 ,25.05926 
172 ,31.9038 ,0.91297 ,2.51972 ,24.72347 
173 ,32.0962 ,0.91497 ,2.52998 ,24.82421 
174 ,32.3044 ,0.91690 ,2.49918 ,24.52200 
175 ,32.4964 ,0.91896 ,2.49576 ,24.48842 
176 ,32.6726 ,0.92078 ,2.48892 ,24.42127 
177 ,32.8484 ,0.92249 ,2.46839 ,24.21980 
178 ,33.0567 ,0.92450 ,2.44785 ,24.01833 
179 ,33.2485 ,0.92647 ,2.42732 ,23.81686 
180 ,33.4409 ,0.92832 ,2.41363 ,23.68255 
181 ,33.6330 ,0.93034 ,2.41363 ,23.68255 
182 ,33.8090 ,0.93215 ,2.39310 ,23.48108 
183 ,33.9850 ,0.93384 ,2.37599 ,23.31318 
184 ,34.1772 ,0.93578 ,2.36914 ,23.24603 
185 ,34.3528 ,0.93756 ,2.36230 ,23.17887 
186 ,34.5294 ,0.93935 ,2.34519 ,23.01098 
187 ,34.7212 ,0.94125 ,2.31097 ,22.67520 
188 ,34.8969 ,0.94295 ,2.32465 ,22.80951 
189 ,35.0896 ,0.94488 ,2.29385 ,22.50731 
190 ,35.2816 ,0.94686 ,2.28017 ,22.37299 
191 ,35.4735 ,0.94871 ,2.27674 ,22.33941 
192 ,35.6498 ,0.95055 ,2.25963 ,22.17152 
193 ,35.8257 ,0.95234 ,2.23910 ,21.97005 
194 ,36.0019 ,0.95403 ,2.21172 ,21.70143 
195 ,36.1781 ,0.95582 ,2.20146 ,21.60069 
196 ,36.3700 ,0.95759 ,2.21172 ,21.70143 
197 ,36.5301 ,0.95944 ,2.18435 ,21.43280 
198 ,36.7061 ,0.96110 ,2.17408 ,21.33206 
199 ,36.8822 ,0.96288 ,2.15355 ,21.13059 
200 ,37.0583 ,0.96463 ,2.13301 ,20.92912 
201 ,37.2504 ,0.96652 ,2.14670 ,21.06344 
202 ,37.4425 ,0.96847 ,2.11590 ,20.76123 
203 ,37.6187 ,0.97024 ,2.10564 ,20.66050 
204 ,37.8267 ,0.97218 ,2.10564 ,20.66050 
205 ,38.0349 ,0.97423 ,2.06799 ,20.29114 
206 ,38.2108 ,0.97611 ,2.07141 ,20.32472 
207 ,38.3869 ,0.97785 ,2.05088 ,20.12325 
208 ,38.5786 ,0.97973 ,2.03377 ,19.95535 
209 ,38.7711 ,0.98168 ,2.02008 ,19.82104 
210 ,38.9630 ,0.98368 ,1.99955 ,19.61957 
211 ,39.1392 ,0.98542 ,1.99613 ,19.58599 
212 ,39.3312 ,0.98735 ,1.98928 ,19.51884 
213 ,39.5074 ,0.98901 ,1.96190 ,19.25021 
214 ,39.6830 ,0.99086 ,1.96190 ,19.25021 
215 ,39.8595 ,0.99261 ,1.93111 ,18.94801 
216 ,40.0516 ,0.99445 ,1.94822 ,19.11590 
217 ,40.2277 ,0.99622 ,1.92426 ,18.88085 
218 ,40.4198 ,0.99824 ,1.90031 ,18.64580 
219 ,40.5958 ,0.99994 ,1.88319 ,18.47791 
220 ,40.7874 ,1.00182 ,1.87635 ,18.41075 
221 ,40.9798 ,1.00366 ,1.86608 ,18.31002 
222 ,41.1559 ,1.00551 ,1.84897 ,18.14213 
223 ,41.3321 ,1.00729 ,1.85240 ,18.17570 
224 ,41.5242 ,1.00923 ,1.82844 ,17.94066 
225 ,41.7001 ,1.01096 ,1.79764 ,17.63845 
226 ,41.8599 ,1.01270 ,1.79080 ,17.57129 
227 ,42.0360 ,1.01442 ,1.77711 ,17.43698 
228 ,42.2285 ,1.01615 ,1.77711 ,17.43698 
229 ,42.4043 ,1.01803 ,1.75657 ,17.23551 
230 ,42.5966 ,1.01992 ,1.73946 ,17.06762 
231 ,42.7887 ,1.02178 ,1.74289 ,17.10120 
232 ,42.9648 ,1.02363 ,1.71209 ,16.79899 
233 ,43.1568 ,1.02545 ,1.69840 ,16.66468 
234 ,43.3488 ,1.02750 ,1.70182 ,16.69826 
235 ,43.5570 ,1.02957 ,1.68129 ,16.49679 
236 ,43.7491 ,1.03148 ,1.67786 ,16.46321 
237 ,43.9407 ,1.03331 ,1.64364 ,16.12743 
238 ,44.1172 ,1.03519 ,1.62653 ,15.95954 
239 ,44.2934 ,1.03692 ,1.63338 ,16.02669 
240 ,44.4853 ,1.03877 ,1.60258 ,15.72449 
241 ,44.6615 ,1.04059 ,1.58547 ,15.55660 
242 ,44.8537 ,1.04256 ,1.59916 ,15.69091 
243 ,45.0294 ,1.04427 ,1.57520 ,15.45586 
244 ,45.2055 ,1.04604 ,1.56151 ,15.32155 
245 ,45.4137 ,1.04804 ,1.55809 ,15.28797 
246 ,45.6054 ,1.04998 ,1.53413 ,15.05292 
247 ,45.7820 ,1.05180 ,1.51702 ,14.88503 
248 ,45.9897 ,1.05386 ,1.51360 ,14.85145 
249 ,46.1499 ,1.05559 ,1.49991 ,14.71714 
250 ,46.3261 ,1.05722 ,1.47938 ,14.51567 
251 ,46.5018 ,1.05899 ,1.46569 ,14.38136 
252 ,46.6780 ,1.06075 ,1.45542 ,14.28062 
253 ,46.8544 ,1.06254 ,1.44174 ,14.14631 
254 ,47.0621 ,1.06454 ,1.43489 ,14.07915 
255 ,47.2545 ,1.06652 ,1.42805 ,14.01199 
256 ,47.4466 ,1.06842 ,1.41436 ,13.87768 
257 ,47.6226 ,1.07020 ,1.40067 ,13.74337 
258 ,47.7987 ,1.07200 ,1.37671 ,13.50832 
259 ,47.9907 ,1.07387 ,1.39040 ,13.64263 
260 ,48.1668 ,1.07560 ,1.36303 ,13.37401 
261 ,48.3429 ,1.07735 ,1.33907 ,13.13896 
262 ,48.5190 ,1.07917 ,1.31854 ,12.93749 
263 ,48.7111 ,1.08105 ,1.32538 ,13.00465 
264 ,48.8871 ,1.08283 ,1.31512 ,12.90391 
265 ,49.0631 ,1.08457 ,1.29116 ,12.66886 
266 ,49.2393 ,1.08637 ,1.27063 ,12.46739 
267 ,49.4313 ,1.08820 ,1.27747 ,12.53455 
268 ,49.6235 ,1.09024 ,1.25694 ,12.33308 
269 ,49.7994 ,1.09197 ,1.23641 ,12.13161 
270 ,49.9593 ,1.09366 ,1.22956 ,12.06445 
271 ,50.1517 ,1.09547 ,1.23641 ,12.13161 
272 ,50.3437 ,1.09734 ,1.19534 ,11.72867 
273 ,50.5357 ,1.09925 ,1.20903 ,11.86298 
274 ,50.7281 ,1.10126 ,1.19534 ,11.72867 
275 ,50.9040 ,1.10301 ,1.17138 ,11.49362 
276 ,51.1121 ,1.10503 ,1.16796 ,11.46004 
277 ,51.3042 ,1.10697 ,1.13716 ,11.15784 
278 ,51.4960 ,1.10888 ,1.12005 ,10.98995 
279 ,51.6723 ,1.11066 ,1.13032 ,11.09068 
280 ,51.8642 ,1.11257 ,1.10636 ,10.85563 
281 ,52.0404 ,1.11433 ,1.08583 ,10.65416 
282 ,52.2164 ,1.11607 ,1.07214 ,10.51985 
283 ,52.4087 ,1.11792 ,1.08583 ,10.65416 
284 ,52.6166 ,1.12010 ,1.05161 ,10.31838 
285 ,52.8088 ,1.12206 ,1.05503 ,10.35196 
286 ,53.0006 ,1.12389 ,1.03108 ,10.11691 
287 ,53.1930 ,1.12587 ,1.02765 ,10.08333 
288 ,53.3848 ,1.12775 ,1.02081 ,10.01618 
289 ,53.5607 ,1.12956 ,0.98317 ,9.64682 
290 ,53.7371 ,1.13134 ,0.99685 ,9.78113 
291 ,53.9451 ,1.13332 ,0.96263 ,9.44535 
292 ,54.1213 ,1.13514 ,0.95237 ,9.34461 
293 ,54.2973 ,1.13692 ,0.95237 ,9.34461 
294 ,54.5054 ,1.13891 ,0.93183 ,9.14314 
295 ,54.6813 ,1.14086 ,0.91814 ,9.00883 
296 ,54.8572 ,1.14246 ,0.88392 ,8.67305 
297 ,55.0338 ,1.14425 ,0.90446 ,8.87451 
298 ,55.2095 ,1.14606 ,0.90788 ,8.90809 
299 ,55.3858 ,1.14777 ,0.88734 ,8.70662 
300 ,55.5938 ,1.14984 ,0.87023 ,8.53873 
301 ,55.7698 ,1.15159 ,0.86681 ,8.50515 
302 ,55.9459 ,1.15341 ,0.84286 ,8.27011 
303 ,56.1221 ,1.15519 ,0.81890 ,8.03506 
304 ,56.3303 ,1.15721 ,0.82575 ,8.10221 
305 ,56.5223 ,1.15917 ,0.80179 ,7.86717 
306 ,56.7141 ,1.16099 ,0.78468 ,7.69927 
307 ,56.8904 ,1.16281 ,0.79152 ,7.76643 
308 ,57.0824 ,1.16476 ,0.76757 ,7.53138 
309 ,57.2585 ,1.16655 ,0.75388 ,7.39707 
310 ,57.4666 ,1.16848 ,0.76072 ,7.46423 
311 ,57.6587 ,1.17048 ,0.72992 ,7.16202 
312 ,57.8344 ,1.17225 ,0.71966 ,7.06129 
313 ,58.0109 ,1.17405 ,0.72650 ,7.12844 
314 ,58.2029 ,1.17599 ,0.68886 ,6.75908 
315 ,58.3948 ,1.17781 ,0.69228 ,6.79266 
316 ,58.5710 ,1.17963 ,0.67175 ,6.59119 
317 ,58.7471 ,1.18135 ,0.66490 ,6.52403 
318 ,58.9550 ,1.18338 ,0.64779 ,6.35614 
319 ,59.1315 ,1.18523 ,0.65464 ,6.42330 
320 ,59.3233 ,1.18718 ,0.62726 ,6.15467 
321 ,59.4992 ,1.18888 ,0.60330 ,5.91962 
322 ,59.6751 ,1.19066 ,0.59646 ,5.85247 
323 ,59.8515 ,1.19243 ,0.60330 ,5.91962 
324 ,60.0277 ,1.19420 ,0.57935 ,5.68458 
325 ,60.2038 ,1.19594 ,0.56224 ,5.51668 
326 ,60.4119 ,1.19799 ,0.55197 ,5.41595 
327 ,60.5879 ,1.19977 ,0.55197 ,5.41595 
328 ,60.7800 ,1.20167 ,0.52459 ,5.14732 
329 ,60.9721 ,1.20359 ,0.53828 ,5.28164 
330 ,61.1481 ,1.20543 ,0.51433 ,5.04659 
331 ,61.3402 ,1.20731 ,0.48695 ,4.77796 
332 ,61.5322 ,1.20917 ,0.49722 ,4.87870 
333 ,61.7083 ,1.21101 ,0.47326 ,4.64365 
334 ,61.8842 ,1.21277 ,0.46642 ,4.57649 
335 ,62.0763 ,1.21470 ,0.47668 ,4.67723 
336 ,62.2687 ,1.21661 ,0.44246 ,4.34144 
337 ,62.4765 ,1.21860 ,0.43904 ,4.30787 
338 ,62.6688 ,1.22059 ,0.42535 ,4.17355 
339 ,62.8605 ,1.22251 ,0.39455 ,3.87135 
340 ,63.0367 ,1.22425 ,0.39113 ,3.83777 
341 ,63.2125 ,1.22602 ,0.38086 ,3.73703 
342 ,63.3891 ,1.22783 ,0.38429 ,3.77061 
343 ,63.5649 ,1.22961 ,0.34664 ,3.40125 
344 ,63.7408 ,1.23130 ,0.32953 ,3.23336 
345 ,63.9173 ,1.23303 ,0.32953 ,3.23336 
346 ,64.0933 ,1.23484 ,0.33295 ,3.26694 
347 ,64.2850 ,1.23679 ,0.30558 ,2.99831 
348 ,64.4614 ,1.23851 ,0.30558 ,2.99831 
349 ,64.6695 ,1.24051 ,0.29531 ,2.89758 
350 ,64.8456 ,1.24238 ,0.28847 ,2.83042 
351 ,65.0216 ,1.24427 ,0.26451 ,2.59537 
352 ,65.2137 ,1.24601 ,0.26793 ,2.62895 
353 ,65.4054 ,1.24787 ,0.25082 ,2.46106 
354 ,65.5818 ,1.24972 ,0.23713 ,2.32675 
355 ,65.7578 ,1.25144 ,0.22687 ,2.22601 
356 ,65.9338 ,1.25319 ,0.23371 ,2.29317 
357 ,66.1101 ,1.25497 ,0.22002 ,2.15885 
358 ,66.3022 ,1.25682 ,0.19607 ,1.92381 
359 ,66.4940 ,1.25877 ,0.17896 ,1.75592 
360 ,66.6862 ,1.26068 ,0.17553 ,1.72234 
361 ,66.8624 ,1.26251 ,0.15158 ,1.48729 
362 ,67.0545 ,1.26444 ,0.16527 ,1.62160 
363 ,67.2466 ,1.26628 ,0.13105 ,1.28582 
364 ,67.4543 ,1.26837 ,0.14131 ,1.38655 
365 ,67.6308 ,1.27020 ,0.12420 ,1.21866 
366 ,67.8229 ,1.27214 ,0.10025 ,0.98361 
367 ,68.0146 ,1.27408 ,0.10367 ,1.01719 
368 ,68.1909 ,1.27580 ,0.08998 ,0.88288 
369 ,68.3832 ,1.27774 ,0.06945 ,0.68141 
370 ,68.5750 ,1.27956 ,0.06945 ,0.68141 
371 ,68.7508 ,1.28137 ,0.05918 ,0.58067 
372 ,68.9274 ,1.28316 ,0.03865 ,0.37920 
373 ,69.1192 ,1.28508 ,0.03522 ,0.34563 
374 ,69.2954 ,1.28686 ,0.03180 ,0.31205 
375 ,69.4873 ,1.28868 ,0.00785 ,0.07700 
376 ,69.6636 ,1.29053 ,-0.00584 ,-0.05731 
377 ,69.8716 ,1.29252 ,0.01127 ,0.11058 
378 ,70.0636 ,1.29444 ,-0.02637 ,-0.25878 
379 ,70.2397 ,1.29628 ,-0.02980 ,-0.29236 
380 ,70.4158 ,1.29801 ,-0.03322 ,-0.32594 
381 ,70.6079 ,1.29995 ,-0.05033 ,-0.49383 
382 ,70.7995 ,1.30186 ,-0.05717 ,-0.56099 
383 ,70.9759 ,1.30362 ,-0.04691 ,-0.46025 
384 ,71.1522 ,1.30536 ,-0.06402 ,-0.62814 
385 ,71.3442 ,1.30733 ,-0.09482 ,-0.93035 
386 ,71.5203 ,1.30910 ,-0.10508 ,-1.03108 
387 ,71.7122 ,1.31100 ,-0.08113 ,-0.79604 
388 ,71.8885 ,1.31275 ,-0.11193 ,-1.09824 
389 ,72.0966 ,1.31479 ,-0.11535 ,-1.13182 
390 ,72.2887 ,1.31673 ,-0.13588 ,-1.33329 
391 ,72.4807 ,1.31861 ,-0.13588 ,-1.33329 
392 ,72.6888 ,1.32065 ,-0.14615 ,-1.43402 
393 ,72.8645 ,1.32257 ,-0.17353 ,-1.70265 
394 ,73.0405 ,1.32426 ,-0.19064 ,-1.87054 
395 ,73.2166 ,1.32603 ,-0.18722 ,-1.83696 
396 ,73.3927 ,1.32778 ,-0.18379 ,-1.80338 
397 ,73.5688 ,1.32955 ,-0.19064 ,-1.87054 
398 ,73.7289 ,1.33129 ,-0.21117 ,-2.07201 
399 ,73.9049 ,1.33293 ,-0.21459 ,-2.10559 
400 ,74.0810 ,1.33465 ,-0.23513 ,-2.30706 
401 ,74.2569 ,1.33642 ,-0.23513 ,-2.30706 
402 ,74.4330 ,1.33818 ,-0.23855 ,-2.34064 
403 ,74.6093 ,1.33993 ,-0.24197 ,-2.37422 
404 ,74.7853 ,1.34165 ,-0.26250 ,-2.57569 
405 ,74.9612 ,1.34346 ,-0.27961 ,-2.74358 
406 ,75.1374 ,1.34522 ,-0.27619 ,-2.71000 
407 ,75.3134 ,1.34697 ,-0.27277 ,-2.67642 
408 ,75.4896 ,1.34872 ,-0.28988 ,-2.84431 
409 ,75.6817 ,1.35057 ,-0.31041 ,-3.04578 
410 ,75.8417 ,1.35239 ,-0.32068 ,-3.14652 
411 ,76.0178 ,1.35401 ,-0.32068 ,-3.14652 
412 ,76.1938 ,1.35577 ,-0.32410 ,-3.18010 
413 ,76.3699 ,1.35752 ,-0.33095 ,-3.24725 
414 ,76.5300 ,1.35927 ,-0.34806 ,-3.41514 
415 ,76.6900 ,1.36086 ,-0.36175 ,-3.54946 
416 ,76.8502 ,1.36248 ,-0.37201 ,-3.65019 
417 ,77.2826 ,1.36538 ,-0.37886 ,-3.71735 
418 ,77.4908 ,1.36867 ,-0.38912 ,-3.81808 
419 ,77.6827 ,1.37061 ,-0.40623 ,-3.98597 
420 ,77.8589 ,1.37246 ,-0.40966 ,-4.01955 
421 ,78.0669 ,1.37450 ,-0.43703 ,-4.28818 
422 ,78.2748 ,1.37655 ,-0.41308 ,-4.05313 
423 ,78.4511 ,1.37832 ,-0.43703 ,-4.28818 
424 ,78.6272 ,1.38013 ,-0.44388 ,-4.35534 
425 ,78.8032 ,1.38188 ,-0.45757 ,-4.48965 
426 ,78.9794 ,1.38363 ,-0.46441 ,-4.55681 
427 ,79.1711 ,1.38554 ,-0.45757 ,-4.48965 
428 ,79.3476 ,1.38735 ,-0.48837 ,-4.79185 
429 ,79.5394 ,1.38917 ,-0.50206 ,-4.92617 
430 ,79.7156 ,1.39100 ,-0.48837 ,-4.79185 
431 ,79.9238 ,1.39296 ,-0.51232 ,-5.02690 
432 ,80.1158 ,1.39503 ,-0.51232 ,-5.02690 
433 ,80.3078 ,1.39694 ,-0.52259 ,-5.12764 
434 ,80.4840 ,1.39867 ,-0.55339 ,-5.42984 
435 ,80.6757 ,1.40052 ,-0.53285 ,-5.22837 
436 ,80.8358 ,1.40229 ,-0.53970 ,-5.29553 
437 ,81.0118 ,1.40396 ,-0.55681 ,-5.46342 
438 ,81.1718 ,1.40567 ,-0.57392 ,-5.63131 
439 ,81.3479 ,1.40733 ,-0.57050 ,-5.59773 
440 ,81.5405 ,1.40912 ,-0.59103 ,-5.79920 
441 ,81.7484 ,1.41121 ,-0.58419 ,-5.73205 
442 ,81.9409 ,1.41322 ,-0.60130 ,-5.89994 
443 ,82.1488 ,1.41520 ,-0.60814 ,-5.96709 
444 ,82.3408 ,1.41720 ,-0.61499 ,-6.03425 
445 ,82.5169 ,1.41905 ,-0.62525 ,-6.13499 
446 ,82.7248 ,1.42103 ,-0.63894 ,-6.26930 
447 ,82.9011 ,1.42284 ,-0.64579 ,-6.33646 
448 ,83.0771 ,1.42463 ,-0.65263 ,-6.40361 
449 ,83.2530 ,1.42639 ,-0.64236 ,-6.30288 
450 ,83.4449 ,1.42824 ,-0.67316 ,-6.60508 
451 ,83.6374 ,1.43010 ,-0.68001 ,-6.67224 
452 ,83.8294 ,1.43214 ,-0.68343 ,-6.70582 
453 ,84.0054 ,1.43387 ,-0.68685 ,-6.73940 
454 ,84.1974 ,1.43578 ,-0.70739 ,-6.94086 
455 ,84.3737 ,1.43757 ,-0.70396 ,-6.90729 
456 ,84.5496 ,1.43934 ,-0.70739 ,-6.94086 
457 ,84.7417 ,1.44125 ,-0.73818 ,-7.24307 
458 ,84.9337 ,1.44308 ,-0.72107 ,-7.07518 
459 ,85.1097 ,1.44493 ,-0.72792 ,-7.14233 
460 ,85.2860 ,1.44667 ,-0.75187 ,-7.37738 
461 ,85.4939 ,1.44859 ,-0.74503 ,-7.31023 
462 ,85.6861 ,1.45075 ,-0.76556 ,-7.51170 
463 ,85.8781 ,1.45257 ,-0.77583 ,-7.61243 
