Data stamp = , 11-04-2022 19:08:24 746

Calibration Values: 
Slope = , 26.54 , g/V 
Offset Voltage at no contact = , -0.501760 , V 

No , Time , Stage Position ,   Mass , Force 
   ,  (s) ,      (mm)      ,   (g)  , (mN)  

1 ,0.0000 ,0.59929 ,5.05554 ,49.60499 
2 ,0.2217 ,0.59936 ,5.04870 ,49.53784 
3 ,0.6380 ,0.60059 ,5.03159 ,49.36995 
4 ,0.8302 ,0.60248 ,5.03843 ,49.43710 
5 ,1.0223 ,0.60419 ,5.06581 ,49.70573 
6 ,1.1984 ,0.60596 ,5.05554 ,49.60499 
7 ,1.3744 ,0.60766 ,5.04528 ,49.50426 
8 ,1.5504 ,0.60951 ,5.03501 ,49.40352 
9 ,1.7586 ,0.61156 ,5.02817 ,49.33637 
10 ,1.9344 ,0.61335 ,5.01448 ,49.20205 
11 ,2.1107 ,0.61512 ,5.00421 ,49.10132 
12 ,2.2866 ,0.61684 ,4.98710 ,48.93343 
13 ,2.4789 ,0.61876 ,4.99394 ,49.00058 
14 ,2.6550 ,0.62055 ,4.95972 ,48.66480 
15 ,2.8469 ,0.62243 ,4.97341 ,48.79911 
16 ,3.0870 ,0.62469 ,4.94603 ,48.53049 
17 ,3.2949 ,0.62694 ,4.90155 ,48.09397 
18 ,3.4871 ,0.62885 ,4.88786 ,47.95966 
19 ,3.6794 ,0.63067 ,4.89470 ,48.02681 
20 ,3.8712 ,0.63262 ,4.85364 ,47.62387 
21 ,4.0636 ,0.63459 ,4.85021 ,47.59030 
22 ,4.2556 ,0.63651 ,4.82284 ,47.32167 
23 ,4.4637 ,0.63848 ,4.83310 ,47.42240 
24 ,4.6718 ,0.64063 ,4.79546 ,47.05304 
25 ,4.8475 ,0.64251 ,4.76466 ,46.75084 
26 ,5.0239 ,0.64431 ,4.77493 ,46.85157 
27 ,5.2320 ,0.64627 ,4.73044 ,46.41506 
28 ,5.4079 ,0.64807 ,4.73728 ,46.48221 
29 ,5.6003 ,0.64992 ,4.72017 ,46.31432 
30 ,5.7921 ,0.65188 ,4.69622 ,46.07927 
31 ,5.9844 ,0.65379 ,4.69279 ,46.04569 
32 ,6.1924 ,0.65591 ,4.66542 ,45.77707 
33 ,6.3846 ,0.65780 ,4.66199 ,45.74349 
34 ,6.5764 ,0.65968 ,4.62435 ,45.37413 
35 ,6.7847 ,0.66177 ,4.62777 ,45.40771 
36 ,6.9927 ,0.66384 ,4.61066 ,45.23981 
37 ,7.1689 ,0.66568 ,4.59013 ,45.03835 
38 ,7.3769 ,0.66769 ,4.55591 ,44.70256 
39 ,7.5527 ,0.66951 ,4.55249 ,44.66898 
40 ,7.7452 ,0.67138 ,4.53880 ,44.53467 
41 ,7.9531 ,0.67351 ,4.53195 ,44.46751 
42 ,8.1293 ,0.67529 ,4.50457 ,44.19889 
43 ,8.3533 ,0.67747 ,4.49773 ,44.13173 
44 ,8.5293 ,0.67931 ,4.47035 ,43.86310 
45 ,8.7055 ,0.68104 ,4.47720 ,43.93026 
46 ,8.8973 ,0.68304 ,4.43613 ,43.52732 
47 ,9.0897 ,0.68480 ,4.42929 ,43.46016 
48 ,9.2977 ,0.68692 ,4.40533 ,43.22512 
49 ,9.4898 ,0.68880 ,4.40191 ,43.19154 
50 ,9.6655 ,0.69069 ,4.40533 ,43.22512 
51 ,9.8578 ,0.69250 ,4.35742 ,42.75502 
52 ,10.0499 ,0.69448 ,4.35400 ,42.72144 
53 ,10.2421 ,0.69633 ,4.35058 ,42.68786 
54 ,10.4179 ,0.69818 ,4.33347 ,42.51997 
55 ,10.5942 ,0.69989 ,4.29240 ,42.11703 
56 ,10.7704 ,0.70170 ,4.28556 ,42.04988 
57 ,10.9624 ,0.70364 ,4.29582 ,42.15061 
58 ,11.1385 ,0.70537 ,4.27871 ,41.98272 
59 ,11.3625 ,0.70754 ,4.25133 ,41.71409 
60 ,11.5386 ,0.70935 ,4.24791 ,41.68051 
61 ,11.7149 ,0.71110 ,4.20342 ,41.24400 
62 ,11.9067 ,0.71314 ,4.21369 ,41.34473 
63 ,12.0987 ,0.71492 ,4.18631 ,41.07611 
64 ,12.2750 ,0.71671 ,4.18631 ,41.07611 
65 ,12.4670 ,0.71859 ,4.18289 ,41.04253 
66 ,12.6752 ,0.72075 ,4.12471 ,40.47170 
67 ,12.8833 ,0.72273 ,4.12471 ,40.47170 
68 ,13.0913 ,0.72481 ,4.11445 ,40.37096 
69 ,13.2992 ,0.72694 ,4.10076 ,40.23665 
70 ,13.5073 ,0.72888 ,4.08707 ,40.10233 
71 ,13.7154 ,0.73104 ,4.04600 ,39.69940 
72 ,13.8913 ,0.73287 ,4.03916 ,39.63224 
73 ,14.0838 ,0.73474 ,4.02889 ,39.53150 
74 ,14.2917 ,0.73693 ,4.00836 ,39.33003 
75 ,14.4838 ,0.73884 ,3.99125 ,39.16214 
76 ,14.6755 ,0.74064 ,3.97072 ,38.96067 
77 ,14.8521 ,0.74249 ,3.95018 ,38.75920 
78 ,15.0440 ,0.74448 ,3.95703 ,38.82636 
79 ,15.2361 ,0.74630 ,3.92281 ,38.49058 
80 ,15.4124 ,0.74806 ,3.90227 ,38.28911 
81 ,15.6204 ,0.75007 ,3.89543 ,38.22195 
82 ,15.8124 ,0.75206 ,3.89201 ,38.18837 
83 ,15.9883 ,0.75389 ,3.88174 ,38.08764 
84 ,16.1964 ,0.75586 ,3.85779 ,37.85259 
85 ,16.4047 ,0.75802 ,3.85436 ,37.81901 
86 ,16.5966 ,0.75984 ,3.82014 ,37.48323 
87 ,16.7728 ,0.76169 ,3.81672 ,37.44965 
88 ,16.9489 ,0.76341 ,3.79276 ,37.21460 
89 ,17.1250 ,0.76525 ,3.78934 ,37.18102 
90 ,17.3330 ,0.76721 ,3.74143 ,36.71093 
91 ,17.5090 ,0.76904 ,3.75170 ,36.81166 
92 ,17.7011 ,0.77095 ,3.73801 ,36.67735 
93 ,17.8771 ,0.77271 ,3.73117 ,36.61019 
94 ,18.0694 ,0.77466 ,3.70379 ,36.34157 
95 ,18.2773 ,0.77670 ,3.67299 ,36.03936 
96 ,18.4856 ,0.77880 ,3.67983 ,36.10652 
97 ,18.6775 ,0.78062 ,3.65588 ,35.87147 
98 ,18.8696 ,0.78259 ,3.62508 ,35.56926 
99 ,19.0458 ,0.78444 ,3.63192 ,35.63642 
100 ,19.2214 ,0.78615 ,3.63534 ,35.67000 
101 ,19.3978 ,0.78794 ,3.60112 ,35.33422 
102 ,19.5901 ,0.78972 ,3.56348 ,34.96485 
103 ,19.8302 ,0.79209 ,3.53952 ,34.72981 
104 ,20.0221 ,0.79411 ,3.54979 ,34.83054 
105 ,20.1981 ,0.79587 ,3.52241 ,34.56192 
106 ,20.3904 ,0.79781 ,3.49846 ,34.32687 
107 ,20.5824 ,0.79972 ,3.51215 ,34.46118 
108 ,20.7745 ,0.80164 ,3.48477 ,34.19255 
109 ,20.9506 ,0.80343 ,3.47108 ,34.05824 
110 ,21.1586 ,0.80545 ,3.46424 ,33.99108 
111 ,21.3343 ,0.80735 ,3.43001 ,33.65530 
112 ,21.5109 ,0.80910 ,3.43686 ,33.72246 
113 ,21.7189 ,0.81104 ,3.40264 ,33.38667 
114 ,21.9110 ,0.81297 ,3.39237 ,33.28594 
115 ,22.1030 ,0.81493 ,3.38210 ,33.18520 
116 ,22.3112 ,0.81690 ,3.35473 ,32.91658 
117 ,22.5191 ,0.81904 ,3.35815 ,32.95016 
118 ,22.7273 ,0.82113 ,3.33419 ,32.71511 
119 ,22.9194 ,0.82304 ,3.31708 ,32.54722 
120 ,23.1115 ,0.82502 ,3.30682 ,32.44648 
121 ,23.2873 ,0.82678 ,3.27259 ,32.11070 
122 ,23.4632 ,0.82864 ,3.26917 ,32.07712 
123 ,23.6557 ,0.83041 ,3.25206 ,31.90923 
124 ,23.8797 ,0.83266 ,3.24864 ,31.87565 
125 ,24.0719 ,0.83452 ,3.23495 ,31.74134 
126 ,24.2799 ,0.83674 ,3.20757 ,31.47271 
127 ,24.4561 ,0.83847 ,3.20073 ,31.40555 
128 ,24.6641 ,0.84050 ,3.19046 ,31.30482 
129 ,24.8722 ,0.84266 ,3.13913 ,30.80115 
130 ,25.1124 ,0.84486 ,3.15282 ,30.93546 
131 ,25.3204 ,0.84704 ,3.13571 ,30.76757 
132 ,25.5126 ,0.84901 ,3.09806 ,30.39821 
133 ,25.7040 ,0.85102 ,3.09122 ,30.33105 
134 ,25.8961 ,0.85282 ,3.06384 ,30.06242 
135 ,26.0886 ,0.85475 ,3.05358 ,29.96169 
136 ,26.3127 ,0.85697 ,3.02962 ,29.72664 
137 ,26.4887 ,0.85884 ,3.02962 ,29.72664 
138 ,26.6646 ,0.86057 ,3.02278 ,29.65948 
139 ,26.8568 ,0.86242 ,3.00224 ,29.45801 
140 ,27.0490 ,0.86436 ,2.98513 ,29.29012 
141 ,27.2411 ,0.86623 ,2.98171 ,29.25654 
142 ,27.4492 ,0.86835 ,2.94407 ,28.88718 
143 ,27.6413 ,0.87022 ,2.95091 ,28.95434 
144 ,27.8173 ,0.87219 ,2.93722 ,28.82003 
145 ,28.0255 ,0.87402 ,2.93038 ,28.75287 
146 ,28.2174 ,0.87602 ,2.89273 ,28.38351 
147 ,28.3933 ,0.87781 ,2.87905 ,28.24919 
148 ,28.5694 ,0.87964 ,2.86878 ,28.14846 
149 ,28.7773 ,0.88170 ,2.86536 ,28.11488 
150 ,28.9699 ,0.88353 ,2.84140 ,27.87983 
151 ,29.1618 ,0.88544 ,2.83456 ,27.81268 
152 ,29.3379 ,0.88732 ,2.82429 ,27.71194 
153 ,29.5461 ,0.88930 ,2.80718 ,27.54405 
154 ,29.7542 ,0.89143 ,2.78322 ,27.30900 
155 ,29.9461 ,0.89345 ,2.79691 ,27.44332 
156 ,30.1223 ,0.89511 ,2.74900 ,26.97322 
157 ,30.3143 ,0.89699 ,2.71136 ,26.60386 
158 ,30.5062 ,0.89890 ,2.73189 ,26.80533 
159 ,30.6825 ,0.90071 ,2.71136 ,26.60386 
160 ,30.8745 ,0.90258 ,2.67714 ,26.26807 
161 ,31.0666 ,0.90449 ,2.67372 ,26.23450 
162 ,31.2908 ,0.90673 ,2.65318 ,26.03303 
163 ,31.4985 ,0.90889 ,2.67372 ,26.23450 
164 ,31.6909 ,0.91077 ,2.63949 ,25.89871 
165 ,31.8989 ,0.91282 ,2.62581 ,25.76440 
166 ,32.0912 ,0.91473 ,2.60527 ,25.56293 
167 ,32.2992 ,0.91685 ,2.59501 ,25.46220 
168 ,32.5070 ,0.91895 ,2.57105 ,25.22715 
169 ,32.6834 ,0.92075 ,2.55736 ,25.09283 
170 ,32.8913 ,0.92273 ,2.51972 ,24.72347 
171 ,33.0833 ,0.92466 ,2.53683 ,24.89136 
172 ,33.2917 ,0.92671 ,2.51287 ,24.65632 
173 ,33.4833 ,0.92868 ,2.50261 ,24.55558 
174 ,33.6598 ,0.93052 ,2.50261 ,24.55558 
175 ,33.8519 ,0.93230 ,2.46154 ,24.15264 
176 ,34.0600 ,0.93435 ,2.46496 ,24.18622 
177 ,34.2680 ,0.93655 ,2.41705 ,23.71612 
178 ,34.4919 ,0.93868 ,2.43416 ,23.88402 
179 ,34.6842 ,0.94072 ,2.42048 ,23.74970 
180 ,34.8922 ,0.94276 ,2.37599 ,23.31318 
181 ,35.0682 ,0.94455 ,2.36914 ,23.24603 
182 ,35.2601 ,0.94643 ,2.37941 ,23.34676 
183 ,35.4361 ,0.94821 ,2.35888 ,23.14529 
184 ,35.6284 ,0.95011 ,2.33834 ,22.94382 
185 ,35.8366 ,0.95222 ,2.33150 ,22.87667 
186 ,36.0287 ,0.95410 ,2.31097 ,22.67520 
187 ,36.2365 ,0.95624 ,2.29385 ,22.50731 
188 ,36.4289 ,0.95810 ,2.28359 ,22.40657 
189 ,36.6370 ,0.96022 ,2.25963 ,22.17152 
190 ,36.8291 ,0.96210 ,2.23568 ,21.93647 
191 ,37.0051 ,0.96397 ,2.22883 ,21.86932 
192 ,37.1813 ,0.96570 ,2.21172 ,21.70143 
193 ,37.3731 ,0.96766 ,2.20146 ,21.60069 
194 ,37.5494 ,0.96939 ,2.18092 ,21.39922 
195 ,37.7255 ,0.97111 ,2.17066 ,21.29849 
196 ,37.9177 ,0.97298 ,2.16381 ,21.23133 
197 ,38.1097 ,0.97493 ,2.14328 ,21.02986 
198 ,38.2858 ,0.97671 ,2.13301 ,20.92912 
199 ,38.4778 ,0.97854 ,2.13644 ,20.96270 
200 ,38.6858 ,0.98067 ,2.10221 ,20.62692 
201 ,38.8939 ,0.98277 ,2.09537 ,20.55976 
202 ,39.1019 ,0.98474 ,2.08168 ,20.42545 
203 ,39.3101 ,0.98695 ,2.06115 ,20.22398 
204 ,39.4861 ,0.98870 ,2.03035 ,19.92178 
205 ,39.6943 ,0.99066 ,2.03035 ,19.92178 
206 ,39.9023 ,0.99287 ,2.04404 ,20.05609 
207 ,40.0943 ,0.99475 ,1.99270 ,19.55241 
208 ,40.2706 ,0.99653 ,1.97217 ,19.35094 
209 ,40.4623 ,0.99845 ,1.97217 ,19.35094 
210 ,40.6547 ,1.00036 ,1.94822 ,19.11590 
211 ,40.8627 ,1.00242 ,1.94822 ,19.11590 
212 ,41.0388 ,1.00426 ,1.93453 ,18.98158 
213 ,41.2629 ,1.00630 ,1.91742 ,18.81369 
214 ,41.5028 ,1.00872 ,1.90373 ,18.67938 
215 ,41.7110 ,1.01084 ,1.86951 ,18.34360 
216 ,41.9192 ,1.01299 ,1.86608 ,18.31002 
217 ,42.1114 ,1.01488 ,1.85582 ,18.20928 
218 ,42.3030 ,1.01694 ,1.83528 ,18.00781 
219 ,42.4952 ,1.01880 ,1.82844 ,17.94066 
220 ,42.6715 ,1.02058 ,1.80791 ,17.73919 
221 ,42.8795 ,1.02259 ,1.80449 ,17.70561 
222 ,43.0717 ,1.02457 ,1.77711 ,17.43698 
223 ,43.2638 ,1.02644 ,1.78053 ,17.47056 
224 ,43.4718 ,1.02850 ,1.73946 ,17.06762 
225 ,43.6636 ,1.03040 ,1.74973 ,17.16836 
226 ,43.8558 ,1.03233 ,1.72920 ,16.96689 
227 ,44.0320 ,1.03415 ,1.71551 ,16.83257 
228 ,44.2242 ,1.03596 ,1.69498 ,16.63110 
229 ,44.4482 ,1.03832 ,1.67786 ,16.46321 
230 ,44.6563 ,1.04042 ,1.66760 ,16.36248 
231 ,44.8323 ,1.04227 ,1.64022 ,16.09385 
232 ,45.0405 ,1.04418 ,1.65049 ,16.19458 
233 ,45.2325 ,1.04612 ,1.62653 ,15.95954 
234 ,45.4087 ,1.04795 ,1.60600 ,15.75807 
235 ,45.6166 ,1.04992 ,1.59916 ,15.69091 
236 ,45.7923 ,1.05174 ,1.58889 ,15.59018 
237 ,45.9848 ,1.05365 ,1.58204 ,15.52302 
238 ,46.1606 ,1.05547 ,1.56151 ,15.32155 
239 ,46.3370 ,1.05721 ,1.55809 ,15.28797 
240 ,46.5610 ,1.05928 ,1.53071 ,15.01934 
241 ,46.7532 ,1.06135 ,1.52045 ,14.91861 
242 ,46.9452 ,1.06326 ,1.49649 ,14.68356 
243 ,47.1533 ,1.06537 ,1.49649 ,14.68356 
244 ,47.3294 ,1.06716 ,1.47253 ,14.44851 
245 ,47.5373 ,1.06922 ,1.47253 ,14.44851 
246 ,47.7456 ,1.07126 ,1.45885 ,14.31420 
247 ,47.9216 ,1.07311 ,1.43147 ,14.04557 
248 ,48.0976 ,1.07486 ,1.43147 ,14.04557 
249 ,48.3056 ,1.07684 ,1.40751 ,13.81053 
250 ,48.4978 ,1.07872 ,1.40067 ,13.74337 
251 ,48.6899 ,1.08069 ,1.35276 ,13.27327 
252 ,48.8980 ,1.08277 ,1.36645 ,13.40759 
253 ,49.0900 ,1.08467 ,1.33223 ,13.07180 
254 ,49.2981 ,1.08675 ,1.34934 ,13.23969 
255 ,49.4902 ,1.08865 ,1.32196 ,12.97107 
256 ,49.6823 ,1.09062 ,1.32880 ,13.03822 
257 ,49.8582 ,1.09245 ,1.28089 ,12.56813 
258 ,50.0344 ,1.09426 ,1.28089 ,12.56813 
259 ,50.2426 ,1.09615 ,1.28432 ,12.60171 
260 ,50.4346 ,1.09812 ,1.26720 ,12.43381 
261 ,50.6428 ,1.10009 ,1.24667 ,12.23235 
262 ,50.8508 ,1.10235 ,1.22272 ,11.99730 
263 ,51.0585 ,1.10433 ,1.22956 ,12.06445 
264 ,51.2509 ,1.10624 ,1.19534 ,11.72867 
265 ,51.4749 ,1.10852 ,1.18165 ,11.59436 
266 ,51.6511 ,1.11035 ,1.16112 ,11.39289 
267 ,51.8591 ,1.11244 ,1.15427 ,11.32573 
268 ,52.0512 ,1.11433 ,1.13032 ,11.09068 
269 ,52.2594 ,1.11637 ,1.15085 ,11.29215 
270 ,52.4673 ,1.11843 ,1.10979 ,10.88921 
271 ,52.6595 ,1.12031 ,1.10979 ,10.88921 
272 ,52.8674 ,1.12243 ,1.07899 ,10.58701 
273 ,53.0755 ,1.12445 ,1.07214 ,10.51985 
274 ,53.2515 ,1.12633 ,1.04819 ,10.28480 
275 ,53.4276 ,1.12808 ,1.04134 ,10.21765 
276 ,53.6356 ,1.13010 ,1.03108 ,10.11691 
277 ,53.8122 ,1.13194 ,1.03108 ,10.11691 
278 ,54.0040 ,1.13385 ,1.01396 ,9.94902 
279 ,54.1962 ,1.13568 ,1.01054 ,9.91544 
280 ,54.4202 ,1.13790 ,0.97974 ,9.61324 
281 ,54.6282 ,1.14003 ,0.96263 ,9.44535 
282 ,54.8041 ,1.14188 ,0.94894 ,9.31103 
283 ,55.0126 ,1.14390 ,0.93868 ,9.21030 
284 ,55.2042 ,1.14583 ,0.92499 ,9.07598 
285 ,55.3805 ,1.14762 ,0.91130 ,8.94167 
286 ,55.5567 ,1.14936 ,0.90446 ,8.87451 
287 ,55.7808 ,1.15147 ,0.89419 ,8.77378 
288 ,55.9889 ,1.15371 ,0.87708 ,8.60589 
289 ,56.1649 ,1.15551 ,0.86681 ,8.50515 
290 ,56.3407 ,1.15724 ,0.84286 ,8.27011 
291 ,56.5331 ,1.15909 ,0.82575 ,8.10221 
292 ,56.7408 ,1.16115 ,0.83259 ,8.16937 
293 ,56.9329 ,1.16309 ,0.79837 ,7.83359 
294 ,57.1254 ,1.16492 ,0.80863 ,7.93432 
295 ,57.3013 ,1.16688 ,0.79152 ,7.76643 
296 ,57.4934 ,1.16864 ,0.77441 ,7.59854 
297 ,57.6696 ,1.17048 ,0.75730 ,7.43065 
298 ,57.8614 ,1.17233 ,0.75388 ,7.39707 
299 ,58.0376 ,1.17416 ,0.74361 ,7.29633 
300 ,58.2457 ,1.17623 ,0.72650 ,7.12844 
301 ,58.4215 ,1.17800 ,0.71281 ,6.99413 
302 ,58.6135 ,1.17986 ,0.71966 ,7.06129 
303 ,58.8056 ,1.18183 ,0.68201 ,6.69193 
304 ,58.9817 ,1.18364 ,0.69228 ,6.79266 
305 ,59.1418 ,1.18531 ,0.67517 ,6.62477 
306 ,59.3339 ,1.18708 ,0.65464 ,6.42330 
307 ,59.5102 ,1.18896 ,0.63068 ,6.18825 
308 ,59.7024 ,1.19087 ,0.63410 ,6.22183 
309 ,59.8945 ,1.19270 ,0.63068 ,6.18825 
310 ,60.1025 ,1.19474 ,0.61015 ,5.98678 
311 ,60.3106 ,1.19689 ,0.57593 ,5.65100 
312 ,60.4866 ,1.19872 ,0.56908 ,5.58384 
313 ,60.6943 ,1.20082 ,0.55882 ,5.48311 
314 ,60.8708 ,1.20253 ,0.55539 ,5.44953 
315 ,61.0789 ,1.20445 ,0.53828 ,5.28164 
316 ,61.2869 ,1.20665 ,0.51775 ,5.08017 
317 ,61.4790 ,1.20850 ,0.52117 ,5.11375 
318 ,61.6871 ,1.21059 ,0.49722 ,4.87870 
319 ,61.8793 ,1.21251 ,0.49380 ,4.84512 
320 ,62.0874 ,1.21460 ,0.47668 ,4.67723 
321 ,62.2794 ,1.21651 ,0.49037 ,4.81154 
322 ,62.4715 ,1.21841 ,0.44931 ,4.40860 
323 ,62.6955 ,1.22067 ,0.45273 ,4.44218 
324 ,62.9035 ,1.22276 ,0.41509 ,4.07282 
325 ,63.0956 ,1.22473 ,0.43220 ,4.24071 
326 ,63.2874 ,1.22656 ,0.40140 ,3.93850 
327 ,63.4639 ,1.22841 ,0.38429 ,3.77061 
328 ,63.6718 ,1.23044 ,0.38086 ,3.73703 
329 ,63.8636 ,1.23236 ,0.37060 ,3.63630 
330 ,64.0560 ,1.23430 ,0.36033 ,3.53557 
331 ,64.2321 ,1.23609 ,0.34664 ,3.40125 
332 ,64.4242 ,1.23793 ,0.33295 ,3.26694 
333 ,64.6324 ,1.24004 ,0.32953 ,3.23336 
334 ,64.8242 ,1.24197 ,0.29531 ,2.89758 
335 ,65.0005 ,1.24376 ,0.30215 ,2.96473 
336 ,65.2246 ,1.24598 ,0.27478 ,2.69611 
337 ,65.4487 ,1.24815 ,0.27820 ,2.72969 
338 ,65.6410 ,1.25015 ,0.27478 ,2.69611 
339 ,65.8328 ,1.25206 ,0.26109 ,2.56179 
340 ,66.0087 ,1.25382 ,0.22344 ,2.19243 
341 ,66.1849 ,1.25558 ,0.22687 ,2.22601 
342 ,66.3607 ,1.25738 ,0.20976 ,2.05812 
343 ,66.5368 ,1.25915 ,0.21318 ,2.09170 
344 ,66.7133 ,1.26093 ,0.19949 ,1.95738 
345 ,66.9052 ,1.26284 ,0.18580 ,1.82307 
346 ,67.0970 ,1.26465 ,0.16869 ,1.65518 
347 ,67.2893 ,1.26667 ,0.16185 ,1.58802 
348 ,67.4815 ,1.26851 ,0.14473 ,1.42013 
349 ,67.6895 ,1.27055 ,0.12762 ,1.25224 
350 ,67.8817 ,1.27248 ,0.11393 ,1.11793 
351 ,68.0737 ,1.27447 ,0.11393 ,1.11793 
352 ,68.2818 ,1.27654 ,0.09682 ,0.95004 
353 ,68.4899 ,1.27858 ,0.09682 ,0.95004 
354 ,68.6819 ,1.28054 ,0.06945 ,0.68141 
355 ,68.8900 ,1.28256 ,0.07629 ,0.74857 
356 ,69.0980 ,1.28466 ,0.06945 ,0.68141 
357 ,69.3062 ,1.28685 ,0.04891 ,0.47994 
358 ,69.4983 ,1.28877 ,0.03865 ,0.37920 
359 ,69.6904 ,1.29059 ,0.01127 ,0.11058 
360 ,69.8824 ,1.29250 ,0.00443 ,0.04342 
361 ,70.0584 ,1.29432 ,-0.00926 ,-0.09089 
362 ,70.2503 ,1.29620 ,0.00443 ,0.04342 
363 ,70.4423 ,1.29814 ,-0.00584 ,-0.05731 
364 ,70.6187 ,1.29997 ,-0.01611 ,-0.15805 
365 ,70.8109 ,1.30179 ,-0.05033 ,-0.49383 
366 ,71.0028 ,1.30373 ,-0.04348 ,-0.42667 
367 ,71.1951 ,1.30568 ,-0.02980 ,-0.29236 
368 ,71.3870 ,1.30757 ,-0.06060 ,-0.59457 
369 ,71.6112 ,1.30977 ,-0.07086 ,-0.69530 
370 ,71.8195 ,1.31189 ,-0.07771 ,-0.76246 
371 ,72.0113 ,1.31397 ,-0.09824 ,-0.96393 
372 ,72.2035 ,1.31576 ,-0.13246 ,-1.29971 
373 ,72.4114 ,1.31782 ,-0.09482 ,-0.93035 
374 ,72.6037 ,1.31971 ,-0.10851 ,-1.06466 
375 ,72.7956 ,1.32162 ,-0.12219 ,-1.19898 
376 ,72.9878 ,1.32355 ,-0.14273 ,-1.40045 
377 ,73.1959 ,1.32568 ,-0.14957 ,-1.46760 
378 ,73.3876 ,1.32753 ,-0.17011 ,-1.66907 
379 ,73.5800 ,1.32948 ,-0.15984 ,-1.56834 
380 ,73.7881 ,1.33158 ,-0.18379 ,-1.80338 
381 ,74.0122 ,1.33374 ,-0.16668 ,-1.63549 
382 ,74.2042 ,1.33570 ,-0.20775 ,-2.03843 
383 ,74.4125 ,1.33780 ,-0.20433 ,-2.00485 
384 ,74.6045 ,1.33970 ,-0.23855 ,-2.34064 
385 ,74.7965 ,1.34164 ,-0.23170 ,-2.27348 
386 ,74.9562 ,1.34340 ,-0.23513 ,-2.30706 
387 ,75.1327 ,1.34509 ,-0.24881 ,-2.44137 
388 ,75.3408 ,1.34707 ,-0.25566 ,-2.50853 
389 ,75.5325 ,1.34917 ,-0.27961 ,-2.74358 
390 ,75.7250 ,1.35089 ,-0.27619 ,-2.71000 
391 ,75.9331 ,1.35302 ,-0.28988 ,-2.84431 
392 ,76.1252 ,1.35489 ,-0.30699 ,-3.01220 
393 ,76.3171 ,1.35680 ,-0.28304 ,-2.77716 
394 ,76.5094 ,1.35876 ,-0.33095 ,-3.24725 
395 ,76.7173 ,1.36082 ,-0.31384 ,-3.07936 
396 ,76.9255 ,1.36290 ,-0.35490 ,-3.48230 
397 ,77.1335 ,1.36502 ,-0.32752 ,-3.21367 
398 ,77.3095 ,1.36682 ,-0.37201 ,-3.65019 
399 ,77.4857 ,1.36856 ,-0.38228 ,-3.75093 
400 ,77.6934 ,1.37061 ,-0.36175 ,-3.54946 
401 ,77.8859 ,1.37252 ,-0.39939 ,-3.91882 
402 ,78.0779 ,1.37443 ,-0.37544 ,-3.68377 
403 ,78.2699 ,1.37638 ,-0.39939 ,-3.91882 
404 ,78.4621 ,1.37825 ,-0.43019 ,-4.22102 
405 ,78.6698 ,1.38044 ,-0.43361 ,-4.25460 
406 ,78.8624 ,1.38223 ,-0.44046 ,-4.32176 
407 ,79.0703 ,1.38431 ,-0.44730 ,-4.38891 
408 ,79.2625 ,1.38630 ,-0.43703 ,-4.28818 
409 ,79.4705 ,1.38835 ,-0.47810 ,-4.69112 
410 ,79.6626 ,1.39029 ,-0.47468 ,-4.65754 
411 ,79.8547 ,1.39220 ,-0.47126 ,-4.62396 
412 ,80.0468 ,1.39412 ,-0.49863 ,-4.89259 
413 ,80.2229 ,1.39593 ,-0.48494 ,-4.75828 
414 ,80.4151 ,1.39781 ,-0.51232 ,-5.02690 
415 ,80.6230 ,1.39994 ,-0.51917 ,-5.09406 
416 ,80.8152 ,1.40179 ,-0.51574 ,-5.06048 
417 ,81.0392 ,1.40399 ,-0.53970 ,-5.29553 
418 ,81.2472 ,1.40609 ,-0.52601 ,-5.16121 
419 ,81.4231 ,1.40794 ,-0.54312 ,-5.32911 
420 ,81.6315 ,1.40995 ,-0.54312 ,-5.32911 
421 ,81.8235 ,1.41186 ,-0.57050 ,-5.59773 
422 ,82.0476 ,1.41408 ,-0.58077 ,-5.69847 
423 ,82.2718 ,1.41632 ,-0.58761 ,-5.76562 
424 ,82.4797 ,1.41839 ,-0.60130 ,-5.89994 
425 ,82.6720 ,1.42036 ,-0.59103 ,-5.79920 
426 ,82.8799 ,1.42237 ,-0.61841 ,-6.06783 
427 ,83.0722 ,1.42445 ,-0.61841 ,-6.06783 
428 ,83.2802 ,1.42650 ,-0.62183 ,-6.10141 
429 ,83.4724 ,1.42843 ,-0.62525 ,-6.13499 
430 ,83.6803 ,1.43050 ,-0.66974 ,-6.57150 
431 ,83.8724 ,1.43237 ,-0.64921 ,-6.37003 
432 ,84.0964 ,1.43456 ,-0.64921 ,-6.37003 
433 ,84.2884 ,1.43654 ,-0.68343 ,-6.70582 
434 ,84.4806 ,1.43845 ,-0.69027 ,-6.77297 
435 ,84.6728 ,1.44040 ,-0.68001 ,-6.67224 
436 ,84.8806 ,1.44253 ,-0.70396 ,-6.90729 
437 ,85.0725 ,1.44437 ,-0.68001 ,-6.67224 
438 ,85.2649 ,1.44633 ,-0.72792 ,-7.14233 
439 ,85.4569 ,1.44824 ,-0.71081 ,-6.97444 
440 ,85.6651 ,1.45024 ,-0.72450 ,-7.10876 
441 ,85.8733 ,1.45245 ,-0.72450 ,-7.10876 
442 ,86.0808 ,1.45455 ,-0.75187 ,-7.37738 
443 ,86.2728 ,1.45638 ,-0.74503 ,-7.31023 
444 ,86.4649 ,1.45830 ,-0.75872 ,-7.44454 
445 ,86.6575 ,1.46025 ,-0.76214 ,-7.47812 
446 ,86.8817 ,1.46248 ,-0.77583 ,-7.61243 
447 ,87.0737 ,1.46441 ,-0.79294 ,-7.78032 
448 ,87.2975 ,1.46669 ,-0.78610 ,-7.71317 
449 ,87.5057 ,1.46869 ,-0.82032 ,-8.04895 
450 ,87.6976 ,1.47063 ,-0.81689 ,-8.01537 
451 ,87.9058 ,1.47269 ,-0.82374 ,-8.08253 
452 ,88.0979 ,1.47461 ,-0.83743 ,-8.21684 
453 ,88.2898 ,1.47658 ,-0.82716 ,-8.11611 
454 ,88.4984 ,1.47853 ,-0.86138 ,-8.45189 
455 ,88.7224 ,1.48080 ,-0.86138 ,-8.45189 
456 ,88.9148 ,1.48284 ,-0.85454 ,-8.38473 
457 ,89.1063 ,1.48484 ,-0.88876 ,-8.72051 
458 ,89.2986 ,1.48663 ,-0.89903 ,-8.82125 
459 ,89.5065 ,1.48879 ,-0.87849 ,-8.61978 
460 ,89.6987 ,1.49063 ,-0.90587 ,-8.88841 
461 ,89.8907 ,1.49257 ,-0.90929 ,-8.92198 
462 ,90.0830 ,1.49449 ,-0.92640 ,-9.08988 
