Data stamp = , 11-04-2022 20:42:34 071

Calibration Values: 
Slope = , 26.54 , g/V 
Offset Voltage at no contact = , -0.501760 , V 

No , Time , Stage Position ,   Mass , Force 
   ,  (s) ,      (mm)      ,   (g)  , (mN)  

1 ,0.0000 ,0.59935 ,5.10003 ,50.04151 
2 ,0.2081 ,0.59941 ,5.08292 ,49.87362 
3 ,0.7043 ,0.60104 ,5.09661 ,50.00793 
4 ,0.9125 ,0.60315 ,5.09319 ,49.97436 
5 ,1.1529 ,0.60559 ,5.08977 ,49.94078 
6 ,1.3608 ,0.60761 ,5.10345 ,50.07509 
7 ,1.5691 ,0.60971 ,5.08977 ,49.94078 
8 ,1.7612 ,0.61163 ,5.08977 ,49.94078 
9 ,1.9527 ,0.61373 ,5.06923 ,49.73931 
10 ,2.1450 ,0.61551 ,5.07608 ,49.80646 
11 ,2.3370 ,0.61739 ,5.03843 ,49.43710 
12 ,2.5456 ,0.61940 ,5.03843 ,49.43710 
13 ,2.7696 ,0.62174 ,5.02474 ,49.30279 
14 ,2.9616 ,0.62366 ,5.01106 ,49.16848 
15 ,3.1377 ,0.62545 ,4.98710 ,48.93343 
16 ,3.3298 ,0.62727 ,4.98026 ,48.86627 
17 ,3.5060 ,0.62914 ,4.97341 ,48.79911 
18 ,3.7139 ,0.63118 ,4.92550 ,48.32902 
19 ,3.8900 ,0.63303 ,4.92208 ,48.29544 
20 ,4.0980 ,0.63504 ,4.89812 ,48.06039 
21 ,4.3061 ,0.63707 ,4.89470 ,48.02681 
22 ,4.4823 ,0.63895 ,4.88786 ,47.95966 
23 ,4.7063 ,0.64112 ,4.84679 ,47.55672 
24 ,4.8825 ,0.64291 ,4.82626 ,47.35525 
25 ,5.0745 ,0.64488 ,4.81599 ,47.25451 
26 ,5.2507 ,0.64653 ,4.79888 ,47.08662 
27 ,5.4266 ,0.64839 ,4.77150 ,46.81800 
28 ,5.6185 ,0.65020 ,4.75097 ,46.61653 
29 ,5.8269 ,0.65236 ,4.76808 ,46.78442 
30 ,6.0188 ,0.65419 ,4.72359 ,46.34790 
31 ,6.1950 ,0.65600 ,4.71675 ,46.28074 
32 ,6.3710 ,0.65785 ,4.70648 ,46.18001 
33 ,6.5630 ,0.65968 ,4.70306 ,46.14643 
34 ,6.7552 ,0.66157 ,4.66542 ,45.77707 
35 ,6.9476 ,0.66354 ,4.65173 ,45.64275 
36 ,7.1391 ,0.66543 ,4.62435 ,45.37413 
37 ,7.3315 ,0.66733 ,4.62093 ,45.34055 
38 ,7.5392 ,0.66943 ,4.58671 ,45.00477 
39 ,7.7316 ,0.67129 ,4.57644 ,44.90403 
40 ,7.9237 ,0.67329 ,4.55933 ,44.73614 
41 ,8.1158 ,0.67514 ,4.54564 ,44.60183 
42 ,8.3078 ,0.67705 ,4.55249 ,44.66898 
43 ,8.5000 ,0.67897 ,4.51484 ,44.29962 
44 ,8.6919 ,0.68091 ,4.49431 ,44.09815 
45 ,8.8840 ,0.68286 ,4.49431 ,44.09815 
46 ,9.0599 ,0.68464 ,4.46009 ,43.76237 
47 ,9.2680 ,0.68674 ,4.47035 ,43.86310 
48 ,9.4763 ,0.68868 ,4.43271 ,43.49374 
49 ,9.6524 ,0.69060 ,4.41560 ,43.32585 
50 ,9.8445 ,0.69248 ,4.41218 ,43.29227 
51 ,10.0525 ,0.69460 ,4.37453 ,42.92291 
52 ,10.2286 ,0.69633 ,4.37795 ,42.95649 
53 ,10.4046 ,0.69817 ,4.35400 ,42.72144 
54 ,10.5967 ,0.69998 ,4.33347 ,42.51997 
55 ,10.7887 ,0.70187 ,4.33689 ,42.55355 
56 ,10.9810 ,0.70378 ,4.31293 ,42.31850 
57 ,11.1889 ,0.70591 ,4.29582 ,42.15061 
58 ,11.3807 ,0.70780 ,4.28213 ,42.01630 
59 ,11.5732 ,0.70977 ,4.25818 ,41.78125 
60 ,11.7973 ,0.71194 ,4.22396 ,41.44547 
61 ,11.9734 ,0.71379 ,4.21027 ,41.31115 
62 ,12.1653 ,0.71575 ,4.23080 ,41.51262 
63 ,12.3573 ,0.71755 ,4.19658 ,41.17684 
64 ,12.5335 ,0.71939 ,4.18631 ,41.07611 
65 ,12.7255 ,0.72130 ,4.16920 ,40.90821 
66 ,12.9177 ,0.72317 ,4.13156 ,40.53885 
67 ,13.1258 ,0.72531 ,4.14183 ,40.63959 
68 ,13.3018 ,0.72709 ,4.12814 ,40.50527 
69 ,13.4940 ,0.72894 ,4.10076 ,40.23665 
70 ,13.6860 ,0.73092 ,4.10418 ,40.27023 
71 ,13.8780 ,0.73280 ,4.05969 ,39.83371 
72 ,14.0543 ,0.73462 ,4.03916 ,39.63224 
73 ,14.2622 ,0.73663 ,4.05285 ,39.76655 
74 ,14.4544 ,0.73854 ,4.02547 ,39.49793 
75 ,14.6464 ,0.74050 ,4.01863 ,39.43077 
76 ,14.8224 ,0.74227 ,4.00836 ,39.33003 
77 ,14.9984 ,0.74401 ,3.96387 ,38.89352 
78 ,15.1746 ,0.74577 ,3.94676 ,38.72562 
79 ,15.3507 ,0.74757 ,3.94334 ,38.69205 
80 ,15.5267 ,0.74930 ,3.93307 ,38.59131 
81 ,15.6868 ,0.75103 ,3.91938 ,38.45700 
82 ,15.8949 ,0.75293 ,3.90227 ,38.28911 
83 ,16.0871 ,0.75485 ,3.89885 ,38.25553 
84 ,16.2791 ,0.75679 ,3.86463 ,37.91975 
85 ,16.4872 ,0.75892 ,3.86121 ,37.88617 
86 ,16.6632 ,0.76067 ,3.85094 ,37.78543 
87 ,16.8714 ,0.76281 ,3.82356 ,37.51681 
88 ,17.0793 ,0.76475 ,3.81672 ,37.44965 
89 ,17.2556 ,0.76662 ,3.80303 ,37.31534 
90 ,17.4633 ,0.76869 ,3.79619 ,37.24818 
91 ,17.6397 ,0.77048 ,3.78250 ,37.11387 
92 ,17.8153 ,0.77224 ,3.73801 ,36.67735 
93 ,17.9918 ,0.77396 ,3.72090 ,36.50946 
94 ,18.1678 ,0.77576 ,3.72432 ,36.54303 
95 ,18.3760 ,0.77774 ,3.69010 ,36.20725 
96 ,18.6001 ,0.77991 ,3.69352 ,36.24083 
97 ,18.8242 ,0.78214 ,3.68668 ,36.17367 
98 ,19.0160 ,0.78418 ,3.64903 ,35.80431 
99 ,19.2081 ,0.78607 ,3.65930 ,35.90505 
100 ,19.4161 ,0.78813 ,3.61139 ,35.43495 
101 ,19.5924 ,0.78992 ,3.60454 ,35.36779 
102 ,19.7684 ,0.79170 ,3.60112 ,35.33422 
103 ,19.9602 ,0.79360 ,3.57717 ,35.09917 
104 ,20.1367 ,0.79542 ,3.56348 ,34.96485 
105 ,20.3128 ,0.79720 ,3.53268 ,34.66265 
106 ,20.5046 ,0.79905 ,3.54637 ,34.79696 
107 ,20.6970 ,0.80094 ,3.50188 ,34.36045 
108 ,20.9049 ,0.80298 ,3.50872 ,34.42760 
109 ,21.0650 ,0.80479 ,3.49161 ,34.25971 
110 ,21.2572 ,0.80652 ,3.47108 ,34.05824 
111 ,21.4495 ,0.80851 ,3.47108 ,34.05824 
112 ,21.6572 ,0.81056 ,3.42317 ,33.58814 
113 ,21.8334 ,0.81237 ,3.41633 ,33.52099 
114 ,22.0094 ,0.81415 ,3.41290 ,33.48741 
115 ,22.2015 ,0.81597 ,3.38553 ,33.21878 
116 ,22.3936 ,0.81794 ,3.37868 ,33.15163 
117 ,22.5697 ,0.81970 ,3.35815 ,32.95016 
118 ,22.7616 ,0.82152 ,3.35473 ,32.91658 
119 ,22.9699 ,0.82361 ,3.33419 ,32.71511 
120 ,23.1456 ,0.82552 ,3.32735 ,32.64795 
121 ,23.3220 ,0.82724 ,3.31024 ,32.48006 
122 ,23.4979 ,0.82903 ,3.27944 ,32.17786 
123 ,23.6901 ,0.83085 ,3.29313 ,32.31217 
124 ,23.8662 ,0.83269 ,3.27602 ,32.14428 
125 ,24.0582 ,0.83449 ,3.23495 ,31.74134 
126 ,24.2344 ,0.83635 ,3.23837 ,31.77492 
127 ,24.4104 ,0.83809 ,3.21784 ,31.57345 
128 ,24.6026 ,0.83996 ,3.19388 ,31.33840 
129 ,24.7944 ,0.84194 ,3.17677 ,31.17051 
130 ,25.0027 ,0.84403 ,3.17335 ,31.13693 
131 ,25.1944 ,0.84589 ,3.15282 ,30.93546 
132 ,25.3869 ,0.84777 ,3.15624 ,30.96904 
133 ,25.5949 ,0.84993 ,3.11518 ,30.56610 
134 ,25.7546 ,0.85168 ,3.11175 ,30.53252 
135 ,25.9307 ,0.85336 ,3.10149 ,30.43178 
136 ,26.1228 ,0.85516 ,3.08438 ,30.26389 
137 ,26.2989 ,0.85706 ,3.07411 ,30.16316 
138 ,26.4912 ,0.85891 ,3.04331 ,29.86095 
139 ,26.6673 ,0.86066 ,3.03989 ,29.82737 
140 ,26.8434 ,0.86245 ,3.04673 ,29.89453 
141 ,27.0516 ,0.86433 ,3.01251 ,29.55875 
142 ,27.2594 ,0.86655 ,2.98171 ,29.25654 
143 ,27.4515 ,0.86841 ,2.99198 ,29.35728 
144 ,27.6598 ,0.87045 ,2.95091 ,28.95434 
145 ,27.8836 ,0.87265 ,2.96460 ,29.08865 
146 ,28.0919 ,0.87481 ,2.92696 ,28.71929 
147 ,28.2678 ,0.87666 ,2.92011 ,28.65213 
148 ,28.4758 ,0.87867 ,2.89273 ,28.38351 
149 ,28.6843 ,0.88082 ,2.89616 ,28.41709 
150 ,28.8762 ,0.88270 ,2.86878 ,28.14846 
151 ,29.0684 ,0.88462 ,2.87562 ,28.21562 
152 ,29.2763 ,0.88672 ,2.82771 ,27.74552 
153 ,29.4524 ,0.88854 ,2.80718 ,27.54405 
154 ,29.6281 ,0.89033 ,2.80718 ,27.54405 
155 ,29.8204 ,0.89218 ,2.80034 ,27.47689 
156 ,29.9966 ,0.89401 ,2.79691 ,27.44332 
157 ,30.1727 ,0.89570 ,2.77296 ,27.20827 
158 ,30.3485 ,0.89746 ,2.74900 ,26.97322 
159 ,30.5250 ,0.89927 ,2.75243 ,27.00680 
160 ,30.7331 ,0.90121 ,2.74216 ,26.90606 
161 ,30.9250 ,0.90331 ,2.71136 ,26.60386 
162 ,31.1172 ,0.90510 ,2.71136 ,26.60386 
163 ,31.3092 ,0.90704 ,2.68398 ,26.33523 
164 ,31.5013 ,0.90890 ,2.66003 ,26.10018 
165 ,31.6774 ,0.91074 ,2.65660 ,26.06661 
166 ,31.8855 ,0.91278 ,2.64634 ,25.96587 
167 ,32.0776 ,0.91467 ,2.60185 ,25.52935 
168 ,32.3016 ,0.91686 ,2.62238 ,25.73082 
169 ,32.4775 ,0.91873 ,2.59501 ,25.46220 
170 ,32.6538 ,0.92053 ,2.57447 ,25.26073 
171 ,32.8459 ,0.92253 ,2.56763 ,25.19357 
172 ,33.0377 ,0.92435 ,2.53683 ,24.89136 
173 ,33.2141 ,0.92613 ,2.55052 ,25.02568 
174 ,33.4221 ,0.92813 ,2.51630 ,24.68989 
175 ,33.6142 ,0.93005 ,2.50945 ,24.62274 
176 ,33.8058 ,0.93196 ,2.50603 ,24.58916 
177 ,33.9824 ,0.93381 ,2.47865 ,24.32053 
178 ,34.1904 ,0.93579 ,2.46839 ,24.21980 
179 ,34.3825 ,0.93778 ,2.43759 ,23.91759 
180 ,34.5745 ,0.93980 ,2.44785 ,24.01833 
181 ,34.7508 ,0.94145 ,2.42390 ,23.78328 
182 ,34.9267 ,0.94327 ,2.41021 ,23.64897 
183 ,35.1186 ,0.94511 ,2.40679 ,23.61539 
184 ,35.3109 ,0.94699 ,2.37941 ,23.34676 
185 ,35.5189 ,0.94912 ,2.35888 ,23.14529 
186 ,35.7269 ,0.95120 ,2.33492 ,22.91024 
187 ,35.9027 ,0.95299 ,2.33492 ,22.91024 
188 ,36.0952 ,0.95486 ,2.33492 ,22.91024 
189 ,36.3033 ,0.95703 ,2.29385 ,22.50731 
190 ,36.4954 ,0.95887 ,2.29043 ,22.47373 
191 ,36.6875 ,0.96078 ,2.30070 ,22.57446 
192 ,36.8794 ,0.96274 ,2.26306 ,22.20510 
193 ,37.0555 ,0.96451 ,2.24252 ,22.00363 
194 ,37.2637 ,0.96653 ,2.24252 ,22.00363 
195 ,37.4557 ,0.96847 ,2.23226 ,21.90290 
196 ,37.6317 ,0.97028 ,2.21857 ,21.76858 
197 ,37.8240 ,0.97218 ,2.18777 ,21.46638 
198 ,38.0316 ,0.97424 ,2.17750 ,21.36564 
199 ,38.2239 ,0.97613 ,2.16039 ,21.19775 
200 ,38.4161 ,0.97805 ,2.15697 ,21.16417 
201 ,38.6242 ,0.98019 ,2.13301 ,20.92912 
202 ,38.8163 ,0.98209 ,2.11932 ,20.79481 
203 ,39.0244 ,0.98419 ,2.10906 ,20.69408 
204 ,39.2164 ,0.98608 ,2.09879 ,20.59334 
205 ,39.4244 ,0.98816 ,2.08510 ,20.45903 
206 ,39.6006 ,0.98996 ,2.05430 ,20.15682 
207 ,39.8085 ,0.99200 ,2.04746 ,20.08967 
208 ,40.0166 ,0.99407 ,2.03719 ,19.98893 
209 ,40.1924 ,0.99585 ,2.02008 ,19.82104 
210 ,40.3689 ,0.99762 ,2.02008 ,19.82104 
211 ,40.5606 ,0.99948 ,1.98244 ,19.45168 
212 ,40.7530 ,1.00140 ,1.99613 ,19.58599 
213 ,40.9771 ,1.00366 ,1.96190 ,19.25021 
214 ,41.1847 ,1.00586 ,1.94137 ,19.04874 
215 ,41.3771 ,1.00767 ,1.94137 ,19.04874 
216 ,41.5854 ,1.00977 ,1.92426 ,18.88085 
217 ,41.7933 ,1.01186 ,1.89688 ,18.61222 
218 ,42.0015 ,1.01396 ,1.88319 ,18.47791 
219 ,42.1937 ,1.01584 ,1.88319 ,18.47791 
220 ,42.3857 ,1.01786 ,1.85924 ,18.24286 
221 ,42.5776 ,1.01962 ,1.85240 ,18.17570 
222 ,42.7698 ,1.02160 ,1.84555 ,18.10855 
223 ,42.9619 ,1.02348 ,1.81133 ,17.77276 
224 ,43.1696 ,1.02559 ,1.81133 ,17.77276 
225 ,43.3458 ,1.02740 ,1.80449 ,17.70561 
226 ,43.5380 ,1.02928 ,1.78053 ,17.47056 
227 ,43.7619 ,1.03153 ,1.76342 ,17.30267 
228 ,43.9379 ,1.03332 ,1.75315 ,17.20193 
229 ,44.1305 ,1.03513 ,1.72920 ,16.96689 
230 ,44.3383 ,1.03730 ,1.72235 ,16.89973 
231 ,44.5306 ,1.03921 ,1.70524 ,16.73184 
232 ,44.7226 ,1.04110 ,1.69498 ,16.63110 
233 ,44.8986 ,1.04290 ,1.68813 ,16.56395 
234 ,45.0908 ,1.04473 ,1.67102 ,16.39605 
235 ,45.3148 ,1.04701 ,1.66418 ,16.32890 
236 ,45.5069 ,1.04889 ,1.62995 ,15.99311 
237 ,45.6830 ,1.05075 ,1.61284 ,15.82522 
238 ,45.8592 ,1.05252 ,1.59573 ,15.65733 
239 ,46.0349 ,1.05432 ,1.60258 ,15.72449 
240 ,46.2272 ,1.05616 ,1.56836 ,15.38871 
241 ,46.4032 ,1.05797 ,1.56151 ,15.32155 
242 ,46.5954 ,1.05977 ,1.55809 ,15.28797 
243 ,46.7714 ,1.06167 ,1.55467 ,15.25439 
244 ,46.9795 ,1.06370 ,1.52045 ,14.91861 
245 ,47.1713 ,1.06553 ,1.53071 ,15.01934 
246 ,47.3477 ,1.06740 ,1.50676 ,14.78430 
247 ,47.5557 ,1.06945 ,1.48965 ,14.61640 
248 ,47.7481 ,1.07133 ,1.48622 ,14.58283 
249 ,47.9557 ,1.07342 ,1.46569 ,14.38136 
250 ,48.1480 ,1.07531 ,1.44858 ,14.21346 
251 ,48.3557 ,1.07741 ,1.42805 ,14.01199 
252 ,48.5482 ,1.07936 ,1.43489 ,14.07915 
253 ,48.7242 ,1.08116 ,1.41778 ,13.91126 
254 ,48.9002 ,1.08291 ,1.37329 ,13.47474 
255 ,49.0764 ,1.08468 ,1.39383 ,13.67621 
256 ,49.2846 ,1.08677 ,1.36645 ,13.40759 
257 ,49.4765 ,1.08865 ,1.34934 ,13.23969 
258 ,49.6528 ,1.09044 ,1.33565 ,13.10538 
259 ,49.8607 ,1.09245 ,1.32538 ,13.00465 
260 ,50.0689 ,1.09454 ,1.31854 ,12.93749 
261 ,50.2607 ,1.09643 ,1.30827 ,12.83675 
262 ,50.4530 ,1.09841 ,1.29116 ,12.66886 
263 ,50.6608 ,1.10050 ,1.27747 ,12.53455 
264 ,50.8372 ,1.10231 ,1.23983 ,12.16519 
265 ,51.0292 ,1.10416 ,1.26378 ,12.40024 
266 ,51.2212 ,1.10604 ,1.20561 ,11.82941 
267 ,51.3974 ,1.10787 ,1.20561 ,11.82941 
268 ,51.5894 ,1.10971 ,1.21929 ,11.96372 
269 ,51.7973 ,1.11184 ,1.18165 ,11.59436 
270 ,51.9896 ,1.11375 ,1.19192 ,11.69509 
271 ,52.1977 ,1.11580 ,1.14743 ,11.25857 
272 ,52.3740 ,1.11762 ,1.16112 ,11.39289 
273 ,52.5816 ,1.11971 ,1.13716 ,11.15784 
274 ,52.7900 ,1.12175 ,1.13374 ,11.12426 
275 ,52.9658 ,1.12362 ,1.11663 ,10.95637 
276 ,53.1581 ,1.12539 ,1.09267 ,10.72132 
277 ,53.3502 ,1.12733 ,1.10636 ,10.85563 
278 ,53.5583 ,1.12943 ,1.07214 ,10.51985 
279 ,53.7342 ,1.13137 ,1.07214 ,10.51985 
280 ,53.9105 ,1.13299 ,1.06187 ,10.41912 
281 ,54.1184 ,1.13503 ,1.03108 ,10.11691 
282 ,54.3427 ,1.13735 ,1.00370 ,9.84829 
283 ,54.5506 ,1.13933 ,1.01054 ,9.91544 
284 ,54.7268 ,1.14116 ,0.99685 ,9.78113 
285 ,54.9348 ,1.14325 ,0.97632 ,9.57966 
286 ,55.1430 ,1.14516 ,0.95579 ,9.37819 
287 ,55.3512 ,1.14734 ,0.95579 ,9.37819 
288 ,55.5431 ,1.14928 ,0.92157 ,9.04241 
289 ,55.7512 ,1.15131 ,0.92841 ,9.10956 
290 ,55.9433 ,1.15325 ,0.89761 ,8.80736 
291 ,56.1189 ,1.15505 ,0.89761 ,8.80736 
292 ,56.2954 ,1.15685 ,0.88050 ,8.63947 
293 ,56.4871 ,1.15873 ,0.88392 ,8.67305 
294 ,56.6637 ,1.16051 ,0.87366 ,8.57231 
295 ,56.8718 ,1.16260 ,0.84970 ,8.33726 
296 ,57.0798 ,1.16462 ,0.82575 ,8.10221 
297 ,57.2719 ,1.16654 ,0.82575 ,8.10221 
298 ,57.4800 ,1.16868 ,0.79837 ,7.83359 
299 ,57.6720 ,1.17053 ,0.81206 ,7.96790 
300 ,57.8642 ,1.17249 ,0.76757 ,7.53138 
301 ,58.0562 ,1.17440 ,0.76415 ,7.49780 
302 ,58.2480 ,1.17628 ,0.75046 ,7.36349 
303 ,58.4242 ,1.17811 ,0.74019 ,7.26276 
304 ,58.6164 ,1.17992 ,0.72650 ,7.12844 
305 ,58.7923 ,1.18183 ,0.70255 ,6.89340 
306 ,58.9846 ,1.18370 ,0.71624 ,7.02771 
307 ,59.2083 ,1.18588 ,0.68886 ,6.75908 
308 ,59.3848 ,1.18772 ,0.69913 ,6.85982 
309 ,59.5929 ,1.18977 ,0.65121 ,6.38972 
310 ,59.8010 ,1.19186 ,0.63753 ,6.25541 
311 ,60.0089 ,1.19393 ,0.64095 ,6.28899 
312 ,60.2173 ,1.19588 ,0.62726 ,6.15467 
313 ,60.4092 ,1.19789 ,0.63068 ,6.18825 
314 ,60.6013 ,1.19976 ,0.58619 ,5.75173 
315 ,60.7775 ,1.20162 ,0.57593 ,5.65100 
316 ,60.9693 ,1.20353 ,0.57593 ,5.65100 
317 ,61.1458 ,1.20533 ,0.56566 ,5.55026 
318 ,61.3377 ,1.20719 ,0.53486 ,5.24806 
319 ,61.5297 ,1.20909 ,0.54171 ,5.31522 
320 ,61.7378 ,1.21117 ,0.51775 ,5.08017 
321 ,61.9300 ,1.21309 ,0.51775 ,5.08017 
322 ,62.1540 ,1.21534 ,0.50748 ,4.97943 
323 ,62.3302 ,1.21719 ,0.50748 ,4.97943 
324 ,62.5697 ,1.21957 ,0.45957 ,4.50934 
325 ,62.7617 ,1.22159 ,0.44931 ,4.40860 
326 ,62.9703 ,1.22355 ,0.45273 ,4.44218 
327 ,63.2106 ,1.22589 ,0.44588 ,4.37502 
328 ,63.4024 ,1.22785 ,0.41851 ,4.10640 
329 ,63.5947 ,1.22974 ,0.40140 ,3.93850 
330 ,63.8024 ,1.23180 ,0.38086 ,3.73703 
331 ,63.9787 ,1.23366 ,0.38086 ,3.73703 
332 ,64.1547 ,1.23540 ,0.36033 ,3.53557 
333 ,64.3791 ,1.23757 ,0.35349 ,3.46841 
334 ,64.5706 ,1.23949 ,0.34664 ,3.40125 
335 ,64.7630 ,1.24147 ,0.33980 ,3.33410 
336 ,64.9873 ,1.24363 ,0.32611 ,3.19978 
337 ,65.1793 ,1.24558 ,0.29531 ,2.89758 
338 ,65.3874 ,1.24767 ,0.31242 ,3.06547 
339 ,65.5793 ,1.24955 ,0.28162 ,2.76326 
340 ,65.7716 ,1.25152 ,0.27135 ,2.66253 
341 ,65.9795 ,1.25360 ,0.25424 ,2.49464 
342 ,66.1717 ,1.25548 ,0.26109 ,2.56179 
343 ,66.3637 ,1.25742 ,0.25082 ,2.46106 
344 ,66.5879 ,1.25968 ,0.22687 ,2.22601 
345 ,66.7639 ,1.26153 ,0.20633 ,2.02454 
346 ,66.9400 ,1.26326 ,0.20976 ,2.05812 
347 ,67.1477 ,1.26516 ,0.19607 ,1.92381 
348 ,67.3401 ,1.26718 ,0.17553 ,1.72234 
349 ,67.5484 ,1.26914 ,0.17896 ,1.75592 
350 ,67.7562 ,1.27141 ,0.15842 ,1.55445 
351 ,67.9644 ,1.27345 ,0.16185 ,1.58802 
352 ,68.1886 ,1.27564 ,0.15842 ,1.55445 
353 ,68.3805 ,1.27755 ,0.12420 ,1.21866 
354 ,68.5886 ,1.27954 ,0.13105 ,1.28582 
355 ,68.7808 ,1.28159 ,0.10025 ,0.98361 
356 ,68.9887 ,1.28367 ,0.09340 ,0.91646 
357 ,69.1807 ,1.28554 ,0.07629 ,0.74857 
358 ,69.3731 ,1.28753 ,0.07287 ,0.71499 
359 ,69.5810 ,1.28967 ,0.05918 ,0.58067 
360 ,69.7891 ,1.29173 ,0.04891 ,0.47994 
361 ,69.9647 ,1.29345 ,0.05234 ,0.51352 
362 ,70.1413 ,1.29526 ,0.02496 ,0.24489 
363 ,70.3173 ,1.29699 ,0.01469 ,0.14416 
364 ,70.5095 ,1.29889 ,0.02496 ,0.24489 
365 ,70.7015 ,1.30078 ,0.00443 ,0.04342 
366 ,70.9257 ,1.30300 ,-0.00926 ,-0.09089 
367 ,71.1173 ,1.30494 ,-0.03664 ,-0.35952 
368 ,71.3417 ,1.30724 ,-0.03322 ,-0.32594 
369 ,71.5338 ,1.30909 ,-0.05033 ,-0.49383 
370 ,71.7098 ,1.31095 ,-0.06060 ,-0.59457 
371 ,71.8858 ,1.31267 ,-0.05033 ,-0.49383 
372 ,72.0776 ,1.31451 ,-0.07771 ,-0.76246 
373 ,72.2696 ,1.31642 ,-0.07771 ,-0.76246 
374 ,72.4465 ,1.31829 ,-0.07428 ,-0.72888 
375 ,72.6541 ,1.32027 ,-0.11193 ,-1.09824 
376 ,72.8463 ,1.32222 ,-0.10166 ,-0.99751 
377 ,73.0541 ,1.32419 ,-0.13246 ,-1.29971 
378 ,73.2466 ,1.32620 ,-0.13246 ,-1.29971 
379 ,73.4545 ,1.32833 ,-0.14957 ,-1.46760 
380 ,73.6306 ,1.33011 ,-0.16326 ,-1.60191 
381 ,73.8226 ,1.33196 ,-0.16668 ,-1.63549 
382 ,74.0149 ,1.33391 ,-0.19406 ,-1.90412 
383 ,74.2227 ,1.33601 ,-0.15984 ,-1.56834 
384 ,74.3989 ,1.33780 ,-0.19064 ,-1.87054 
385 ,74.5749 ,1.33961 ,-0.19748 ,-1.93770 
386 ,74.7513 ,1.34129 ,-0.21117 ,-2.07201 
387 ,74.9434 ,1.34321 ,-0.19748 ,-1.93770 
388 ,75.1353 ,1.34516 ,-0.24539 ,-2.40779 
389 ,75.3272 ,1.34718 ,-0.23513 ,-2.30706 
390 ,75.5194 ,1.34892 ,-0.26593 ,-2.60926 
391 ,75.7274 ,1.35102 ,-0.25224 ,-2.47495 
392 ,75.9196 ,1.35292 ,-0.26935 ,-2.64284 
393 ,76.1117 ,1.35484 ,-0.27277 ,-2.67642 
394 ,76.3034 ,1.35681 ,-0.26935 ,-2.64284 
395 ,76.4958 ,1.35873 ,-0.29330 ,-2.87789 
396 ,76.7040 ,1.36083 ,-0.29673 ,-2.91147 
397 ,76.9118 ,1.36287 ,-0.30699 ,-3.01220 
398 ,77.1041 ,1.36481 ,-0.32068 ,-3.14652 
399 ,77.3279 ,1.36698 ,-0.32068 ,-3.14652 
400 ,77.5201 ,1.36894 ,-0.34121 ,-3.34799 
401 ,77.7282 ,1.37108 ,-0.34806 ,-3.41514 
402 ,77.9365 ,1.37313 ,-0.36175 ,-3.54946 
403 ,78.1285 ,1.37501 ,-0.35832 ,-3.51588 
404 ,78.3367 ,1.37713 ,-0.38228 ,-3.75093 
405 ,78.5449 ,1.37921 ,-0.38570 ,-3.78450 
406 ,78.7528 ,1.38128 ,-0.39939 ,-3.91882 
407 ,78.9288 ,1.38306 ,-0.41308 ,-4.05313 
408 ,79.1209 ,1.38498 ,-0.40281 ,-3.95240 
409 ,79.3131 ,1.38682 ,-0.41650 ,-4.08671 
410 ,79.4888 ,1.38873 ,-0.40966 ,-4.01955 
411 ,79.6652 ,1.39051 ,-0.44730 ,-4.38891 
412 ,79.8733 ,1.39243 ,-0.45757 ,-4.48965 
413 ,80.0653 ,1.39437 ,-0.45072 ,-4.42249 
414 ,80.2413 ,1.39624 ,-0.46099 ,-4.52323 
415 ,80.4174 ,1.39800 ,-0.46783 ,-4.59038 
416 ,80.6255 ,1.39998 ,-0.47810 ,-4.69112 
417 ,80.8176 ,1.40192 ,-0.51232 ,-5.02690 
418 ,81.0096 ,1.40382 ,-0.49521 ,-4.85901 
419 ,81.2018 ,1.40570 ,-0.50548 ,-4.95975 
420 ,81.4259 ,1.40798 ,-0.52259 ,-5.12764 
421 ,81.6175 ,1.40989 ,-0.53628 ,-5.26195 
422 ,81.8100 ,1.41182 ,-0.53970 ,-5.29553 
423 ,82.0341 ,1.41402 ,-0.53970 ,-5.29553 
424 ,82.2424 ,1.41621 ,-0.55339 ,-5.42984 
425 ,82.4342 ,1.41809 ,-0.56365 ,-5.53058 
426 ,82.6263 ,1.41999 ,-0.58077 ,-5.69847 
427 ,82.8181 ,1.42190 ,-0.58077 ,-5.69847 
428 ,83.0105 ,1.42383 ,-0.58761 ,-5.76562 
429 ,83.2184 ,1.42594 ,-0.60472 ,-5.93352 
430 ,83.4106 ,1.42781 ,-0.60814 ,-5.96709 
431 ,83.5866 ,1.42969 ,-0.62183 ,-6.10141 
432 ,83.7628 ,1.43149 ,-0.62525 ,-6.13499 
433 ,83.9550 ,1.43321 ,-0.64236 ,-6.30288 
434 ,84.1470 ,1.43518 ,-0.63552 ,-6.23572 
435 ,84.3550 ,1.43718 ,-0.64921 ,-6.37003 
436 ,84.5472 ,1.43916 ,-0.65605 ,-6.43719 
437 ,84.7550 ,1.44128 ,-0.69027 ,-6.77297 
438 ,84.9476 ,1.44318 ,-0.67659 ,-6.63866 
439 ,85.1553 ,1.44528 ,-0.69712 ,-6.84013 
440 ,85.3315 ,1.44711 ,-0.71081 ,-6.97444 
441 ,85.5397 ,1.44919 ,-0.70396 ,-6.90729 
442 ,85.7314 ,1.45108 ,-0.69712 ,-6.84013 
443 ,85.9233 ,1.45294 ,-0.70739 ,-6.94086 
444 ,86.1155 ,1.45484 ,-0.73134 ,-7.17591 
445 ,86.3234 ,1.45686 ,-0.73476 ,-7.20949 
446 ,86.5155 ,1.45890 ,-0.75187 ,-7.37738 
447 ,86.7241 ,1.46100 ,-0.74845 ,-7.34380 
448 ,86.9320 ,1.46302 ,-0.76898 ,-7.54527 
449 ,87.1243 ,1.46497 ,-0.78267 ,-7.67959 
450 ,87.3162 ,1.46704 ,-0.77583 ,-7.61243 
451 ,87.5078 ,1.46875 ,-0.78267 ,-7.67959 
452 ,87.7000 ,1.47075 ,-0.79978 ,-7.84748 
453 ,87.9081 ,1.47279 ,-0.82032 ,-8.04895 
454 ,88.0842 ,1.47464 ,-0.80663 ,-7.91464 
455 ,88.2602 ,1.47640 ,-0.82716 ,-8.11611 
456 ,88.4363 ,1.47821 ,-0.82374 ,-8.08253 
457 ,88.6124 ,1.47989 ,-0.86138 ,-8.45189 
458 ,88.8048 ,1.48172 ,-0.82716 ,-8.11611 
459 ,89.0128 ,1.48386 ,-0.86138 ,-8.45189 
460 ,89.2047 ,1.48583 ,-0.85112 ,-8.35115 
461 ,89.4132 ,1.48773 ,-0.87849 ,-8.61978 
462 ,89.6212 ,1.48993 ,-0.88876 ,-8.72051 
463 ,89.8292 ,1.49191 ,-0.88534 ,-8.68694 
