Data stamp = , 11-04-2022 22:16:52 152

Calibration Values: 
Slope = , 26.54 , g/V 
Offset Voltage at no contact = , -0.501760 , V 

No , Time , Stage Position ,   Mass , Force 
   ,  (s) ,      (mm)      ,   (g)  , (mN)  

1 ,0.0000 ,0.59943 ,5.06581 ,49.70573 
2 ,0.2273 ,0.59955 ,5.04870 ,49.53784 
3 ,0.4678 ,0.60018 ,5.04870 ,49.53784 
4 ,0.6757 ,0.60140 ,5.06239 ,49.67215 
5 ,0.8839 ,0.60302 ,5.04870 ,49.53784 
6 ,1.0601 ,0.60478 ,5.04528 ,49.50426 
7 ,1.2520 ,0.60656 ,5.06923 ,49.73931 
8 ,1.4440 ,0.60850 ,5.05212 ,49.57142 
9 ,1.6363 ,0.61040 ,5.04185 ,49.47068 
10 ,1.8283 ,0.61248 ,5.02817 ,49.33637 
11 ,2.0204 ,0.61437 ,5.02817 ,49.33637 
12 ,2.2125 ,0.61627 ,5.02474 ,49.30279 
13 ,2.4041 ,0.61818 ,4.98710 ,48.93343 
14 ,2.5807 ,0.61999 ,4.99052 ,48.96701 
15 ,2.7887 ,0.62206 ,5.00079 ,49.06774 
16 ,2.9967 ,0.62411 ,4.96315 ,48.69838 
17 ,3.2049 ,0.62617 ,4.93919 ,48.46333 
18 ,3.3971 ,0.62806 ,4.93919 ,48.46333 
19 ,3.5730 ,0.62997 ,4.92550 ,48.32902 
20 ,3.7812 ,0.63181 ,4.89128 ,47.99324 
21 ,3.9893 ,0.63404 ,4.89128 ,47.99324 
22 ,4.1814 ,0.63596 ,4.86732 ,47.75819 
23 ,4.3734 ,0.63787 ,4.86048 ,47.69103 
24 ,4.5814 ,0.63993 ,4.82968 ,47.38883 
25 ,4.7575 ,0.64175 ,4.81257 ,47.22093 
26 ,4.9174 ,0.64344 ,4.81257 ,47.22093 
27 ,5.1092 ,0.64517 ,4.78177 ,46.91873 
28 ,5.3013 ,0.64711 ,4.76808 ,46.78442 
29 ,5.4934 ,0.64904 ,4.77150 ,46.81800 
30 ,5.6856 ,0.65093 ,4.72359 ,46.34790 
31 ,5.9097 ,0.65317 ,4.70648 ,46.18001 
32 ,6.1019 ,0.65519 ,4.68595 ,45.97854 
33 ,6.2942 ,0.65702 ,4.69964 ,46.11285 
34 ,6.4861 ,0.65900 ,4.66199 ,45.74349 
35 ,6.6621 ,0.66075 ,4.65173 ,45.64275 
36 ,6.8383 ,0.66253 ,4.63804 ,45.50844 
37 ,7.0304 ,0.66438 ,4.62435 ,45.37413 
38 ,7.2384 ,0.66650 ,4.60382 ,45.17266 
39 ,7.4144 ,0.66827 ,4.59697 ,45.10550 
40 ,7.6226 ,0.67040 ,4.55249 ,44.66898 
41 ,7.8143 ,0.67220 ,4.55591 ,44.70256 
42 ,7.9904 ,0.67405 ,4.54564 ,44.60183 
43 ,8.1829 ,0.67590 ,4.51826 ,44.33320 
44 ,8.3910 ,0.67806 ,4.50800 ,44.23247 
45 ,8.5830 ,0.67992 ,4.48404 ,43.99742 
46 ,8.7588 ,0.68174 ,4.47035 ,43.86310 
47 ,8.9513 ,0.68358 ,4.44982 ,43.66163 
48 ,9.1593 ,0.68571 ,4.42586 ,43.42659 
49 ,9.3353 ,0.68747 ,4.44640 ,43.62806 
50 ,9.5273 ,0.68934 ,4.40533 ,43.22512 
51 ,9.7034 ,0.69119 ,4.37453 ,42.92291 
52 ,9.8955 ,0.69304 ,4.39507 ,43.12438 
53 ,10.0717 ,0.69488 ,4.35742 ,42.75502 
54 ,10.2797 ,0.69687 ,4.33689 ,42.55355 
55 ,10.4719 ,0.69883 ,4.34373 ,42.62071 
56 ,10.6800 ,0.70095 ,4.29924 ,42.18419 
57 ,10.8720 ,0.70286 ,4.29240 ,42.11703 
58 ,11.0643 ,0.70474 ,4.26502 ,41.84841 
59 ,11.2722 ,0.70683 ,4.25818 ,41.78125 
60 ,11.4642 ,0.70874 ,4.22738 ,41.47905 
61 ,11.6563 ,0.71069 ,4.23080 ,41.51262 
62 ,11.8483 ,0.71256 ,4.21369 ,41.34473 
63 ,12.0404 ,0.71460 ,4.20342 ,41.24400 
64 ,12.2165 ,0.71627 ,4.18631 ,41.07611 
65 ,12.4086 ,0.71814 ,4.15894 ,40.80748 
66 ,12.5846 ,0.72006 ,4.15209 ,40.74032 
67 ,12.7609 ,0.72177 ,4.12471 ,40.47170 
68 ,12.9526 ,0.72360 ,4.12129 ,40.43812 
69 ,13.1610 ,0.72572 ,4.09391 ,40.16949 
70 ,13.3525 ,0.72768 ,4.07680 ,40.00160 
71 ,13.5291 ,0.72942 ,4.06654 ,39.90087 
72 ,13.7210 ,0.73133 ,4.06654 ,39.90087 
73 ,13.8972 ,0.73308 ,4.03232 ,39.56508 
74 ,14.0890 ,0.73494 ,4.01520 ,39.39719 
75 ,14.2974 ,0.73703 ,4.00152 ,39.26288 
76 ,14.5215 ,0.73918 ,3.98441 ,39.09499 
77 ,14.7296 ,0.74130 ,3.98783 ,39.12856 
78 ,14.9376 ,0.74351 ,3.93992 ,38.65847 
79 ,15.1455 ,0.74554 ,3.92965 ,38.55773 
80 ,15.3378 ,0.74742 ,3.92965 ,38.55773 
81 ,15.5299 ,0.74934 ,3.90570 ,38.32268 
82 ,15.7220 ,0.75133 ,3.89201 ,38.18837 
83 ,15.9300 ,0.75341 ,3.88174 ,38.08764 
84 ,16.1382 ,0.75547 ,3.85436 ,37.81901 
85 ,16.3302 ,0.75740 ,3.85094 ,37.78543 
86 ,16.5060 ,0.75915 ,3.83041 ,37.58396 
87 ,16.6984 ,0.76100 ,3.79961 ,37.28176 
88 ,16.9225 ,0.76329 ,3.79276 ,37.21460 
89 ,17.1144 ,0.76530 ,3.77223 ,37.01313 
90 ,17.2903 ,0.76702 ,3.76881 ,36.97955 
91 ,17.4828 ,0.76888 ,3.75170 ,36.81166 
92 ,17.7067 ,0.77111 ,3.71405 ,36.44230 
93 ,17.8829 ,0.77296 ,3.69694 ,36.27441 
94 ,18.0748 ,0.77479 ,3.69694 ,36.27441 
95 ,18.2672 ,0.77669 ,3.69010 ,36.20725 
96 ,18.4751 ,0.77876 ,3.66957 ,36.00578 
97 ,18.6671 ,0.78075 ,3.62850 ,35.60284 
98 ,18.8594 ,0.78266 ,3.64219 ,35.73716 
99 ,19.0513 ,0.78457 ,3.62166 ,35.53569 
100 ,19.2434 ,0.78650 ,3.58743 ,35.19990 
101 ,19.4191 ,0.78828 ,3.59086 ,35.23348 
102 ,19.6116 ,0.79017 ,3.57375 ,35.06559 
103 ,19.8196 ,0.79228 ,3.55321 ,34.86412 
104 ,19.9956 ,0.79408 ,3.55663 ,34.89770 
105 ,20.2037 ,0.79613 ,3.51899 ,34.52834 
106 ,20.3799 ,0.79791 ,3.51899 ,34.52834 
107 ,20.5557 ,0.79970 ,3.50530 ,34.39402 
108 ,20.7321 ,0.80139 ,3.48819 ,34.22613 
109 ,20.9402 ,0.80338 ,3.49161 ,34.25971 
110 ,21.1482 ,0.80545 ,3.46424 ,33.99108 
111 ,21.3403 ,0.80750 ,3.43001 ,33.65530 
112 ,21.5163 ,0.80925 ,3.43686 ,33.72246 
113 ,21.7085 ,0.81119 ,3.41290 ,33.48741 
114 ,21.8845 ,0.81307 ,3.38210 ,33.18520 
115 ,22.0607 ,0.81473 ,3.37526 ,33.11805 
116 ,22.2528 ,0.81661 ,3.36157 ,32.98374 
117 ,22.4768 ,0.81878 ,3.33762 ,32.74869 
118 ,22.6688 ,0.82075 ,3.30682 ,32.44648 
119 ,22.8446 ,0.82253 ,3.29997 ,32.37933 
120 ,23.0211 ,0.82429 ,3.29313 ,32.31217 
121 ,23.2131 ,0.82619 ,3.29655 ,32.34575 
122 ,23.4051 ,0.82811 ,3.25891 ,31.97639 
123 ,23.5812 ,0.82992 ,3.25548 ,31.94281 
124 ,23.7732 ,0.83187 ,3.23495 ,31.74134 
125 ,23.9652 ,0.83379 ,3.22468 ,31.64060 
126 ,24.1894 ,0.83581 ,3.19731 ,31.37198 
127 ,24.3975 ,0.83801 ,3.19731 ,31.37198 
128 ,24.5736 ,0.83984 ,3.18362 ,31.23766 
129 ,24.7651 ,0.84165 ,3.14940 ,30.90188 
130 ,24.9418 ,0.84352 ,3.13913 ,30.80115 
131 ,25.1497 ,0.84554 ,3.13913 ,30.80115 
132 ,25.3257 ,0.84734 ,3.11860 ,30.59968 
133 ,25.5179 ,0.84919 ,3.12202 ,30.63325 
134 ,25.7098 ,0.85111 ,3.07753 ,30.19674 
135 ,25.9020 ,0.85306 ,3.08438 ,30.26389 
136 ,26.0940 ,0.85496 ,3.05015 ,29.92811 
137 ,26.2863 ,0.85693 ,3.02962 ,29.72664 
138 ,26.4783 ,0.85882 ,3.05015 ,29.92811 
139 ,26.6704 ,0.86073 ,2.99540 ,29.39086 
140 ,26.8621 ,0.86270 ,2.98171 ,29.25654 
141 ,27.0543 ,0.86455 ,2.99540 ,29.39086 
142 ,27.2628 ,0.86663 ,2.98513 ,29.29012 
143 ,27.4707 ,0.86860 ,2.95776 ,29.02150 
144 ,27.6468 ,0.87053 ,2.92696 ,28.71929 
145 ,27.8545 ,0.87261 ,2.92353 ,28.68571 
146 ,28.0309 ,0.87439 ,2.91327 ,28.58498 
147 ,28.2389 ,0.87637 ,2.89958 ,28.45066 
148 ,28.4150 ,0.87826 ,2.87220 ,28.18204 
149 ,28.6232 ,0.88029 ,2.85851 ,28.04772 
150 ,28.8313 ,0.88236 ,2.84825 ,27.94699 
151 ,29.0394 ,0.88444 ,2.82771 ,27.74552 
152 ,29.2313 ,0.88631 ,2.80376 ,27.51047 
153 ,29.4234 ,0.88825 ,2.80034 ,27.47689 
154 ,29.6155 ,0.89019 ,2.79691 ,27.44332 
155 ,29.8235 ,0.89223 ,2.76269 ,27.10753 
156 ,30.0157 ,0.89412 ,2.76269 ,27.10753 
157 ,30.2078 ,0.89605 ,2.72847 ,26.77175 
158 ,30.4313 ,0.89832 ,2.72847 ,26.77175 
159 ,30.6235 ,0.90022 ,2.69767 ,26.46954 
160 ,30.7995 ,0.90210 ,2.70452 ,26.53670 
161 ,30.9921 ,0.90393 ,2.66345 ,26.13376 
162 ,31.2162 ,0.90618 ,2.67714 ,26.26807 
163 ,31.4241 ,0.90831 ,2.64634 ,25.96587 
164 ,31.6162 ,0.91014 ,2.64634 ,25.96587 
165 ,31.8083 ,0.91209 ,2.62238 ,25.73082 
166 ,32.0165 ,0.91415 ,2.60185 ,25.52935 
167 ,32.2242 ,0.91631 ,2.58132 ,25.32788 
168 ,32.4008 ,0.91809 ,2.58132 ,25.32788 
169 ,32.5924 ,0.91991 ,2.55736 ,25.09283 
170 ,32.8009 ,0.92205 ,2.54710 ,24.99210 
171 ,32.9930 ,0.92390 ,2.52656 ,24.79063 
172 ,33.1691 ,0.92574 ,2.50261 ,24.55558 
173 ,33.3769 ,0.92776 ,2.49918 ,24.52200 
174 ,33.5850 ,0.92986 ,2.48550 ,24.38769 
175 ,33.7773 ,0.93179 ,2.46839 ,24.21980 
176 ,33.9852 ,0.93384 ,2.45470 ,24.08549 
177 ,34.1774 ,0.93572 ,2.43416 ,23.88402 
178 ,34.3853 ,0.93772 ,2.42048 ,23.74970 
179 ,34.5776 ,0.93980 ,2.39652 ,23.51465 
180 ,34.7853 ,0.94186 ,2.38968 ,23.44750 
181 ,34.9778 ,0.94377 ,2.38283 ,23.38034 
182 ,35.1857 ,0.94585 ,2.34861 ,23.04456 
183 ,35.3775 ,0.94778 ,2.35203 ,23.07814 
184 ,35.5699 ,0.94967 ,2.32808 ,22.84309 
185 ,35.7621 ,0.95159 ,2.31781 ,22.74235 
186 ,35.9702 ,0.95361 ,2.30070 ,22.57446 
187 ,36.1461 ,0.95553 ,2.28359 ,22.40657 
188 ,36.3382 ,0.95745 ,2.26990 ,22.27226 
189 ,36.5140 ,0.95925 ,2.25279 ,22.10437 
190 ,36.7062 ,0.96105 ,2.23568 ,21.93647 
191 ,36.8981 ,0.96296 ,2.24594 ,22.03721 
192 ,37.0906 ,0.96483 ,2.21857 ,21.76858 
193 ,37.2985 ,0.96693 ,2.20146 ,21.60069 
194 ,37.4905 ,0.96887 ,2.18777 ,21.46638 
195 ,37.6828 ,0.97081 ,2.17066 ,21.29849 
196 ,37.8909 ,0.97293 ,2.14670 ,21.06344 
197 ,38.0830 ,0.97480 ,2.16039 ,21.19775 
198 ,38.2910 ,0.97687 ,2.10564 ,20.66050 
199 ,38.4831 ,0.97878 ,2.12275 ,20.82839 
200 ,38.7071 ,0.98107 ,2.07826 ,20.39187 
201 ,38.8992 ,0.98293 ,2.08168 ,20.42545 
202 ,39.0910 ,0.98490 ,2.05430 ,20.15682 
203 ,39.2676 ,0.98671 ,2.03719 ,19.98893 
204 ,39.4596 ,0.98853 ,2.04404 ,20.05609 
205 ,39.6513 ,0.99050 ,2.02693 ,19.88820 
206 ,39.8438 ,0.99239 ,2.01666 ,19.78746 
207 ,40.0357 ,0.99433 ,2.00639 ,19.68673 
208 ,40.2439 ,0.99643 ,1.98928 ,19.51884 
209 ,40.4200 ,0.99819 ,1.97902 ,19.41810 
210 ,40.6441 ,1.00041 ,1.95848 ,19.21663 
211 ,40.8362 ,1.00232 ,1.95506 ,19.18305 
212 ,41.0442 ,1.00453 ,1.91742 ,18.81369 
213 ,41.2363 ,1.00631 ,1.90715 ,18.71296 
214 ,41.4284 ,1.00826 ,1.90031 ,18.64580 
215 ,41.6045 ,1.01006 ,1.86266 ,18.27644 
216 ,41.7802 ,1.01184 ,1.87293 ,18.37717 
217 ,41.9726 ,1.01366 ,1.84213 ,18.07497 
218 ,42.1327 ,1.01545 ,1.83871 ,18.04139 
219 ,42.3249 ,1.01720 ,1.83186 ,17.97423 
220 ,42.5329 ,1.01931 ,1.81817 ,17.83992 
221 ,42.7250 ,1.02119 ,1.81817 ,17.83992 
222 ,42.9010 ,1.02307 ,1.79422 ,17.60487 
223 ,43.0931 ,1.02488 ,1.75315 ,17.20193 
224 ,43.2849 ,1.02682 ,1.75657 ,17.23551 
225 ,43.4773 ,1.02870 ,1.73604 ,17.03404 
226 ,43.6533 ,1.03059 ,1.72920 ,16.96689 
227 ,43.8454 ,1.03239 ,1.71893 ,16.86615 
228 ,44.0374 ,1.03434 ,1.69155 ,16.59752 
229 ,44.2455 ,1.03642 ,1.68471 ,16.53037 
230 ,44.4537 ,1.03851 ,1.65391 ,16.22816 
231 ,44.6456 ,1.04039 ,1.66760 ,16.36248 
232 ,44.8379 ,1.04231 ,1.64022 ,16.09385 
233 ,45.0459 ,1.04440 ,1.65733 ,16.26174 
234 ,45.2381 ,1.04644 ,1.62311 ,15.92596 
235 ,45.4302 ,1.04826 ,1.60942 ,15.79164 
236 ,45.6542 ,1.05042 ,1.58889 ,15.59018 
237 ,45.8463 ,1.05241 ,1.56836 ,15.38871 
238 ,46.0542 ,1.05450 ,1.55809 ,15.28797 
239 ,46.2625 ,1.05658 ,1.54098 ,15.12008 
240 ,46.4707 ,1.05862 ,1.51702 ,14.88503 
241 ,46.6628 ,1.06056 ,1.52045 ,14.91861 
242 ,46.8708 ,1.06273 ,1.48965 ,14.61640 
243 ,47.0946 ,1.06489 ,1.49649 ,14.68356 
244 ,47.2709 ,1.06674 ,1.46227 ,14.34778 
245 ,47.4628 ,1.06858 ,1.46227 ,14.34778 
246 ,47.6388 ,1.07043 ,1.45885 ,14.31420 
247 ,47.8471 ,1.07248 ,1.42805 ,14.01199 
248 ,48.0553 ,1.07452 ,1.40067 ,13.74337 
249 ,48.2794 ,1.07673 ,1.39383 ,13.67621 
250 ,48.4872 ,1.07882 ,1.38356 ,13.57548 
251 ,48.6794 ,1.08073 ,1.35276 ,13.27327 
252 ,48.8719 ,1.08261 ,1.35618 ,13.30685 
253 ,49.0796 ,1.08461 ,1.35276 ,13.27327 
254 ,49.2877 ,1.08680 ,1.32196 ,12.97107 
255 ,49.4957 ,1.08895 ,1.30143 ,12.76960 
256 ,49.6877 ,1.09079 ,1.30143 ,12.76960 
257 ,49.8958 ,1.09279 ,1.29116 ,12.66886 
258 ,50.0879 ,1.09477 ,1.27405 ,12.50097 
259 ,50.2797 ,1.09677 ,1.26378 ,12.40024 
260 ,50.4721 ,1.09868 ,1.23298 ,12.09803 
261 ,50.6642 ,1.10069 ,1.22956 ,12.06445 
262 ,50.8562 ,1.10251 ,1.20218 ,11.79583 
263 ,51.0642 ,1.10449 ,1.22956 ,12.06445 
264 ,51.2723 ,1.10658 ,1.18165 ,11.59436 
265 ,51.4802 ,1.10878 ,1.19192 ,11.69509 
266 ,51.6884 ,1.11080 ,1.17138 ,11.49362 
267 ,51.8804 ,1.11267 ,1.14743 ,11.25857 
268 ,52.0887 ,1.11483 ,1.14058 ,11.19142 
269 ,52.2967 ,1.11697 ,1.10979 ,10.88921 
270 ,52.4727 ,1.11867 ,1.10294 ,10.82206 
271 ,52.6809 ,1.12066 ,1.10294 ,10.82206 
272 ,52.8729 ,1.12277 ,1.08583 ,10.65416 
273 ,53.0486 ,1.12446 ,1.07899 ,10.58701 
274 ,53.2250 ,1.12622 ,1.06872 ,10.48627 
275 ,53.4170 ,1.12812 ,1.03450 ,10.15049 
276 ,53.6094 ,1.13004 ,1.04134 ,10.21765 
277 ,53.8172 ,1.13207 ,1.00028 ,9.81471 
278 ,54.0095 ,1.13404 ,1.01739 ,9.98260 
279 ,54.2174 ,1.13606 ,0.96948 ,9.51250 
280 ,54.4416 ,1.13832 ,0.97290 ,9.54608 
281 ,54.6176 ,1.14022 ,0.95921 ,9.41177 
282 ,54.8257 ,1.14216 ,0.95921 ,9.41177 
283 ,55.0178 ,1.14412 ,0.92157 ,9.04241 
284 ,55.1940 ,1.14595 ,0.90788 ,8.90809 
285 ,55.3855 ,1.14784 ,0.91814 ,9.00883 
286 ,55.5779 ,1.14963 ,0.89761 ,8.80736 
287 ,55.7861 ,1.15176 ,0.89419 ,8.77378 
288 ,55.9941 ,1.15396 ,0.88050 ,8.63947 
289 ,56.1861 ,1.15571 ,0.84970 ,8.33726 
290 ,56.3626 ,1.15759 ,0.86339 ,8.47158 
291 ,56.5545 ,1.15946 ,0.82917 ,8.13579 
292 ,56.7625 ,1.16161 ,0.80179 ,7.86717 
293 ,56.9547 ,1.16342 ,0.80179 ,7.86717 
294 ,57.1466 ,1.16549 ,0.78126 ,7.66570 
295 ,57.3228 ,1.16720 ,0.79152 ,7.76643 
296 ,57.5304 ,1.16935 ,0.76757 ,7.53138 
297 ,57.7226 ,1.17106 ,0.76072 ,7.46423 
298 ,57.9145 ,1.17308 ,0.72992 ,7.16202 
299 ,58.0906 ,1.17491 ,0.74019 ,7.26276 
300 ,58.2829 ,1.17673 ,0.73677 ,7.22918 
301 ,58.5071 ,1.17906 ,0.69570 ,6.82624 
302 ,58.6834 ,1.18080 ,0.70939 ,6.96055 
303 ,58.8590 ,1.18260 ,0.67517 ,6.62477 
304 ,59.0354 ,1.18428 ,0.66148 ,6.49046 
305 ,59.2271 ,1.18616 ,0.66490 ,6.52403 
306 ,59.4037 ,1.18797 ,0.65464 ,6.42330 
307 ,59.6116 ,1.18989 ,0.62726 ,6.15467 
308 ,59.8197 ,1.19214 ,0.61699 ,6.05394 
309 ,59.9954 ,1.19388 ,0.60673 ,5.95320 
310 ,60.1878 ,1.19576 ,0.59304 ,5.81889 
311 ,60.3638 ,1.19760 ,0.58962 ,5.78531 
312 ,60.5401 ,1.19934 ,0.57251 ,5.61742 
313 ,60.7320 ,1.20133 ,0.56566 ,5.55026 
314 ,60.9082 ,1.20305 ,0.55197 ,5.41595 
315 ,61.1162 ,1.20505 ,0.51775 ,5.08017 
316 ,61.3243 ,1.20718 ,0.53828 ,5.28164 
317 ,61.5003 ,1.20901 ,0.51091 ,5.01301 
318 ,61.6765 ,1.21066 ,0.48353 ,4.74438 
319 ,61.8687 ,1.21256 ,0.50748 ,4.97943 
320 ,62.0764 ,1.21464 ,0.49037 ,4.81154 
321 ,62.2688 ,1.21653 ,0.47668 ,4.67723 
322 ,62.4769 ,1.21866 ,0.44588 ,4.37502 
323 ,62.6690 ,1.22056 ,0.44246 ,4.34144 
324 ,62.8930 ,1.22266 ,0.42535 ,4.17355 
325 ,63.1008 ,1.22492 ,0.42193 ,4.13997 
326 ,63.3089 ,1.22701 ,0.40482 ,3.97208 
327 ,63.4852 ,1.22881 ,0.38429 ,3.77061 
328 ,63.6613 ,1.23057 ,0.38086 ,3.73703 
329 ,63.8697 ,1.23252 ,0.35349 ,3.46841 
330 ,64.0775 ,1.23471 ,0.33638 ,3.30052 
331 ,64.2536 ,1.23652 ,0.36033 ,3.53557 
332 ,64.4296 ,1.23828 ,0.34322 ,3.36767 
333 ,64.6378 ,1.24023 ,0.30900 ,3.03189 
334 ,64.8298 ,1.24213 ,0.30900 ,3.03189 
335 ,65.0220 ,1.24414 ,0.29189 ,2.86400 
336 ,65.2141 ,1.24604 ,0.27478 ,2.69611 
337 ,65.4220 ,1.24806 ,0.26109 ,2.56179 
338 ,65.6301 ,1.25022 ,0.27478 ,2.69611 
339 ,65.8060 ,1.25200 ,0.25767 ,2.52822 
340 ,66.0143 ,1.25407 ,0.22344 ,2.19243 
341 ,66.2063 ,1.25595 ,0.22002 ,2.15885 
342 ,66.4145 ,1.25805 ,0.22687 ,2.22601 
343 ,66.6224 ,1.26010 ,0.19949 ,1.95738 
344 ,66.7986 ,1.26195 ,0.18922 ,1.85665 
345 ,67.0068 ,1.26404 ,0.18580 ,1.82307 
346 ,67.2147 ,1.26609 ,0.16869 ,1.65518 
347 ,67.3904 ,1.26781 ,0.17211 ,1.68876 
348 ,67.5829 ,1.26971 ,0.14816 ,1.45371 
349 ,67.7906 ,1.27178 ,0.12420 ,1.21866 
350 ,67.9506 ,1.27355 ,0.12762 ,1.25224 
351 ,68.1269 ,1.27516 ,0.11736 ,1.15151 
352 ,68.3351 ,1.27729 ,0.11051 ,1.08435 
353 ,68.5109 ,1.27902 ,0.11051 ,1.08435 
354 ,68.7033 ,1.28096 ,0.07971 ,0.78214 
355 ,68.8794 ,1.28269 ,0.05918 ,0.58067 
356 ,69.0875 ,1.28473 ,0.08998 ,0.88288 
357 ,69.2797 ,1.28664 ,0.04891 ,0.47994 
358 ,69.5034 ,1.28893 ,0.04207 ,0.41278 
359 ,69.6958 ,1.29080 ,0.03865 ,0.37920 
360 ,69.9037 ,1.29290 ,0.01469 ,0.14416 
361 ,70.0958 ,1.29482 ,-0.00242 ,-0.02373 
362 ,70.2879 ,1.29671 ,0.01127 ,0.11058 
363 ,70.4641 ,1.29861 ,-0.00926 ,-0.09089 
364 ,70.6722 ,1.30056 ,-0.00926 ,-0.09089 
365 ,70.8643 ,1.30253 ,-0.02295 ,-0.22520 
366 ,71.0725 ,1.30463 ,-0.02980 ,-0.29236 
367 ,71.2643 ,1.30649 ,-0.04006 ,-0.39310 
368 ,71.4725 ,1.30859 ,-0.04691 ,-0.46025 
369 ,71.6643 ,1.31052 ,-0.06744 ,-0.66172 
370 ,71.8729 ,1.31246 ,-0.07428 ,-0.72888 
371 ,72.0808 ,1.31469 ,-0.09140 ,-0.89677 
372 ,72.2889 ,1.31677 ,-0.08455 ,-0.82961 
373 ,72.4810 ,1.31868 ,-0.11535 ,-1.13182 
374 ,72.6888 ,1.32071 ,-0.11877 ,-1.16540 
375 ,72.8811 ,1.32267 ,-0.13588 ,-1.33329 
376 ,73.0731 ,1.32470 ,-0.13246 ,-1.29971 
377 ,73.2812 ,1.32665 ,-0.13588 ,-1.33329 
378 ,73.4891 ,1.32866 ,-0.15984 ,-1.56834 
379 ,73.6656 ,1.33056 ,-0.16326 ,-1.60191 
380 ,73.8733 ,1.33259 ,-0.17011 ,-1.66907 
381 ,74.0495 ,1.33442 ,-0.17695 ,-1.73623 
382 ,74.2577 ,1.33642 ,-0.20433 ,-2.00485 
383 ,74.4653 ,1.33852 ,-0.20775 ,-2.03843 
384 ,74.6576 ,1.34038 ,-0.22144 ,-2.17275 
385 ,74.8495 ,1.34235 ,-0.20775 ,-2.03843 
386 ,75.0417 ,1.34427 ,-0.25224 ,-2.47495 
387 ,75.2341 ,1.34615 ,-0.24881 ,-2.44137 
388 ,75.4421 ,1.34828 ,-0.25566 ,-2.50853 
389 ,75.6341 ,1.35018 ,-0.26250 ,-2.57569 
390 ,75.8100 ,1.35203 ,-0.27277 ,-2.67642 
391 ,76.0023 ,1.35387 ,-0.29673 ,-2.91147 
392 ,76.2105 ,1.35591 ,-0.27619 ,-2.71000 
393 ,76.4025 ,1.35790 ,-0.32068 ,-3.14652 
394 ,76.5945 ,1.35980 ,-0.30699 ,-3.01220 
395 ,76.7866 ,1.36166 ,-0.31726 ,-3.11294 
396 ,76.9624 ,1.36362 ,-0.32752 ,-3.21367 
397 ,77.1545 ,1.36537 ,-0.33437 ,-3.28083 
398 ,77.3309 ,1.36719 ,-0.32752 ,-3.21367 
399 ,77.5390 ,1.36926 ,-0.36859 ,-3.61661 
400 ,77.7309 ,1.37115 ,-0.35490 ,-3.48230 
401 ,77.9392 ,1.37328 ,-0.38912 ,-3.81808 
402 ,78.1308 ,1.37529 ,-0.37886 ,-3.71735 
403 ,78.3071 ,1.37692 ,-0.38228 ,-3.75093 
404 ,78.4992 ,1.37878 ,-0.40281 ,-3.95240 
405 ,78.7235 ,1.38099 ,-0.42335 ,-4.15387 
406 ,78.9313 ,1.38313 ,-0.40966 ,-4.01955 
407 ,79.1073 ,1.38494 ,-0.43703 ,-4.28818 
408 ,79.2997 ,1.38682 ,-0.43361 ,-4.25460 
409 ,79.5076 ,1.38892 ,-0.43703 ,-4.28818 
410 ,79.7158 ,1.39100 ,-0.45072 ,-4.42249 
411 ,79.9078 ,1.39287 ,-0.46099 ,-4.52323 
412 ,80.1000 ,1.39482 ,-0.48152 ,-4.72470 
413 ,80.2921 ,1.39670 ,-0.46441 ,-4.55681 
414 ,80.5002 ,1.39879 ,-0.50548 ,-4.95975 
415 ,80.6923 ,1.40078 ,-0.48837 ,-4.79185 
416 ,80.8843 ,1.40266 ,-0.51232 ,-5.02690 
417 ,81.0604 ,1.40450 ,-0.52601 ,-5.16121 
418 ,81.2844 ,1.40667 ,-0.53285 ,-5.22837 
419 ,81.4606 ,1.40849 ,-0.54654 ,-5.36268 
420 ,81.6527 ,1.41033 ,-0.52259 ,-5.12764 
421 ,81.8607 ,1.41244 ,-0.55681 ,-5.46342 
422 ,82.0527 ,1.41437 ,-0.54997 ,-5.39626 
423 ,82.2287 ,1.41615 ,-0.57050 ,-5.59773 
424 ,82.4049 ,1.41790 ,-0.58077 ,-5.69847 
425 ,82.5970 ,1.41975 ,-0.57734 ,-5.66489 
426 ,82.8049 ,1.42186 ,-0.60472 ,-5.93352 
427 ,83.0131 ,1.42383 ,-0.58761 ,-5.76562 
428 ,83.2213 ,1.42591 ,-0.62525 ,-6.13499 
429 ,83.4291 ,1.42813 ,-0.61156 ,-6.00067 
430 ,83.6214 ,1.42996 ,-0.63894 ,-6.26930 
431 ,83.8135 ,1.43193 ,-0.63552 ,-6.23572 
432 ,84.0216 ,1.43390 ,-0.64579 ,-6.33646 
433 ,84.2136 ,1.43604 ,-0.64236 ,-6.30288 
434 ,84.4213 ,1.43801 ,-0.67659 ,-6.63866 
435 ,84.6298 ,1.44004 ,-0.66290 ,-6.50435 
436 ,84.8379 ,1.44227 ,-0.68685 ,-6.73940 
437 ,85.0459 ,1.44426 ,-0.68343 ,-6.70582 
438 ,85.2379 ,1.44619 ,-0.71423 ,-7.00802 
439 ,85.4300 ,1.44813 ,-0.70739 ,-6.94086 
440 ,85.6383 ,1.45008 ,-0.71423 ,-7.00802 
441 ,85.8625 ,1.45244 ,-0.73134 ,-7.17591 
442 ,86.0701 ,1.45458 ,-0.73134 ,-7.17591 
443 ,86.2626 ,1.45643 ,-0.75530 ,-7.41096 
444 ,86.4541 ,1.45845 ,-0.73476 ,-7.20949 
445 ,86.6304 ,1.46024 ,-0.74845 ,-7.34380 
446 ,86.8388 ,1.46218 ,-0.77583 ,-7.61243 
447 ,87.0308 ,1.46414 ,-0.76214 ,-7.47812 
448 ,87.2228 ,1.46600 ,-0.78952 ,-7.74674 
449 ,87.4310 ,1.46814 ,-0.78267 ,-7.67959 
450 ,87.6227 ,1.47009 ,-0.79978 ,-7.84748 
451 ,87.8152 ,1.47199 ,-0.79636 ,-7.81390 
452 ,88.0232 ,1.47406 ,-0.82716 ,-8.11611 
453 ,88.2154 ,1.47594 ,-0.82374 ,-8.08253 
454 ,88.4234 ,1.47805 ,-0.84769 ,-8.31758 
455 ,88.6153 ,1.47999 ,-0.82716 ,-8.11611 
456 ,88.8075 ,1.48182 ,-0.85112 ,-8.35115 
457 ,89.0158 ,1.48395 ,-0.84769 ,-8.31758 
458 ,89.2237 ,1.48605 ,-0.87507 ,-8.58620 
459 ,89.3998 ,1.48786 ,-0.88192 ,-8.65336 
460 ,89.5918 ,1.48972 ,-0.88876 ,-8.72051 
461 ,89.7839 ,1.49159 ,-0.90587 ,-8.88841 
462 ,89.9599 ,1.49346 ,-0.90245 ,-8.85483 
463 ,90.1357 ,1.49520 ,-0.89218 ,-8.75409 
