Point No.,Normal Force [N],Gap [mm],Time [s]
1,6.079617,11.6636,638.7390
2,6.079855,11.6636,638.7440
3,6.080132,11.6636,638.7490
4,6.080099,11.6636,638.7540
5,6.079112,11.6636,638.7590
6,6.078392,11.6636,638.7640
7,6.077373,11.6642,638.7690
8,6.074618,11.6642,638.7740
9,6.068993,11.6661,638.7780
10,6.053753,11.6661,638.7830
11,6.040374,11.6692,638.7880
12,6.010138,11.6692,638.7930
13,5.985836,11.6735,638.7980
14,5.945724,11.6735,638.8030
15,5.914824,11.6785,638.8080
16,5.873098,11.6785,638.8140
17,5.829797,11.6828,638.8190
18,5.804971,11.6828,638.8240
19,5.761071,11.6884,638.8290
20,5.731995,11.6884,638.8340
21,5.677522,11.6934,638.8391
22,5.641567,11.6933,638.8441
23,5.586365,11.6977,638.8491
24,5.552952,11.6977,638.8540
25,5.500982,11.7026,638.8590
26,5.468978,11.7026,638.8640
27,5.415820,11.7076,638.8690
28,5.384031,11.7076,638.8740
29,5.331943,11.7131,638.8790
30,5.301903,11.7131,638.8831
31,5.268711,11.7175,638.8880
32,5.226477,11.7175,638.8930
33,5.195002,11.7224,638.8980
34,5.152055,11.7224,638.9030
35,5.119501,11.7224,638.9080
36,5.076900,11.7274,638.9130
37,5.044055,11.7274,638.9180
38,5.003601,11.7330,638.9230
39,4.970929,11.7373,638.9280
40,4.930723,11.7373,638.9330
41,4.899692,11.7423,638.9380
42,4.860866,11.7422,638.9431
43,4.831017,11.7472,638.9481
44,4.793042,11.7472,638.9530
45,4.762418,11.7522,638.9580
46,4.722857,11.7522,638.9630
47,4.691611,11.7571,638.9680
48,4.653738,11.7571,638.9730
49,4.624195,11.7621,638.9780
50,4.588002,11.7621,638.9830
51,4.558237,11.7671,638.9880
52,4.519691,11.7670,638.9930
53,4.487899,11.7670,638.9980
54,4.449578,11.7720,639.0031
55,4.420384,11.7720,639.0081
56,4.385111,11.7770,639.0130
57,4.356961,11.7769,639.0180
58,4.321157,11.7819,639.0230
59,4.292561,11.7869,639.0280
60,4.256914,11.7869,639.0330
61,4.228735,11.7919,639.0380
62,4.194441,11.7918,639.0430
63,4.166060,11.7968,639.0480
64,4.130254,11.7968,639.0530
65,4.101506,11.8018,639.0580
66,4.066454,11.8018,639.0630
67,4.040150,11.8068,639.0681
68,4.007842,11.8067,639.0731
69,3.983778,11.8117,639.0780
70,3.954398,11.8117,639.0830
71,3.930255,11.8167,639.0880
72,3.900598,11.8167,639.0930
73,3.875343,11.8167,639.0980
74,3.843559,11.8216,639.1030
75,3.817325,11.8216,639.1080
76,3.785130,11.8266,639.1130
77,3.758532,11.8266,639.1180
78,3.725481,11.8316,639.1230
79,3.699575,11.8366,639.1281
80,3.668623,11.8365,639.1331
81,3.642839,11.8415,639.1380
82,3.610648,11.8415,639.1430
83,3.584306,11.8465,639.1480
84,3.551036,11.8465,639.1530
85,3.524438,11.8515,639.1580
86,3.493926,11.8514,639.1630
87,3.469157,11.8564,639.1680
88,3.438700,11.8564,639.1730
89,3.412729,11.8614,639.1780
90,3.380856,11.8614,639.1830
91,3.354842,11.8614,639.1880
92,3.324096,11.8663,639.1931
93,3.299177,11.8663,639.1981
94,3.269460,11.8713,639.2030
95,3.244195,11.8713,639.2080
96,3.212780,11.8763,639.2130
97,3.187412,11.8763,639.2180
98,3.156732,11.8812,639.2230
99,3.131892,11.8862,639.2280
100,3.103348,11.8862,639.2330
101,3.078569,11.8912,639.2380
102,3.048852,11.8912,639.2430
103,3.023273,11.8962,639.2480
104,2.993585,11.8961,639.2531
105,2.969311,11.9011,639.2581
106,2.941118,11.9011,639.2630
107,2.917737,11.9061,639.2680
108,2.888258,11.9061,639.2730
109,2.863049,11.9061,639.2780
110,2.833631,11.9110,639.2830
111,2.809143,11.9110,639.2880
112,2.780926,11.9160,639.2930
113,2.756825,11.9160,639.2980
114,2.728983,11.9210,639.3030
115,2.704218,11.9210,639.3080
116,2.674786,11.9260,639.3130
117,2.650409,11.9259,639.3181
118,2.621754,11.9309,639.3231
119,2.597400,11.9359,639.3280
120,2.568525,11.9359,639.3330
121,2.544971,11.9409,639.3380
122,2.517891,11.9409,639.3430
123,2.494693,11.9458,639.3480
124,2.467075,11.9458,639.3530
125,2.442829,11.9508,639.3580
126,2.414683,11.9508,639.3630
127,2.390779,11.9558,639.3680
128,2.363736,11.9558,639.3730
129,2.340627,11.9558,639.3781
130,2.314473,11.9607,639.3831
131,2.292509,11.9607,639.3880
132,2.265616,11.9657,639.3930
133,2.244545,11.9657,639.3980
134,2.219860,11.9707,639.4030
135,2.199766,11.9707,639.4080
136,2.177438,11.9757,639.4130
137,2.157545,11.9756,639.4180
138,2.135020,11.9806,639.4230
139,2.113150,11.9806,639.4280
140,2.086701,11.9856,639.4330
141,2.062273,11.9856,639.4380
142,2.035759,11.9906,639.4431
143,2.013257,11.9906,639.4481
144,1.986346,11.9955,639.4530
145,1.963405,11.9955,639.4580
146,1.937550,12.0005,639.4630
147,1.914837,12.0005,639.4680
148,1.888272,12.0049,639.4730
149,1.865252,12.0049,639.4780
150,1.839822,12.0105,639.4830
151,1.816975,12.0104,639.4880
152,1.790596,12.0148,639.4930
153,1.767529,12.0148,639.4980
154,1.741936,12.0204,639.5031
155,1.719261,12.0204,639.5081
156,1.693224,12.0254,639.5130
157,1.670442,12.0254,639.5180
158,1.645340,12.0303,639.5230
159,1.622661,12.0303,639.5280
160,1.596329,12.0353,639.5330
161,1.573365,12.0353,639.5380
162,1.547492,12.0403,639.5430
163,1.525036,12.0403,639.5480
164,1.499659,12.0446,639.5530
165,1.476895,12.0446,639.5580
166,1.452513,12.0502,639.5630
167,1.430465,12.0502,639.5681
168,1.404382,12.0546,639.5731
169,1.381309,12.0546,639.5780
170,1.355469,12.0602,639.5830
171,1.333687,12.0602,639.5880
172,1.308913,12.0645,639.5930
173,1.286925,12.0645,639.5980
174,1.262609,12.0701,639.6030
175,1.241669,12.0701,639.6080
176,1.218424,12.0751,639.6130
177,1.197204,12.0751,639.6180
178,1.174141,12.0801,639.6230
179,1.152677,12.0801,639.6281
180,1.128314,12.0850,639.6331
181,1.107501,12.0850,639.6380
182,1.084658,12.0900,639.6430
183,1.064340,12.0900,639.6480
184,1.042787,12.0944,639.6530
185,1.022142,12.0944,639.6580
186,0.998901,12.1000,639.6630
187,0.977564,12.1000,639.6680
188,0.954174,12.1043,639.6730
189,0.933000,12.1043,639.6780
190,0.909988,12.1099,639.6830
191,0.889825,12.1099,639.6880
192,0.867786,12.1143,639.6931
193,0.847585,12.1143,639.6981
194,0.826233,12.1199,639.7030
195,0.807445,12.1199,639.7080
196,0.784826,12.1248,639.7130
197,0.764349,12.1248,639.7180
198,0.741155,12.1298,639.7230
199,0.720898,12.1298,639.7280
200,0.698013,12.1342,639.7330
201,0.677638,12.1341,639.7380
202,0.656418,12.1398,639.7430
203,0.637063,12.1398,639.7480
204,0.615095,12.1447,639.7531
205,0.594739,12.1447,639.7581
206,0.572845,12.1497,639.7630
207,0.552602,12.1497,639.7680
208,0.526916,12.1541,639.7730
209,0.504648,12.1540,639.7780
210,0.480874,12.1597,639.7830
211,0.460159,12.1596,639.7880
212,0.437667,12.1646,639.7930
213,0.419378,12.1646,639.7980
214,0.399107,12.1696,639.8030
215,0.381150,12.1696,639.8080
216,0.360963,12.1746,639.8130
217,0.341889,12.1746,639.8181
218,0.324129,12.1796,639.8231
219,0.309221,12.1796,639.8280
220,0.292205,12.1845,639.8330
221,0.275777,12.1845,639.8380
222,0.258864,12.1895,639.8430
223,0.245485,12.1895,639.8480
224,0.231372,12.1945,639.8530
225,0.216189,12.1945,639.8580
226,0.197779,12.1995,639.8630
227,0.181150,12.1995,639.8680
228,0.162385,12.2045,639.8730
229,0.145247,12.2045,639.8781
230,0.127435,12.2095,639.8831
231,0.111022,12.2094,639.8880
232,0.092443,12.2144,639.8930
233,0.075852,12.2144,639.8980
234,0.057643,12.2194,639.9030
235,0.040884,12.2194,639.9080
236,0.022011,12.2244,639.9130
237,0.005069,12.2244,639.9180
238,-0.012083,12.2294,639.9230
239,-0.027342,12.2294,639.9280
240,-0.043844,12.2344,639.9330
241,-0.059804,12.2343,639.9380
242,-0.076301,12.2393,639.9431
243,-0.091092,12.2393,639.9481
244,-0.107865,12.2443,639.9530
245,-0.124265,12.2443,639.9580
246,-0.141258,12.2493,639.9630
247,-0.156287,12.2493,639.9680
248,-0.172986,12.2543,639.9730
249,-0.188917,12.2543,639.9780
250,-0.205995,12.2593,639.9830
251,-0.221571,12.2592,639.9880
252,-0.238424,12.2642,639.9930
253,-0.253823,12.2642,639.9980
254,-0.270007,12.2692,640.0031
255,-0.285219,12.2692,640.0081
256,-0.302506,12.2742,640.0130
257,-0.318695,12.2742,640.0180
258,-0.335918,12.2792,640.0230
259,-0.350727,12.2792,640.0280
260,-0.367337,12.2842,640.0330
261,-0.382796,12.2841,640.0380
262,-0.399383,12.2891,640.0430
263,-0.414052,12.2891,640.0480
264,-0.429951,12.2941,640.0530
265,-0.445256,12.2941,640.0580
266,-0.461323,12.2991,640.0630
267,-0.475848,12.2991,640.0681
268,-0.491924,12.3041,640.0731
269,-0.506509,12.3041,640.0780
270,-0.522595,12.3091,640.0830
271,-0.536816,12.3091,640.0880
272,-0.552551,12.3140,640.0930
273,-0.568034,12.3140,640.0980
274,-0.584143,12.3190,640.1030
275,-0.598948,12.3190,640.1080
276,-0.614389,12.3240,640.1130
277,-0.628417,12.3240,640.1180
278,-0.643619,12.3290,640.1230
279,-0.657475,12.3290,640.1281
280,-0.672434,12.3340,640.1331
281,-0.687024,12.3340,640.1380
282,-0.701880,12.3390,640.1430
283,-0.715862,12.3390,640.1480
284,-0.731377,12.3439,640.1530
285,-0.746238,12.3439,640.1580
286,-0.761618,12.3489,640.1630
287,-0.774884,12.3489,640.1680
288,-0.788665,12.3539,640.1730
289,-0.802132,12.3539,640.1780
290,-0.816811,12.3589,640.1830
291,-0.830718,12.3589,640.1880
292,-0.845962,12.3639,640.1931
293,-0.859299,12.3639,640.1981
294,-0.873234,12.3689,640.2030
295,-0.885570,12.3689,640.2080
296,-0.899547,12.3738,640.2130
297,-0.913145,12.3738,640.2180
298,-0.926930,12.3788,640.2230
299,-0.939878,12.3788,640.2280
300,-0.954197,12.3838,640.2330
301,-0.967702,12.3838,640.2380
302,-0.980571,12.3888,640.2430
303,-0.992462,12.3888,640.2480
304,-1.006346,12.3938,640.2531
305,-1.019827,12.3938,640.2581
306,-1.034407,12.3988,640.2630
307,-1.047239,12.3988,640.2680
308,-1.061394,12.4037,640.2730
309,-1.074253,12.4037,640.2780
310,-1.087828,12.4087,640.2830
311,-1.099537,12.4087,640.2880
312,-1.112659,12.4137,640.2930
313,-1.125135,12.4137,640.2980
314,-1.137540,12.4187,640.3030
315,-1.148703,12.4187,640.3080
316,-1.160851,12.4237,640.3130
317,-1.171204,12.4237,640.3181
318,-1.182558,12.4287,640.3231
319,-1.192280,12.4287,640.3280
320,-1.203002,12.4337,640.3330
321,-1.212457,12.4337,640.3380
322,-1.222642,12.4387,640.3430
323,-1.232298,12.4386,640.3480
324,-1.243451,12.4436,640.3530
325,-1.255057,12.4436,640.3580
326,-1.266224,12.4486,640.3630
327,-1.276428,12.4486,640.3680
328,-1.287501,12.4536,640.3730
329,-1.297994,12.4536,640.3781
330,-1.309399,12.4586,640.3831
331,-1.320440,12.4586,640.3880
332,-1.332635,12.4636,640.3930
333,-1.344831,12.4636,640.3980
334,-1.357952,12.4686,640.4030
335,-1.368866,12.4686,640.4080
336,-1.380697,12.4736,640.4130
337,-1.392326,12.4736,640.4180
338,-1.404812,12.4785,640.4230
339,-1.416217,12.4785,640.4280
340,-1.428567,12.4835,640.4330
341,-1.440061,12.4835,640.4380
342,-1.452682,12.4885,640.4431
343,-1.463783,12.4885,640.4481
344,-1.476465,12.4935,640.4530
345,-1.487735,12.4935,640.4580
346,-1.499757,12.4985,640.4630
347,-1.510447,12.4985,640.4680
348,-1.522072,12.5035,640.4730
349,-1.533075,12.5035,640.4780
350,-1.545022,12.5085,640.4830
351,-1.554800,12.5085,640.4880
352,-1.565111,12.5134,640.4930
353,-1.575586,12.5134,640.4980
354,-1.587533,12.5184,640.5031
355,-1.598106,12.5184,640.5081
356,-1.610554,12.5234,640.5130
357,-1.621478,12.5234,640.5180
358,-1.634089,12.5284,640.5230
359,-1.643105,12.5284,640.5280
360,-1.651088,12.5334,640.5330
361,-1.658031,12.5334,640.5380
362,-1.665906,12.5384,640.5430
363,-1.674912,12.5384,640.5480
364,-1.685195,12.5434,640.5530
365,-1.694852,12.5434,640.5580
366,-1.704971,12.5484,640.5630
367,-1.713879,12.5484,640.5681
368,-1.724938,12.5534,640.5731
369,-1.735179,12.5534,640.5780
370,-1.746696,12.5583,640.5830
371,-1.757106,12.5583,640.5880
372,-1.768927,12.5633,640.5930
373,-1.779416,12.5633,640.5980
374,-1.790980,12.5683,640.6030
375,-1.800122,12.5683,640.6080
376,-1.811410,12.5733,640.6130
377,-1.821777,12.5733,640.6180
378,-1.833632,12.5783,640.6230
379,-1.843503,12.5783,640.6281
380,-1.855366,12.5833,640.6331
381,-1.865373,12.5833,640.6380
382,-1.877475,12.5883,640.6430
383,-1.886626,12.5883,640.6480
384,-1.898190,12.5933,640.6530
385,-1.908473,12.5932,640.6580
386,-1.919588,12.5982,640.6630
387,-1.928562,12.5982,640.6680
388,-1.939458,12.6032,640.6730
389,-1.949222,12.6032,640.6780
390,-1.960636,12.6082,640.6830
391,-1.969680,12.6082,640.6880
392,-1.980903,12.6132,640.6931
393,-1.990269,12.6132,640.6981
394,-2.001043,12.6182,640.7030
395,-2.010456,12.6182,640.7080
396,-2.022488,12.6232,640.7130
397,-2.032415,12.6232,640.7180
398,-2.044012,12.6282,640.7230
399,-2.052308,12.6282,640.7280
400,-2.063194,12.6332,640.7330
401,-2.072607,12.6332,640.7380
402,-2.083405,12.6381,640.7430
403,-2.092125,12.6381,640.7480
404,-2.102993,12.6431,640.7531
405,-2.112336,12.6431,640.7581
406,-2.124382,12.6481,640.7630
407,-2.132457,12.6481,640.7680
408,-2.142221,12.6531,640.7730
409,-2.150564,12.6531,640.7780
410,-2.160987,12.6581,640.7830
411,-2.169399,12.6581,640.7880
412,-2.180080,12.6631,640.7930
413,-2.189011,12.6631,640.7980
414,-2.200108,12.6681,640.8030
415,-2.208076,12.6681,640.8080
416,-2.218601,12.6731,640.8140
417,-2.233383,12.6781,640.8190
418,-2.238462,12.6781,640.8240
419,-2.251522,12.6830,640.8290
420,-2.256507,12.6830,640.8340
421,-2.270437,12.6880,640.8391
422,-2.275637,12.6880,640.8441
423,-2.288548,12.6930,640.8491
424,-2.293037,12.6930,640.8540
425,-2.306911,12.6980,640.8590
426,-2.311419,12.6980,640.8640
427,-2.325228,12.7030,640.8690
428,-2.331106,12.7030,640.8740
429,-2.345589,12.7080,640.8790
430,-2.350793,12.7080,640.8840
431,-2.363072,12.7124,640.8890
432,-2.368090,12.7124,640.8940
433,-2.381510,12.7180,640.8990
434,-2.387117,12.7180,640.9041
435,-2.400758,12.7223,640.9091
436,-2.405691,12.7223,640.9140
437,-2.418986,12.7223,640.9190
438,-2.421889,12.7279,640.9240
439,-2.429671,12.7329,640.9290
440,-2.431602,12.7329,640.9340
441,-2.441277,12.7379,640.9390
442,-2.444400,12.7379,640.9440
443,-2.453290,12.7429,640.9490
444,-2.455450,12.7429,640.9540
445,-2.462937,12.7479,640.9590
446,-2.462189,12.7479,640.9641
447,-2.465929,12.7523,640.9691
448,-2.466206,12.7523,640.9741
449,-2.474599,12.7579,640.9790
450,-2.475025,12.7579,640.9840
451,-2.480608,12.7623,640.9890
452,-2.480052,12.7623,640.9940
453,-2.483531,12.7679,640.9990
454,-2.483105,12.7679,641.0040
455,-2.488922,12.7679,641.0090
456,-2.490854,12.7723,641.0140
457,-2.500538,12.7723,641.0190
458,-2.502614,12.7779,641.0240
459,-2.506220,12.7823,641.0291
460,-2.504868,12.7823,641.0341
461,-2.510849,12.7879,641.0390
462,-2.512958,12.7879,641.0440
463,-2.522380,12.7923,641.0490
464,-2.526163,12.7923,641.0540
465,-2.539159,12.7973,641.0590
466,-2.544466,12.7972,641.0640
467,-2.555885,12.8022,641.0690
468,-2.560061,12.8022,641.0740
469,-2.572280,12.8079,641.0790
470,-2.577022,12.8079,641.0840
471,-2.588328,12.8122,641.0891
472,-2.593304,12.8122,641.0941
473,-2.605920,12.8172,641.0991
474,-2.609974,12.8172,641.1040
475,-2.620407,12.8172,641.1090
476,-2.625158,12.8222,641.1140
477,-2.636670,12.8222,641.1190
478,-2.640856,12.8278,641.1240
479,-2.646533,12.8322,641.1290
480,-2.643966,12.8322,641.1340
481,-2.644260,12.8372,641.1390
482,-2.639523,12.8372,641.1440
483,-2.638008,12.8422,641.1490
484,-2.636787,12.8422,641.1541
485,-2.643376,12.8478,641.1591
486,-2.646374,12.8478,641.1640
487,-2.654688,12.8522,641.1690
488,-2.658401,12.8522,641.1740
489,-2.669175,12.8572,641.1790
490,-2.672860,12.8572,641.1840
491,-2.682207,12.8622,641.1890
492,-2.686888,12.8622,641.1940
493,-2.699065,12.8622,641.1990
494,-2.703886,12.8678,641.2040
495,-2.713233,12.8678,641.2090
496,-2.717447,12.8721,641.2141
497,-2.728745,12.8721,641.2191
498,-2.733800,12.8771,641.2241
499,-2.744129,12.8821,641.2290
500,-2.748137,12.8821,641.2340
501,-2.758200,12.8877,641.2390
502,-2.762544,12.8877,641.2440
503,-2.771995,12.8921,641.2490
504,-2.776567,12.8921,641.2540
505,-2.787426,12.8971,641.2590
506,-2.791878,12.8971,641.2640
507,-2.801436,12.9021,641.2690
508,-2.806234,12.9021,641.2740
509,-2.816760,12.9077,641.2791
510,-2.821735,12.9077,641.2841
511,-2.830339,12.9077,641.2890
512,-2.834169,12.9121,641.2940
513,-2.844835,12.9121,641.2990
514,-2.849166,12.9171,641.3040
515,-2.858579,12.9171,641.3090
516,-2.862493,12.9221,641.3140
517,-2.872593,12.9221,641.3190
518,-2.877456,12.9277,641.3240
519,-2.885976,12.9320,641.3290
520,-2.889914,12.9320,641.3340
521,-2.900860,12.9370,641.3391
522,-2.905756,12.9370,641.3441
523,-2.914796,12.9420,641.3491
524,-2.915226,12.9420,641.3540
525,-2.915651,12.9477,641.3590
526,-2.913992,12.9477,641.3640
527,-2.915965,12.9520,641.3690
528,-2.917686,12.9520,641.3740
529,-2.925915,12.9520,641.3790
530,-2.929746,12.9570,641.3840
531,-2.937933,12.9570,641.3890
532,-2.942357,12.9620,641.3940
533,-2.952364,12.9620,641.3990
534,-2.956862,12.9676,641.4041
535,-2.964714,12.9676,641.4091
536,-2.968974,12.9720,641.4140
537,-2.978827,12.9720,641.4190
538,-2.983157,12.9770,641.4240
539,-2.992350,12.9820,641.4290
540,-2.996876,12.9820,641.4340
541,-3.006916,12.9876,641.4390
542,-3.012004,12.9876,641.4440
543,-3.019598,12.9920,641.4490
544,-3.023928,12.9920,641.4540
545,-3.034005,12.9970,641.4590
546,-3.039285,12.9970,641.4641
547,-3.049156,13.0020,641.4691
548,-3.053631,13.0019,641.4741
549,-3.062895,13.0019,641.4790
550,-3.067122,13.0076,641.4840
551,-3.074553,13.0076,641.4890
552,-3.078976,13.0119,641.4940
553,-3.088366,13.0119,641.4990
554,-3.092710,13.0169,641.5040
555,-3.100720,13.0169,641.5090
556,-3.105205,13.0219,641.5140
557,-3.114033,13.0219,641.5190
558,-3.119533,13.0275,641.5240
559,-3.127552,13.0275,641.5291
560,-3.132037,13.0319,641.5341
561,-3.142095,13.0319,641.5390
562,-3.147258,13.0369,641.5440
563,-3.154660,13.0369,641.5490
564,-3.158579,13.0419,641.5540
565,-3.167758,13.0419,641.5590
566,-3.173098,13.0475,641.5640
567,-3.180505,13.0475,641.5690
568,-3.184737,13.0519,641.5740
569,-3.193299,13.0519,641.5790
570,-3.198457,13.0569,641.5840
571,-3.206869,13.0569,641.5891
572,-3.210909,13.0619,641.5941
573,-3.218120,13.0619,641.5991
574,-3.222058,13.0675,641.6040
575,-3.229185,13.0675,641.6090
576,-3.233753,13.0718,641.6140
577,-3.242147,13.0718,641.6190
578,-3.246669,13.0768,641.6240
579,-3.253112,13.0768,641.6290
580,-3.256998,13.0818,641.6340
581,-3.262666,13.0818,641.6390
582,-3.262951,13.0875,641.6440
583,-3.259738,13.0875,641.6490
584,-3.258331,13.0918,641.6541
585,-3.260944,13.0918,641.6591
586,-3.262993,13.0968,641.6640
587,-3.267478,13.0968,641.6690
588,-3.269258,13.1018,641.6740
589,-3.266865,13.1018,641.6790
590,-3.261618,13.1075,641.6840
591,-3.252388,13.1075,641.6890
592,-3.249236,13.1118,641.6940
593,-3.249750,13.1118,641.6990
594,-3.251625,13.1168,641.7040
595,-3.255123,13.1168,641.7090
596,-3.257166,13.1218,641.7141
597,-3.256400,13.1218,641.7191
598,-3.254805,13.1275,641.7241
599,-3.253070,13.1275,641.7290
600,-3.253935,13.1318,641.7340
601,-3.258710,13.1318,641.7390
602,-3.262123,13.1368,641.7440
603,-3.265668,13.1368,641.7490
604,-3.265135,13.1418,641.7540
605,-3.260468,13.1418,641.7590
606,-3.258466,13.1475,641.7640
607,-3.255619,13.1475,641.7690
608,-3.256273,13.1518,641.7740
609,-3.255787,13.1518,641.7791
610,-3.254613,13.1568,641.7841
611,-3.254281,13.1568,641.7890
612,-3.256082,13.1618,641.7940
613,-3.261024,13.1618,641.7990
614,-3.264844,13.1674,641.8040
615,-3.269446,13.1674,641.8090
616,-3.273897,13.1718,641.8140
617,-3.279902,13.1718,641.8190
618,-3.279775,13.1768,641.8240
619,-3.268174,13.1768,641.8290
620,-3.257620,13.1818,641.8340
621,-3.245439,13.1818,641.8391
622,-3.242039,13.1875,641.8441
623,-3.239102,13.1875,641.8491
624,-3.237017,13.1918,641.8540
625,-3.230882,13.1918,641.8590
626,-3.228614,13.1968,641.8640
627,-3.226618,13.1968,641.8690
628,-3.228595,13.2018,641.8740
629,-3.231719,13.2018,641.8790
630,-3.232799,13.2075,641.8840
631,-3.225696,13.2075,641.8890
632,-3.219196,13.2119,641.8940
633,-3.206373,13.2119,641.8990
634,-3.200809,13.2169,641.9041
635,-3.196460,13.2169,641.9091
636,-3.197316,13.2219,641.9140
637,-3.199640,13.2219,641.9190
638,-3.202544,13.2275,641.9240
639,-3.201749,13.2275,641.9290
640,-3.198841,13.2319,641.9340
641,-3.192172,13.2319,641.9390
642,-3.190386,13.2369,641.9440
643,-3.188010,13.2369,641.9490
644,-3.188656,13.2419,641.9540
645,-3.183498,13.2419,641.9590
646,-3.177555,13.2475,641.9641
647,-3.162095,13.2475,641.9691
648,-3.154996,13.2519,641.9741
649,-3.141805,13.2519,641.9790
650,-3.135048,13.2569,641.9840
651,-3.126799,13.2569,641.9890
652,-3.126360,13.2619,641.9940
653,-3.127880,13.2619,641.9990
654,-3.132041,13.2675,642.0040
