Point No.,Normal Force [N],Gap [mm],Time [s]
1.0,4.185269,12.0625,574.9530
2.0,4.185803,12.0625,574.9580
3.0,4.185699,12.0625,574.9630
4.0,4.184634,12.0625,574.9680
5.0,4.182890,12.0625,574.9730
6.0,4.182342,12.0631,574.9780
7.0,4.181918,12.0631,574.9830
8.0,4.181860,12.0631,574.9880
9.0,4.181047,12.0631,574.9920
10.0,4.176656,12.0656,574.9970
11.0,4.171260,12.0656,575.0020
12.0,4.161903,12.0681,575.0070
13.0,4.152607,12.0681,575.0120
14.0,4.130512,12.0731,575.0170
15.0,4.118186,12.0731,575.0220
16.0,4.091835,12.0780,575.0280
17.0,4.066547,12.0780,575.0330
18.0,4.043890,12.0843,575.0380
19.0,4.015619,12.0842,575.0430
20.0,3.993865,12.0924,575.0480
21.0,3.957723,12.0923,575.0530
22.0,3.933346,12.0998,575.0580
23.0,3.891938,12.0998,575.0630
24.0,3.862493,12.1092,575.0681
25.0,3.814450,12.1091,575.0730
26.0,3.782175,12.1191,575.0780
27.0,3.733865,12.1191,575.0830
28.0,3.700323,12.1297,575.0880
29.0,3.650891,12.1297,575.0930
30.0,3.618144,12.1421,575.0970
31.0,3.581884,12.1421,575.1021
32.0,3.527215,12.1552,575.1071
33.0,3.487870,12.1552,575.1120
34.0,3.430241,12.1695,575.1170
35.0,3.389067,12.1695,575.1220
36.0,3.330493,12.1838,575.1270
37.0,3.292500,12.1838,575.1320
38.0,3.230620,12.1988,575.1370
39.0,3.186453,12.1988,575.1420
40.0,3.123292,12.2156,575.1470
41.0,3.078176,12.2156,575.1520
42.0,3.015726,12.2324,575.1570
43.0,2.970863,12.2324,575.1620
44.0,2.907814,12.2511,575.1671
45.0,2.860997,12.2511,575.1720
46.0,2.793926,12.2704,575.1770
47.0,2.747393,12.2704,575.1820
48.0,2.677658,12.2903,575.1870
49.0,2.628712,12.2903,575.1920
50.0,2.561043,12.3121,575.1970
51.0,2.514029,12.3121,575.2020
52.0,2.445985,12.3346,575.2070
53.0,2.399172,12.3345,575.2120
54.0,2.335352,12.3576,575.2170
55.0,2.290526,12.3576,575.2220
56.0,2.228184,12.3826,575.2271
57.0,2.181239,12.3825,575.2321
58.0,2.114983,12.4069,575.2370
59.0,2.067707,12.4068,575.2420
60.0,1.999229,12.4324,575.2470
61.0,1.953706,12.4324,575.2520
62.0,1.886799,12.4592,575.2570
63.0,1.838789,12.4592,575.2620
64.0,1.773444,12.4873,575.2670
65.0,1.724812,12.4873,575.2720
66.0,1.658354,12.5160,575.2770
67.0,1.611246,12.5160,575.2820
68.0,1.544297,12.5459,575.2870
69.0,1.495235,12.5459,575.2921
70.0,1.428314,12.5765,575.2970
71.0,1.384335,12.5764,575.3020
72.0,1.319177,12.6064,575.3070
73.0,1.275511,12.6064,575.3120
74.0,1.213252,12.6382,575.3170
75.0,1.171541,12.6382,575.3220
76.0,1.108814,12.6675,575.3270
77.0,1.065611,12.6675,575.3320
78.0,1.003601,12.6975,575.3370
79.0,0.961782,12.6974,575.3420
80.0,0.902530,12.7274,575.3470
81.0,0.861805,12.7274,575.3521
82.0,0.801828,12.7573,575.3571
83.0,0.760285,12.7573,575.3620
84.0,0.702039,12.7879,575.3670
85.0,0.661534,12.7879,575.3720
86.0,0.598934,12.8179,575.3770
87.0,0.554417,12.8178,575.3820
88.0,0.494739,12.8478,575.3870
89.0,0.455983,12.8478,575.3920
90.0,0.397582,12.8477,575.3970
91.0,0.365654,12.8783,575.4020
92.0,0.317882,12.9096,575.4070
93.0,0.284770,12.9095,575.4120
94.0,0.236446,12.9401,575.4171
95.0,0.206280,12.9401,575.4220
96.0,0.165251,12.9695,575.4270
97.0,0.134314,12.9695,575.4320
98.0,0.085289,12.9994,575.4370
99.0,0.052008,12.9994,575.4420
100.0,0.003250,13.0294,575.4470
101.0,-0.028829,13.0294,575.4520
102.0,-0.076979,13.0593,575.4570
103.0,-0.107711,13.0593,575.4620
104.0,-0.153018,13.0899,575.4670
105.0,-0.182259,13.0899,575.4720
106.0,-0.225181,13.1199,575.4771
107.0,-0.252920,13.1199,575.4821
108.0,-0.293664,13.1198,575.4870
109.0,-0.320580,13.1498,575.4920
110.0,-0.360271,13.1498,575.4970
111.0,-0.385939,13.1823,575.5020
112.0,-0.424087,13.2116,575.5070
113.0,-0.448786,13.2116,575.5120
114.0,-0.485186,13.2422,575.5170
115.0,-0.509156,13.2422,575.5220
116.0,-0.544227,13.2716,575.5270
117.0,-0.566851,13.2715,575.5320
118.0,-0.602418,13.3015,575.5370
119.0,-0.625836,13.3015,575.5421
120.0,-0.658527,13.3315,575.5470
121.0,-0.678971,13.3315,575.5520
122.0,-0.709783,13.3621,575.5570
123.0,-0.730620,13.3621,575.5620
124.0,-0.759668,13.3921,575.5670
125.0,-0.777760,13.3920,575.5720
126.0,-0.804237,13.4227,575.5770
127.0,-0.821141,13.4226,575.5820
128.0,-0.844578,13.4226,575.5870
129.0,-0.858242,13.4532,575.5920
130.0,-0.879458,13.4532,575.5970
131.0,-0.894889,13.4832,575.6021
132.0,-0.918116,13.4832,575.6071
133.0,-0.933926,13.5151,575.6120
134.0,-0.958728,13.5151,575.6170
135.0,-0.973986,13.5451,575.6220
136.0,-0.991597,13.5750,575.6270
137.0,-1.001903,13.5750,575.6320
138.0,-1.018363,13.6044,575.6370
139.0,-1.031195,13.6044,575.6420
140.0,-1.051620,13.6344,575.6470
141.0,-1.064676,13.6344,575.6520
142.0,-1.085429,13.6650,575.6570
143.0,-1.097592,13.6650,575.6620
144.0,-1.112986,13.6950,575.6671
145.0,-1.122053,13.6950,575.6720
146.0,-1.134192,13.7256,575.6770
147.0,-1.140411,13.7256,575.6820
148.0,-1.148960,13.7256,575.6870
149.0,-1.155095,13.7556,575.6920
150.0,-1.166018,13.7556,575.6970
151.0,-1.174141,13.7874,575.7020
152.0,-1.188871,13.7874,575.7070
153.0,-1.199659,13.8174,575.7120
154.0,-1.216666,13.8174,575.7170
155.0,-1.228712,13.8474,575.7220
156.0,-1.245438,13.8774,575.7271
157.0,-1.256320,13.8774,575.7321
158.0,-1.271120,13.9068,575.7370
159.0,-1.277555,13.9067,575.7420
160.0,-1.283203,13.9374,575.7470
161.0,-1.286748,13.9374,575.7520
162.0,-1.294477,13.9674,575.7570
163.0,-1.300351,13.9674,575.7620
164.0,-1.310101,13.9980,575.7670
165.0,-1.316371,13.9980,575.7720
166.0,-1.326687,14.0280,575.7770
167.0,-1.334758,14.0280,575.7820
168.0,-1.347538,14.0280,575.7870
169.0,-1.355862,14.0580,575.7921
170.0,-1.365981,14.0579,575.7970
171.0,-1.369904,14.0898,575.8020
172.0,-1.370807,14.0898,575.8070
173.0,-1.370765,14.1198,575.8120
174.0,-1.374080,14.1198,575.8170
175.0,-1.378335,14.1492,575.8220
176.0,-1.386897,14.1792,575.8270
177.0,-1.392261,14.1792,575.8320
178.0,-1.395843,14.2092,575.8370
179.0,-1.395104,14.2092,575.8420
180.0,-1.397073,14.2398,575.8470
181.0,-1.400697,14.2398,575.8521
182.0,-1.408024,14.2698,575.8571
183.0,-1.413257,14.2698,575.8620
184.0,-1.421127,14.3004,575.8670
185.0,-1.424162,14.3004,575.8720
186.0,-1.422586,14.3004,575.8770
187.0,-1.420271,14.3304,575.8820
188.0,-1.414800,14.3304,575.8870
189.0,-1.407931,14.3629,575.8920
190.0,-1.397237,14.3629,575.8970
191.0,-1.388459,14.3923,575.9020
192.0,-1.358770,14.3923,575.9070
193.0,-1.332406,14.4223,575.9120
194.0,-1.292612,14.4224,575.9171
195.0,-1.271443,14.4524,575.9220
196.0,-1.252495,14.4824,575.9270
197.0,-1.245153,14.4824,575.9320
198.0,-1.226238,14.5124,575.9370
199.0,-1.203863,14.5124,575.9420
200.0,-1.159430,14.5431,575.9470
201.0,-1.128291,14.5431,575.9520
202.0,-1.091466,14.5731,575.9570
203.0,-1.073832,14.5731,575.9620
204.0,-1.052186,14.5731,575.9670
205.0,-1.036371,14.6038,575.9720
206.0,-1.000762,14.6038,575.9771
207.0,-0.967580,14.6357,575.9821
208.0,-0.915745,14.6357,575.9870
209.0,-0.890161,14.6657,575.9920
210.0,-0.865078,14.6657,575.9970
211.0,-0.853856,14.6957,576.0020
212.0,-0.835039,14.6958,576.0070
213.0,-0.801936,14.7252,576.0120
214.0,-0.728300,14.7252,576.0170
215.0,-0.680814,14.7552,576.0220
216.0,-0.630278,14.7553,576.0270
217.0,-0.606813,14.7859,576.0320
218.0,-0.577517,14.7859,576.0370
219.0,-0.562703,14.8159,576.0421
220.0,-0.544550,14.8159,576.0470
221.0,-0.527215,14.8459,576.0520
222.0,-0.496226,14.8460,576.0570
223.0,-0.479556,14.8766,576.0620
224.0,-0.461164,14.8766,576.0670
225.0,-0.448600,14.9066,576.0720
226.0,-0.430447,14.9066,576.0770
227.0,-0.420800,14.9385,576.0820
228.0,-0.405326,14.9385,576.0870
229.0,-0.387309,14.9679,576.0920
230.0,-0.356413,14.9679,576.0970
231.0,-0.338532,14.9979,576.1021
232.0,-0.312312,14.9979,576.1071
233.0,-0.297199,15.0279,576.1120
234.0,-0.282240,15.0280,576.1170
235.0,-0.278195,15.0580,576.1220
236.0,-0.274276,15.0580,576.1270
237.0,-0.271910,15.0886,576.1320
238.0,-0.262633,15.0886,576.1370
239.0,-0.252551,15.1186,576.1420
240.0,-0.239776,15.1186,576.1470
241.0,-0.233888,15.1486,576.1520
242.0,-0.227538,15.1486,576.1570
243.0,-0.221870,15.1792,576.1620
244.0,-0.204129,15.1793,576.1671
245.0,-0.190765,15.2111,576.1720
246.0,-0.166098,15.2112,576.1770
247.0,-0.149769,15.2412,576.1820
248.0,-0.132107,15.2412,576.1870
249.0,-0.124704,15.2706,576.1920
250.0,-0.118532,15.2706,576.1970
251.0,-0.116568,15.3006,576.2020
252.0,-0.107468,15.3006,576.2070
253.0,-0.094080,15.3306,576.2120
254.0,-0.064826,15.3306,576.2170
255.0,-0.045635,15.3612,576.2220
256.0,-0.024779,15.3612,576.2271
257.0,-0.016081,15.3912,576.2321
258.0,-0.009479,15.3912,576.2370
259.0,-0.006837,15.4219,576.2420
260.0,-0.005471,15.4219,576.2470
261.0,-0.003853,15.4519,576.2520
262.0,-0.003928,15.4519,576.2570
263.0,-0.004073,15.4844,576.2620
264.0,-0.005242,15.4844,576.2670
265.0,-0.004873,15.5137,576.2720
266.0,-0.004709,15.5137,576.2770
267.0,-0.004802,15.5437,576.2820
268.0,-0.005401,15.5437,576.2870
269.0,-0.005462,15.5737,576.2921
270.0,-0.004859,15.5737,576.2970
271.0,-0.004354,15.6037,576.3020
272.0,-0.004372,15.6037,576.3070
273.0,-0.004363,15.6337,576.3120
274.0,-0.005387,15.6337,576.3170
275.0,-0.006205,15.6644,576.3220
276.0,-0.005448,15.6644,576.3270
277.0,-0.005583,15.6944,576.3320
278.0,-0.005139,15.6944,576.3370
279.0,-0.004643,15.7250,576.3420
280.0,-0.005219,15.7250,576.3470
281.0,-0.004746,15.7550,576.3521
282.0,-0.005116,15.7550,576.3571
283.0,-0.005527,15.7869,576.3620
284.0,-0.005205,15.7869,576.3670
285.0,-0.005219,15.8162,576.3720
286.0,-0.004966,15.8162,576.3770
287.0,-0.004265,15.8462,576.3820
288.0,-0.002553,15.8462,576.3870
289.0,-0.001515,15.8763,576.3920
290.0,-0.002343,15.8763,576.3970
291.0,-0.003563,15.9062,576.4020
292.0,-0.004040,15.9062,576.4070
293.0,-0.003741,15.9369,576.4120
294.0,-0.003708,15.9369,576.4171
295.0,-0.004349,15.9669,576.4220
296.0,-0.004742,15.9669,576.4270
297.0,-0.003984,15.9969,576.4320
298.0,-0.003984,15.9969,576.4370
