Point No.,Normal Force [N],Gap [mm],Time [s]
1.0,4.174314,12.0637,641.4470
2.0,4.174875,12.0637,641.4520
3.0,4.174903,12.0637,641.4570
4.0,4.174767,12.0637,641.4620
5.0,4.174548,12.0637,641.4670
6.0,4.174324,12.0637,641.4720
7.0,4.174076,12.0637,641.4771
8.0,4.173285,12.0650,641.4821
9.0,4.170301,12.0650,641.4860
10.0,4.166467,12.0668,641.4910
11.0,4.156862,12.0668,641.4960
12.0,4.148385,12.0712,641.5010
13.0,4.125691,12.0712,641.5060
14.0,4.115665,12.0749,641.5110
15.0,4.090696,12.0749,641.5161
16.0,4.070073,12.0799,641.5220
17.0,4.049534,12.0799,641.5270
18.0,4.024714,12.0861,641.5320
19.0,4.000440,12.0861,641.5370
20.0,3.965803,12.0936,641.5421
21.0,3.944022,12.0936,641.5471
22.0,3.905948,12.1011,641.5520
23.0,3.873762,12.1010,641.5570
24.0,3.833500,12.1110,641.5620
25.0,3.801950,12.1110,641.5670
26.0,3.757260,12.1203,641.5720
27.0,3.724649,12.1203,641.5770
28.0,3.676250,12.1315,641.5820
29.0,3.639916,12.1315,641.5870
30.0,3.608057,12.1428,641.5910
31.0,3.553346,12.1427,641.5960
32.0,3.517106,12.1558,641.6010
33.0,3.460299,12.1558,641.6060
34.0,3.424545,12.1689,641.6110
35.0,3.365195,12.1689,641.6160
36.0,3.325634,12.1838,641.6210
37.0,3.262956,12.1838,641.6260
38.0,3.223381,12.1994,641.6310
39.0,3.158509,12.1994,641.6360
40.0,3.114057,12.2162,641.6411
41.0,3.047267,12.2162,641.6461
42.0,3.005429,12.2343,641.6510
43.0,2.938167,12.2342,641.6560
44.0,2.897354,12.2523,641.6610
45.0,2.827403,12.2523,641.6660
46.0,2.784167,12.2716,641.6710
47.0,2.711962,12.2716,641.6760
48.0,2.669166,12.2916,641.6810
49.0,2.596470,12.2915,641.6860
50.0,2.552037,12.3128,641.6910
51.0,2.479490,12.3127,641.6960
52.0,2.437288,12.3352,641.7010
53.0,2.369175,12.3351,641.7061
54.0,2.327561,12.3583,641.7111
55.0,2.260795,12.3582,641.7160
56.0,2.218630,12.3826,641.7210
57.0,2.151620,12.3825,641.7260
58.0,2.106613,12.4069,641.7310
59.0,2.037185,12.4068,641.7360
60.0,1.991532,12.4343,641.7410
61.0,1.920561,12.4343,641.7460
62.0,1.879355,12.4611,641.7510
63.0,1.809329,12.4611,641.7560
64.0,1.763783,12.4885,641.7610
65.0,1.693220,12.4885,641.7661
66.0,1.648838,12.5172,641.7711
67.0,1.576698,12.5172,641.7760
68.0,1.533584,12.5472,641.7810
69.0,1.463592,12.5471,641.7860
70.0,1.419921,12.5771,641.7910
71.0,1.352345,12.5770,641.7960
72.0,1.311709,12.6070,641.8010
73.0,1.246229,12.6070,641.8060
74.0,1.203933,12.6376,641.8110
75.0,1.140182,12.6375,641.8160
76.0,1.100089,12.6675,641.8210
77.0,1.036984,12.6675,641.8260
78.0,0.996329,12.7000,641.8311
79.0,0.934230,12.6999,641.8361
80.0,0.895020,12.7293,641.8410
81.0,0.834459,12.7292,641.8460
82.0,0.794964,12.7592,641.8510
83.0,0.735011,12.7592,641.8560
84.0,0.695212,12.7892,641.8610
85.0,0.633626,12.7891,641.8660
86.0,0.590138,12.8191,641.8710
87.0,0.526462,12.8191,641.8760
88.0,0.487978,12.8490,641.8810
89.0,0.430512,12.8490,641.8860
90.0,0.392775,12.8796,641.8911
91.0,0.343970,12.8796,641.8961
92.0,0.312822,12.9096,641.9010
93.0,0.265242,12.9095,641.9060
94.0,0.234304,12.9395,641.9110
95.0,0.189956,12.9395,641.9160
96.0,0.161220,12.9695,641.9210
97.0,0.113837,12.9694,641.9260
98.0,0.082460,13.0013,641.9310
99.0,0.032219,13.0013,641.9360
100.0,-0.001501,13.0312,641.9410
101.0,-0.050662,13.0312,641.9460
102.0,-0.082502,13.0612,641.9510
103.0,-0.129684,13.0612,641.9561
104.0,-0.159467,13.0905,641.9611
105.0,-0.201847,13.0905,641.9660
106.0,-0.229572,13.1211,641.9710
107.0,-0.271186,13.1211,641.9760
108.0,-0.298560,13.1511,641.9810
109.0,-0.339280,13.1510,641.9860
110.0,-0.365410,13.1817,641.9910
111.0,-0.404817,13.1816,641.9960
112.0,-0.430040,13.2116,642.0010
113.0,-0.466603,13.2116,642.0060
114.0,-0.489525,13.2422,642.0110
115.0,-0.525284,13.2422,642.0161
116.0,-0.549853,13.2740,642.0211
117.0,-0.584634,13.2740,642.0260
118.0,-0.606542,13.3034,642.0310
119.0,-0.638476,13.3034,642.0360
120.0,-0.659285,13.3334,642.0410
121.0,-0.690582,13.3333,642.0460
122.0,-0.710358,13.3640,642.0510
123.0,-0.741155,13.3639,642.0560
124.0,-0.761384,13.3933,642.0610
125.0,-0.788740,13.3933,642.0660
126.0,-0.805621,13.4239,642.0710
127.0,-0.830264,13.4239,642.0760
128.0,-0.845569,13.4539,642.0811
129.0,-0.868338,13.4539,642.0861
130.0,-0.883199,13.4845,642.0910
131.0,-0.906233,13.4845,642.0960
132.0,-0.922684,13.5145,642.1010
133.0,-0.945986,13.5144,642.1060
134.0,-0.960136,13.5451,642.1110
135.0,-0.980458,13.5450,642.1160
136.0,-0.993098,13.5769,642.1210
137.0,-1.009829,13.5769,642.1260
138.0,-1.021052,13.6063,642.1310
139.0,-1.040019,13.6063,642.1360
140.0,-1.052902,13.6363,642.1411
141.0,-1.072322,13.6362,642.1461
142.0,-1.085279,13.6662,642.1510
143.0,-1.102520,13.6662,642.1560
144.0,-1.113921,13.6962,642.1610
145.0,-1.128104,13.6962,642.1660
146.0,-1.135067,13.7262,642.1710
147.0,-1.142623,13.7262,642.1760
148.0,-1.147613,13.7568,642.1810
149.0,-1.157054,13.7568,642.1860
150.0,-1.165612,13.7868,642.1910
151.0,-1.180486,13.7868,642.1960
152.0,-1.190947,13.8174,642.2010
153.0,-1.206940,13.8174,642.2061
154.0,-1.217012,13.8474,642.2111
155.0,-1.232448,13.8474,642.2160
156.0,-1.243680,13.8793,642.2210
157.0,-1.262114,13.8793,642.2260
158.0,-1.271415,13.9086,642.2310
159.0,-1.279046,13.9086,642.2360
160.0,-1.282385,13.9386,642.2410
161.0,-1.288586,13.9386,642.2460
162.0,-1.294108,13.9686,642.2510
163.0,-1.304863,13.9686,642.2560
164.0,-1.313332,13.9986,642.2610
165.0,-1.327772,13.9986,642.2661
166.0,-1.336498,14.0286,642.2711
167.0,-1.349156,14.0286,642.2760
168.0,-1.357278,14.0592,642.2810
169.0,-1.369226,14.0592,642.2860
170.0,-1.376535,14.0892,642.2910
171.0,-1.387463,14.0892,642.2960
172.0,-1.394585,14.1198,642.3010
173.0,-1.398714,14.1198,642.3060
174.0,-1.399285,14.1198,642.3110
175.0,-1.400215,14.1498,642.3160
176.0,-1.401838,14.1498,642.3210
177.0,-1.400996,14.1817,642.3260
178.0,-1.400070,14.2117,642.3311
179.0,-1.400281,14.2117,642.3361
180.0,-1.402750,14.2423,642.3410
181.0,-1.409296,14.2423,642.3460
182.0,-1.414319,14.2723,642.3510
183.0,-1.415492,14.2723,642.3560
184.0,-1.408936,14.3023,642.3610
185.0,-1.393940,14.3023,642.3660
186.0,-1.385532,14.3317,642.3710
187.0,-1.377980,14.3317,642.3760
188.0,-1.372448,14.3623,642.3810
189.0,-1.362661,14.3623,642.3860
190.0,-1.357405,14.3923,642.3911
191.0,-1.347945,14.3923,642.3961
192.0,-1.339289,14.4230,642.4010
193.0,-1.329245,14.4230,642.4060
194.0,-1.321856,14.4530,642.4110
195.0,-1.307206,14.4530,642.4160
196.0,-1.299163,14.4836,642.4210
197.0,-1.289362,14.4836,642.4260
198.0,-1.276951,14.4836,642.4310
199.0,-1.249245,14.5155,642.4360
200.0,-1.228590,14.5155,642.4410
201.0,-1.194566,14.5455,642.4460
202.0,-1.172359,14.5749,642.4510
203.0,-1.133219,14.5750,642.4561
204.0,-1.107033,14.6050,642.4611
205.0,-1.068169,14.6050,642.4660
206.0,-1.042333,14.6350,642.4710
207.0,-1.003830,14.6350,642.4760
208.0,-0.977671,14.6650,642.4810
209.0,-0.945972,14.6651,642.4860
210.0,-0.930704,14.6957,642.4910
211.0,-0.914281,14.6957,642.4960
212.0,-0.900725,14.7257,642.5010
213.0,-0.864718,14.7257,642.5060
214.0,-0.833037,14.7564,642.5110
215.0,-0.779729,14.7564,642.5161
216.0,-0.747374,14.7564,642.5211
217.0,-0.715062,14.7865,642.5260
218.0,-0.702380,14.7865,642.5310
219.0,-0.691167,14.8183,642.5360
220.0,-0.682516,14.8477,642.5410
221.0,-0.666692,14.8477,642.5460
222.0,-0.658452,14.8777,642.5510
223.0,-0.636904,14.8777,642.5560
224.0,-0.608235,14.9078,642.5610
225.0,-0.566224,14.9078,642.5660
226.0,-0.545784,14.9378,642.5710
227.0,-0.526435,14.9378,642.5760
228.0,-0.515754,14.9678,642.5811
229.0,-0.495684,14.9678,642.5861
230.0,-0.482170,14.9985,642.5910
231.0,-0.455053,14.9985,642.5960
232.0,-0.432350,15.0285,642.6010
233.0,-0.394819,15.0285,642.6060
234.0,-0.369670,15.0285,642.6110
235.0,-0.343400,15.0592,642.6160
236.0,-0.331503,15.0592,642.6210
237.0,-0.309072,15.0904,642.6260
238.0,-0.289077,15.0905,642.6310
239.0,-0.258854,15.1205,642.6360
240.0,-0.242577,15.1505,642.6411
241.0,-0.217985,15.1505,642.6461
242.0,-0.202029,15.1805,642.6510
243.0,-0.185186,15.1805,642.6560
244.0,-0.179289,15.2105,642.6610
245.0,-0.173257,15.2105,642.6660
246.0,-0.170559,15.2412,642.6710
247.0,-0.167360,15.2412,642.6760
248.0,-0.166327,15.2712,642.6810
249.0,-0.152434,15.2712,642.6860
250.0,-0.127178,15.3018,642.6910
251.0,-0.080117,15.3018,642.6960
252.0,-0.053664,15.3018,642.7010
253.0,-0.027931,15.3319,642.7061
254.0,-0.017924,15.3319,642.7111
255.0,-0.009628,15.3637,642.7160
256.0,-0.007304,15.3637,642.7210
257.0,-0.005981,15.3937,642.7260
258.0,-0.005261,15.3937,642.7310
259.0,-0.005878,15.4237,642.7360
260.0,-0.006874,15.4531,642.7410
261.0,-0.005864,15.4531,642.7460
262.0,-0.005471,15.4837,642.7510
263.0,-0.005219,15.4837,642.7560
264.0,-0.006102,15.5137,642.7610
265.0,-0.006308,15.5137,642.7661
266.0,-0.006187,15.5444,642.7711
267.0,-0.005499,15.5444,642.7760
268.0,-0.005111,15.5744,642.7810
269.0,-0.004148,15.5744,642.7860
270.0,-0.004129,15.5744,642.7910
271.0,-0.004882,15.6050,642.7960
272.0,-0.006252,15.6050,642.8010
273.0,-0.006986,15.6369,642.8060
274.0,-0.006846,15.6369,642.8110
275.0,-0.005424,15.6662,642.8160
276.0,-0.004686,15.6662,642.8210
277.0,-0.005359,15.6962,642.8260
278.0,-0.005069,15.6962,642.8311
279.0,-0.005929,15.7262,642.8361
280.0,-0.006439,15.7562,642.8410
281.0,-0.005144,15.7562,642.8460
282.0,-0.004026,15.7862,642.8510
283.0,-0.002623,15.7862,642.8560
284.0,-0.003077,15.8169,642.8610
285.0,-0.004204,15.8169,642.8660
286.0,-0.005078,15.8469,642.8710
287.0,-0.006458,15.8469,642.8760
288.0,-0.006865,15.8769,642.8810
289.0,-0.005827,15.8769,642.8860
290.0,-0.004849,15.8769,642.8911
291.0,-0.004536,15.9075,642.8961
292.0,-0.005728,15.9075,642.9010
293.0,-0.006579,15.9394,642.9060
294.0,-0.005855,15.9394,642.9110
295.0,-0.005223,15.9688,642.9160
296.0,-0.006224,15.9687,642.9210
297.0,-0.006289,15.9987,642.9260
298.0,-0.006144,15.9987,642.9310
