Point No.,Normal Force [N],Gap [mm],Time [s]
1,4.096994,11.2174,1305.1030
2,4.097686,11.2174,1305.1080
3,4.098720,11.2174,1305.1130
4,4.098761,11.2174,1305.1180
5,4.097752,11.2174,1305.1230
6,4.097204,11.2174,1305.1280
7,4.095595,11.2180,1305.1330
8,4.093595,11.2180,1305.1380
9,4.090911,11.2199,1305.1420
10,4.083376,11.2199,1305.1470
11,4.074636,11.2230,1305.1520
12,4.060126,11.2230,1305.1571
13,4.048052,11.2280,1305.1621
14,4.025784,11.2280,1305.1671
15,4.013243,11.2324,1305.1721
16,3.984625,11.2324,1305.1781
17,3.958873,11.2386,1305.1831
18,3.936184,11.2386,1305.1881
19,3.908385,11.2429,1305.1931
20,3.885032,11.2429,1305.1981
21,3.853884,11.2479,1305.2030
22,3.829708,11.2479,1305.2080
23,3.800936,11.2529,1305.2130
24,3.776493,11.2529,1305.2180
25,3.746477,11.2578,1305.2230
26,3.721334,11.2578,1305.2280
27,3.694744,11.2628,1305.2330
28,3.672392,11.2628,1305.2380
29,3.645177,11.2678,1305.2430
30,3.622581,11.2678,1305.2470
31,3.607478,11.2728,1305.2520
32,3.573542,11.2727,1305.2570
33,3.558621,11.2777,1305.2620
34,3.524087,11.2777,1305.2670
35,3.510339,11.2827,1305.2720
36,3.476502,11.2827,1305.2770
37,3.461300,11.2877,1305.2821
38,3.427571,11.2876,1305.2871
39,3.414529,11.2926,1305.2921
40,3.382839,11.2926,1305.2971
41,3.368801,11.2976,1305.3020
42,3.334763,11.2976,1305.3070
43,3.322539,11.3026,1305.3120
44,3.289447,11.3026,1305.3170
45,3.276044,11.3076,1305.3220
46,3.242465,11.3075,1305.3270
47,3.229292,11.3125,1305.3320
48,3.196395,11.3125,1305.3370
49,3.182263,11.3175,1305.3420
50,3.149015,11.3175,1305.3470
51,3.138209,11.3225,1305.3520
52,3.107838,11.3225,1305.3570
53,3.095305,11.3275,1305.3620
54,3.063531,11.3274,1305.3670
55,3.051536,11.3324,1305.3720
56,3.019794,11.3324,1305.3770
57,3.007613,11.3374,1305.3820
58,2.976213,11.3374,1305.3870
59,2.965504,11.3424,1305.3920
60,2.934178,11.3424,1305.3970
61,2.920697,11.3473,1305.4020
62,2.887136,11.3473,1305.4071
63,2.874922,11.3523,1305.4121
64,2.842890,11.3523,1305.4171
65,2.830661,11.3573,1305.4221
66,2.800080,11.3573,1305.4270
67,2.790831,11.3623,1305.4320
68,2.761001,11.3623,1305.4370
69,2.749086,11.3672,1305.4420
70,2.718335,11.3672,1305.4470
71,2.707057,11.3722,1305.4520
72,2.675562,11.3722,1305.4570
73,2.663578,11.3778,1305.4620
74,2.631765,11.3778,1305.4670
75,2.621295,11.3822,1305.4720
76,2.589717,11.3822,1305.4770
77,2.577442,11.3871,1305.4820
78,2.546052,11.3871,1305.4870
79,2.535852,11.3915,1305.4920
80,2.507346,11.3915,1305.4970
81,2.496774,11.3971,1305.5020
82,2.465462,11.3971,1305.5070
83,2.454912,11.4021,1305.5120
84,2.424414,11.4021,1305.5170
85,2.412214,11.4070,1305.5220
86,2.382488,11.4070,1305.5270
87,2.372916,11.4114,1305.5321
88,2.346397,11.4114,1305.5371
89,2.335703,11.4170,1305.5421
90,2.307646,11.4170,1305.5471
91,2.298289,11.4220,1305.5520
92,2.271377,11.4220,1305.5570
93,2.260257,11.4270,1305.5620
94,2.233519,11.4269,1305.5670
95,2.224270,11.4319,1305.5720
96,2.196886,11.4319,1305.5770
97,2.186556,11.4369,1305.5820
98,2.157573,11.4369,1305.5870
99,2.148581,11.4419,1305.5920
100,2.121062,11.4419,1305.5970
101,2.110872,11.4469,1305.6020
102,2.082764,11.4469,1305.6070
103,2.072925,11.4512,1305.6120
104,2.043251,11.4512,1305.6170
105,2.031106,11.4568,1305.6220
106,2.000473,11.4568,1305.6270
107,1.991059,11.4618,1305.6320
108,1.962773,11.4618,1305.6370
109,1.951101,11.4668,1305.6420
110,1.921426,11.4668,1305.6470
111,1.911008,11.4718,1305.6520
112,1.881833,11.4717,1305.6571
113,1.870503,11.4767,1305.6621
114,1.839626,11.4767,1305.6671
115,1.829661,11.4817,1305.6721
116,1.801726,11.4817,1305.6770
117,1.790419,11.4867,1305.6820
118,1.760846,11.4867,1305.6870
119,1.749675,11.4917,1305.6920
120,1.720594,11.4916,1305.6970
121,1.709329,11.4966,1305.7020
122,1.679037,11.4966,1305.7070
123,1.669264,11.5016,1305.7120
124,1.641169,11.5016,1305.7170
125,1.630222,11.5066,1305.7220
126,1.601403,11.5066,1305.7270
127,1.591321,11.5109,1305.7320
128,1.562759,11.5109,1305.7370
129,1.551382,11.5172,1305.7420
130,1.521871,11.5171,1305.7470
131,1.512125,11.5215,1305.7520
132,1.483287,11.5215,1305.7570
133,1.471429,11.5265,1305.7620
134,1.441870,11.5265,1305.7670
135,1.431840,11.5315,1305.7720
136,1.404994,11.5315,1305.7770
137,1.394702,11.5364,1305.7821
138,1.366285,11.5364,1305.7871
139,1.356740,11.5414,1305.7921
140,1.329554,11.5414,1305.7971
141,1.319056,11.5464,1305.8020
142,1.292196,11.5464,1305.8070
143,1.281959,11.5508,1305.8120
144,1.255361,11.5507,1305.8170
145,1.245088,11.5564,1305.8220
146,1.217321,11.5563,1305.8270
147,1.207912,11.5613,1305.8320
148,1.181585,11.5613,1305.8370
149,1.171036,11.5663,1305.8420
150,1.143619,11.5663,1305.8470
151,1.133734,11.5713,1305.8520
152,1.106897,11.5713,1305.8570
153,1.095937,11.5763,1305.8620
154,1.067445,11.5763,1305.8670
155,1.057676,11.5812,1305.8720
156,1.032008,11.5812,1305.8770
157,1.021543,11.5862,1305.8820
158,0.995025,11.5862,1305.8870
159,0.985312,11.5906,1305.8920
160,0.959911,11.5906,1305.8970
161,0.949684,11.5962,1305.9020
162,0.922642,11.5962,1305.9071
163,0.913355,11.6012,1305.9121
164,0.887692,11.6012,1305.9171
165,0.876909,11.6011,1305.9221
166,0.850147,11.6061,1305.9270
167,0.840542,11.6111,1305.9320
168,0.815361,11.6111,1305.9370
169,0.804643,11.6161,1305.9420
170,0.778794,11.6161,1305.9470
171,0.770292,11.6211,1305.9520
172,0.745850,11.6211,1305.9570
173,0.735796,11.6261,1305.9620
174,0.710400,11.6260,1305.9670
175,0.701034,11.6304,1305.9720
176,0.676540,11.6304,1305.9770
177,0.666247,11.6360,1305.9820
178,0.640009,11.6360,1305.9870
179,0.630648,11.6410,1305.9920
180,0.605738,11.6410,1305.9970
181,0.594248,11.6460,1306.0020
182,0.565682,11.6460,1306.0070
183,0.555478,11.6460,1306.0120
184,0.530390,11.6503,1306.0170
185,0.519345,11.6503,1306.0220
186,0.492668,11.6559,1306.0270
187,0.483437,11.6609,1306.0321
188,0.459481,11.6609,1306.0371
189,0.449469,11.6659,1306.0421
190,0.425092,11.6659,1306.0471
191,0.414758,11.6709,1306.0520
192,0.391237,11.6709,1306.0570
193,0.380617,11.6758,1306.0620
194,0.359266,11.6758,1306.0670
195,0.352509,11.6808,1306.0720
196,0.338172,11.6808,1306.0770
197,0.333561,11.6858,1306.0820
198,0.316629,11.6858,1306.0870
199,0.310040,11.6902,1306.0920
200,0.292892,11.6902,1306.0970
201,0.285111,11.6958,1306.1020
202,0.260945,11.6958,1306.1070
203,0.249965,11.6958,1306.1120
204,0.228506,11.7008,1306.1170
205,0.220168,11.7008,1306.1220
206,0.201277,11.7057,1306.1270
207,0.195146,11.7107,1306.1320
208,0.175801,11.7107,1306.1370
209,0.166308,11.7157,1306.1420
210,0.144629,11.7157,1306.1470
211,0.133598,11.7207,1306.1520
212,0.109175,11.7207,1306.1571
213,0.097601,11.7257,1306.1621
214,0.076049,11.7257,1306.1671
215,0.070217,11.7300,1306.1721
216,0.052036,11.7300,1306.1770
217,0.044045,11.7357,1306.1820
218,0.023970,11.7356,1306.1870
219,0.016427,11.7406,1306.1920
220,-0.002474,11.7406,1306.1970
221,-0.011401,11.7406,1306.2020
222,-0.032177,11.7456,1306.2070
223,-0.039935,11.7456,1306.2120
224,-0.059458,11.7506,1306.2170
225,-0.068866,11.7506,1306.2220
226,-0.089385,11.7556,1306.2270
227,-0.097073,11.7606,1306.2320
228,-0.116058,11.7606,1306.2370
229,-0.124947,11.7656,1306.2420
230,-0.144667,11.7655,1306.2470
231,-0.152392,11.7699,1306.2520
232,-0.170765,11.7699,1306.2570
233,-0.179588,11.7755,1306.2620
234,-0.200421,11.7755,1306.2670
235,-0.208791,11.7805,1306.2720
236,-0.227683,11.7805,1306.2770
237,-0.236100,11.7849,1306.2821
238,-0.255506,11.7848,1306.2871
239,-0.263297,11.7848,1306.2921
240,-0.280594,11.7898,1306.2971
241,-0.289081,11.7898,1306.3020
242,-0.309048,11.7954,1306.3070
243,-0.317021,11.7954,1306.3120
244,-0.334505,11.8004,1306.3170
245,-0.342997,11.8004,1306.3220
246,-0.361917,11.8054,1306.3270
247,-0.370358,11.8098,1306.3320
248,-0.388543,11.8098,1306.3370
249,-0.397381,11.8148,1306.3420
250,-0.416123,11.8148,1306.3470
251,-0.423577,11.8197,1306.3520
252,-0.440486,11.8197,1306.3570
253,-0.447931,11.8247,1306.3620
254,-0.465841,11.8247,1306.3670
255,-0.473121,11.8297,1306.3720
256,-0.489544,11.8297,1306.3770
257,-0.498480,11.8347,1306.3820
258,-0.517087,11.8347,1306.3870
259,-0.524774,11.8347,1306.3920
260,-0.540706,11.8397,1306.3970
261,-0.548946,11.8397,1306.4020
262,-0.567033,11.8453,1306.4071
263,-0.575459,11.8453,1306.4121
264,-0.592719,11.8497,1306.4171
265,-0.601894,11.8496,1306.4221
266,-0.619294,11.8553,1306.4270
267,-0.626215,11.8596,1306.4320
268,-0.641356,11.8596,1306.4370
269,-0.649656,11.8646,1306.4420
270,-0.667075,11.8646,1306.4470
271,-0.674777,11.8696,1306.4520
272,-0.690288,11.8696,1306.4570
273,-0.698363,11.8746,1306.4620
274,-0.714833,11.8746,1306.4670
275,-0.722114,11.8796,1306.4720
276,-0.737536,11.8796,1306.4770
277,-0.745602,11.8796,1306.4820
278,-0.762530,11.8845,1306.4870
279,-0.770208,11.8845,1306.4920
280,-0.785111,11.8895,1306.4970
281,-0.793481,11.8895,1306.5020
282,-0.809876,11.8951,1306.5070
283,-0.817685,11.8951,1306.5120
284,-0.833042,11.8995,1306.5170
285,-0.840987,11.8995,1306.5220
286,-0.857278,11.9045,1306.5270
287,-0.864718,11.9045,1306.5321
288,-0.878934,11.9095,1306.5371
289,-0.886472,11.9095,1306.5421
290,-0.901328,11.9145,1306.5471
291,-0.908562,11.9145,1306.5520
292,-0.923657,11.9195,1306.5570
293,-0.932093,11.9195,1306.5620
294,-0.948314,11.9244,1306.5670
295,-0.956095,11.9244,1306.5720
296,-0.969689,11.9294,1306.5770
297,-0.977587,11.9294,1306.5820
298,-0.993089,11.9350,1306.5870
299,-1.001235,11.9350,1306.5920
300,-1.015469,11.9394,1306.5970
301,-1.023091,11.9394,1306.6020
302,-1.038059,11.9444,1306.6070
303,-1.045424,11.9444,1306.6120
304,-1.057765,11.9494,1306.6170
305,-1.065228,11.9494,1306.6220
306,-1.078270,11.9544,1306.6270
307,-1.084237,11.9544,1306.6320
308,-1.095399,11.9594,1306.6370
309,-1.101712,11.9594,1306.6420
310,-1.113547,11.9643,1306.6470
311,-1.119696,11.9643,1306.6520
312,-1.130886,11.9693,1306.6571
313,-1.138709,11.9693,1306.6621
314,-1.152313,11.9743,1306.6671
315,-1.158845,11.9743,1306.6721
316,-1.169399,11.9799,1306.6770
317,-1.175857,11.9799,1306.6820
318,-1.187197,11.9843,1306.6870
319,-1.192897,11.9843,1306.6920
320,-1.203634,11.9893,1306.6970
321,-1.210868,11.9893,1306.7020
322,-1.223283,11.9943,1306.7070
323,-1.229104,11.9943,1306.7120
324,-1.239322,11.9993,1306.7170
325,-1.245448,11.9993,1306.7220
326,-1.256432,12.0043,1306.7270
327,-1.261908,12.0043,1306.7320
328,-1.271260,12.0093,1306.7370
329,-1.277891,12.0092,1306.7420
330,-1.289974,12.0142,1306.7470
331,-1.295880,12.0142,1306.7520
332,-1.304601,12.0192,1306.7570
333,-1.310924,12.0192,1306.7620
334,-1.322567,12.0242,1306.7670
335,-1.329521,12.0242,1306.7720
336,-1.339556,12.0292,1306.7770
337,-1.346533,12.0292,1306.7821
338,-1.357872,12.0342,1306.7871
339,-1.363610,12.0342,1306.7921
340,-1.372163,12.0392,1306.7971
341,-1.378658,12.0392,1306.8020
342,-1.388894,12.0442,1306.8070
343,-1.394688,12.0442,1306.8120
344,-1.402712,12.0485,1306.8170
345,-1.409329,12.0485,1306.8220
346,-1.419906,12.0542,1306.8270
347,-1.425775,12.0542,1306.8320
348,-1.434833,12.0592,1306.8370
349,-1.442090,12.0591,1306.8420
350,-1.453650,12.0641,1306.8470
351,-1.460949,12.0641,1306.8520
352,-1.470947,12.0685,1306.8570
353,-1.478953,12.0685,1306.8620
354,-1.489264,12.0741,1306.8670
355,-1.495675,12.0741,1306.8720
356,-1.504428,12.0791,1306.8770
357,-1.511709,12.0791,1306.8820
358,-1.523101,12.0841,1306.8870
359,-1.529633,12.0841,1306.8920
360,-1.536539,12.0885,1306.8970
361,-1.542254,12.0885,1306.9020
362,-1.549862,12.0941,1306.9071
363,-1.554861,12.0941,1306.9121
364,-1.561426,12.0991,1306.9171
365,-1.568445,12.0991,1306.9221
366,-1.579771,12.1034,1306.9270
367,-1.587777,12.1034,1306.9320
368,-1.597877,12.1084,1306.9370
369,-1.606350,12.1084,1306.9420
370,-1.617639,12.1140,1306.9470
371,-1.624615,12.1140,1306.9520
372,-1.632457,12.1190,1306.9570
373,-1.639401,12.1190,1306.9620
374,-1.650638,12.1234,1306.9670
375,-1.658560,12.1234,1306.9720
376,-1.667571,12.1290,1306.9770
377,-1.675549,12.1290,1306.9820
378,-1.686809,12.1340,1306.9870
379,-1.694865,12.1340,1306.9920
380,-1.703535,12.1390,1306.9970
381,-1.711344,12.1390,1307.0020
382,-1.722217,12.1434,1307.0070
383,-1.729614,12.1434,1307.0120
384,-1.738074,12.1483,1307.0170
385,-1.746056,12.1483,1307.0220
386,-1.756395,12.1533,1307.0270
387,-1.764755,12.1533,1307.0321
388,-1.773215,12.1583,1307.0371
389,-1.780945,12.1583,1307.0421
390,-1.791840,12.1633,1307.0471
391,-1.799996,12.1633,1307.0520
392,-1.808595,12.1683,1307.0570
393,-1.817592,12.1683,1307.0620
394,-1.828693,12.1739,1307.0670
395,-1.836979,12.1739,1307.0720
396,-1.844181,12.1789,1307.0770
397,-1.851681,12.1789,1307.0820
398,-1.861946,12.1839,1307.0870
399,-1.869862,12.1839,1307.0920
400,-1.877756,12.1883,1307.0970
401,-1.886275,12.1883,1307.1020
402,-1.895310,12.1933,1307.1070
403,-1.903072,12.1933,1307.1120
404,-1.910316,12.1982,1307.1170
405,-1.918541,12.1982,1307.1220
406,-1.928675,12.2032,1307.1270
407,-1.936629,12.2032,1307.1320
408,-1.944185,12.2082,1307.1370
409,-1.952756,12.2082,1307.1420
410,-1.961740,12.2132,1307.1470
411,-1.969338,12.2132,1307.1520
412,-1.976643,12.2188,1307.1571
413,-1.985102,12.2188,1307.1621
414,-1.994767,12.2238,1307.1671
415,-2.003278,12.2238,1307.1721
416,-2.011083,12.2288,1307.1781
417,-2.020066,12.2332,1307.1831
418,-2.028178,12.2332,1307.1881
419,-2.035311,12.2382,1307.1931
420,-2.042006,12.2382,1307.1981
421,-2.049119,12.2432,1307.2030
422,-2.057924,12.2432,1307.2080
423,-2.065724,12.2482,1307.2130
424,-2.072738,12.2482,1307.2180
425,-2.081436,12.2531,1307.2230
426,-2.089638,12.2531,1307.2280
427,-2.096914,12.2581,1307.2330
428,-2.103587,12.2581,1307.2380
429,-2.111840,12.2631,1307.2430
430,-2.119476,12.2631,1307.2480
431,-2.126724,12.2687,1307.2530
432,-2.133360,12.2687,1307.2580
433,-2.141791,12.2737,1307.2630
434,-2.149217,12.2737,1307.2680
435,-2.156419,12.2787,1307.2730
436,-2.162853,12.2787,1307.2780
437,-2.170143,12.2831,1307.2830
438,-2.177578,12.2831,1307.2880
439,-2.185149,12.2881,1307.2930
440,-2.191415,12.2881,1307.2980
441,-2.199079,12.2931,1307.3031
442,-2.204471,12.2931,1307.3081
443,-2.207795,12.2981,1307.3131
444,-2.211381,12.2981,1307.3181
445,-2.217105,12.3031,1307.3231
446,-2.223708,12.3031,1307.3280
447,-2.228184,12.3081,1307.3330
448,-2.228146,12.3081,1307.3380
449,-2.226449,12.3137,1307.3430
450,-2.228184,12.3137,1307.3480
451,-2.229857,12.3187,1307.3530
452,-2.233192,12.3187,1307.3580
453,-2.239004,12.3231,1307.3630
454,-2.244789,12.3231,1307.3680
455,-2.250713,12.3280,1307.3730
456,-2.255440,12.3280,1307.3780
457,-2.263418,12.3330,1307.3830
458,-2.269783,12.3330,1307.3880
459,-2.276970,12.3380,1307.3930
460,-2.281450,12.3380,1307.3980
461,-2.289193,12.3430,1307.4030
462,-2.295726,12.3430,1307.4080
463,-2.302783,12.3480,1307.4130
464,-2.306870,12.3480,1307.4180
465,-2.314010,12.3530,1307.4230
466,-2.319341,12.3530,1307.4281
467,-2.324106,12.3586,1307.4331
468,-2.325177,12.3586,1307.4381
469,-2.324686,12.3636,1307.4431
470,-2.324878,12.3636,1307.4481
471,-2.325401,12.3680,1307.4530
472,-2.327300,12.3680,1307.4580
473,-2.334435,12.3730,1307.4630
474,-2.340112,12.3730,1307.4680
475,-2.348039,12.3780,1307.4730
476,-2.352369,12.3780,1307.4780
477,-2.359669,12.3830,1307.4830
478,-2.364662,12.3830,1307.4880
479,-2.371382,12.3880,1307.4930
480,-2.376081,12.3880,1307.4980
481,-2.385266,12.3930,1307.5030
482,-2.391256,12.3930,1307.5080
483,-2.398971,12.3980,1307.5130
484,-2.403007,12.3980,1307.5180
485,-2.409713,12.4030,1307.5230
486,-2.414712,12.4030,1307.5280
487,-2.422207,12.4086,1307.5330
488,-2.426907,12.4086,1307.5380
489,-2.436367,12.4136,1307.5430
490,-2.441263,12.4136,1307.5480
491,-2.447529,12.4186,1307.5531
492,-2.449245,12.4186,1307.5581
493,-2.453355,12.4229,1307.5631
494,-2.456049,12.4229,1307.5681
495,-2.461202,12.4279,1307.5731
496,-2.462628,12.4279,1307.5780
497,-2.463217,12.4329,1307.5830
498,-2.462147,12.4329,1307.5880
499,-2.463156,12.4379,1307.5930
500,-2.463919,12.4379,1307.5980
501,-2.469507,12.4429,1307.6030
502,-2.473982,12.4429,1307.6080
503,-2.482123,12.4479,1307.6130
504,-2.485672,12.4479,1307.6180
505,-2.493917,12.4535,1307.6230
506,-2.497381,12.4535,1307.6280
507,-2.503035,12.4585,1307.6330
508,-2.505163,12.4585,1307.6380
509,-2.512598,12.4629,1307.6430
510,-2.517339,12.4629,1307.6480
511,-2.524732,12.4679,1307.6530
512,-2.527379,12.4679,1307.6580
513,-2.534777,12.4729,1307.6630
514,-2.537690,12.4729,1307.6680
515,-2.543087,12.4779,1307.6730
516,-2.541744,12.4779,1307.6781
517,-2.542853,12.4829,1307.6831
518,-2.543629,12.4829,1307.6881
519,-2.547566,12.4879,1307.6931
520,-2.548450,12.4879,1307.6981
521,-2.554473,12.4929,1307.7030
522,-2.555633,12.4929,1307.7080
523,-2.558985,12.4985,1307.7130
524,-2.558672,12.4985,1307.7180
525,-2.564227,12.5035,1307.7230
526,-2.566846,12.5035,1307.7280
527,-2.571821,12.5079,1307.7330
528,-2.571041,12.5079,1307.7380
529,-2.572331,12.5129,1307.7430
530,-2.570910,12.5129,1307.7480
531,-2.573519,12.5179,1307.7530
532,-2.573290,12.5179,1307.7580
533,-2.579645,12.5229,1307.7630
534,-2.582296,12.5229,1307.7680
535,-2.582689,12.5278,1307.7730
536,-2.577737,12.5279,1307.7780
537,-2.577896,12.5329,1307.7830
538,-2.576881,12.5329,1307.7880
539,-2.576704,12.5379,1307.7930
540,-2.572434,12.5379,1307.7980
541,-2.573692,12.5435,1307.8031
542,-2.573337,12.5435,1307.8081
543,-2.573136,12.5485,1307.8131
544,-2.569306,12.5485,1307.8181
545,-2.571873,12.5535,1307.8231
546,-2.572060,12.5535,1307.8280
547,-2.577653,12.5579,1307.8330
548,-2.576530,12.5579,1307.8380
549,-2.578546,12.5629,1307.8430
550,-2.577577,12.5629,1307.8480
551,-2.580514,12.5679,1307.8530
552,-2.580061,12.5679,1307.8580
553,-2.587412,12.5728,1307.8630
554,-2.589806,12.5728,1307.8680
555,-2.598532,12.5778,1307.8730
556,-2.599060,12.5778,1307.8780
557,-2.606804,12.5828,1307.8830
558,-2.609535,12.5828,1307.8880
559,-2.616914,12.5878,1307.8930
560,-2.618616,12.5878,1307.8980
561,-2.627861,12.5935,1307.9030
562,-2.627482,12.5935,1307.9080
563,-2.627908,12.5984,1307.9130
564,-2.623287,12.5985,1307.9180
565,-2.626229,12.6028,1307.9230
566,-2.627248,12.6028,1307.9281
567,-2.635104,12.6078,1307.9331
568,-2.635819,12.6078,1307.9381
569,-2.643732,12.6128,1307.9431
570,-2.644957,12.6128,1307.9481
571,-2.652172,12.6178,1307.9530
572,-2.651981,12.6178,1307.9580
573,-2.659921,12.6228,1307.9630
574,-2.662530,12.6228,1307.9680
575,-2.671429,12.6278,1307.9730
576,-2.672443,12.6278,1307.9780
577,-2.680664,12.6328,1307.9830
578,-2.681843,12.6328,1307.9880
579,-2.689637,12.6384,1307.9930
580,-2.689787,12.6384,1307.9980
581,-2.698289,12.6434,1308.0030
582,-2.700575,12.6434,1308.0080
583,-2.708445,12.6478,1308.0130
584,-2.708931,12.6478,1308.0180
585,-2.717466,12.6528,1308.0230
586,-2.718714,12.6528,1308.0280
587,-2.727169,12.6578,1308.0330
588,-2.726566,12.6578,1308.0380
589,-2.735338,12.6628,1308.0430
590,-2.737900,12.6628,1308.0480
591,-2.746398,12.6678,1308.0531
592,-2.746398,12.6678,1308.0581
593,-2.755001,12.6728,1308.0631
594,-2.756680,12.6727,1308.0681
595,-2.765757,12.6777,1308.0731
596,-2.765074,12.6777,1308.0780
597,-2.770269,12.6777,1308.0830
598,-2.765785,12.6834,1308.0880
599,-2.762572,12.6877,1308.0930
600,-2.756194,12.6877,1308.0980
601,-2.759579,12.6927,1308.1030
602,-2.759060,12.6927,1308.1080
603,-2.766079,12.6977,1308.1130
604,-2.764055,12.6977,1308.1180
605,-2.767711,12.7027,1308.1230
606,-2.762286,12.7027,1308.1280
607,-2.761244,12.7077,1308.1330
608,-2.756493,12.7077,1308.1380
609,-2.760861,12.7127,1308.1430
610,-2.759911,12.7127,1308.1480
611,-2.765523,12.7177,1308.1530
612,-2.759387,12.7177,1308.1580
613,-2.755773,12.7227,1308.1630
614,-2.750297,12.7228,1308.1680
