Point No.,Normal Force [N],Gap [mm],Time [s]
1,4.104345,11.2168,1173.8391
2,4.104522,11.2168,1173.8441
3,4.105089,11.2168,1173.8489
4,4.105462,11.2168,1173.8540
5,4.105247,11.2168,1173.8590
6,4.103657,11.2168,1173.8640
7,4.102114,11.2180,1173.8690
8,4.099649,11.2180,1173.8740
9,4.095586,11.2199,1173.8780
10,4.086973,11.2199,1173.8830
11,4.077770,11.2230,1173.8880
12,4.061772,11.2230,1173.8930
13,4.047235,11.2280,1173.8980
14,4.023428,11.2280,1173.9030
15,4.008557,11.2330,1173.9080
16,3.981548,11.2330,1173.9140
17,3.954122,11.2380,1173.9190
18,3.932986,11.2379,1173.9240
19,3.902633,11.2429,1173.9290
20,3.880412,11.2429,1173.9340
21,3.848044,11.2479,1173.9390
22,3.826056,11.2479,1173.9440
23,3.796250,11.2529,1173.9490
24,3.773664,11.2529,1173.9541
25,3.743157,11.2578,1173.9591
26,3.719963,11.2578,1173.9641
27,3.691335,11.2628,1173.9691
28,3.670480,11.2628,1173.9739
29,3.641080,11.2678,1173.9790
30,3.621001,11.2678,1173.9830
31,3.605874,11.2728,1173.9880
32,3.573341,11.2727,1173.9930
33,3.556671,11.2777,1173.9980
34,3.521669,11.2777,1174.0030
35,3.507328,11.2827,1174.0080
36,3.476086,11.2827,1174.0130
37,3.461478,11.2877,1174.0180
38,3.429147,11.2876,1174.0230
39,3.414791,11.2926,1174.0280
40,3.380617,11.2926,1174.0330
41,3.364990,11.2976,1174.0380
42,3.331541,11.2976,1174.0430
43,3.318878,11.3026,1174.0480
44,3.287800,11.3026,1174.0531
45,3.273477,11.3076,1174.0581
46,3.240430,11.3075,1174.0631
47,3.227253,11.3125,1174.0681
48,3.194468,11.3125,1174.0729
49,3.180328,11.3175,1174.0780
50,3.147618,11.3175,1174.0830
51,3.135726,11.3225,1174.0880
52,3.105462,11.3225,1174.0930
53,3.091434,11.3274,1174.0980
54,3.059144,11.3274,1174.1030
55,3.046907,11.3324,1174.1080
56,3.016030,11.3324,1174.1130
57,3.003521,11.3380,1174.1180
58,2.971681,11.3380,1174.1230
59,2.960257,11.3424,1174.1280
60,2.929109,11.3424,1174.1330
61,2.915142,11.3473,1174.1380
62,2.882927,11.3473,1174.1430
63,2.871237,11.3523,1174.1480
64,2.839944,11.3523,1174.1530
65,2.828244,11.3573,1174.1580
66,2.797124,11.3573,1174.1630
67,2.785850,11.3623,1174.1680
68,2.755301,11.3623,1174.1730
69,2.743236,11.3672,1174.1781
70,2.713888,11.3672,1174.1831
71,2.703970,11.3722,1174.1881
72,2.674791,11.3722,1174.1931
73,2.663554,11.3772,1174.1979
74,2.630779,11.3772,1174.2030
75,2.619687,11.3822,1174.2080
76,2.589161,11.3822,1174.2130
77,2.577231,11.3871,1174.2180
78,2.546907,11.3871,1174.2230
79,2.536886,11.3921,1174.2280
80,2.506491,11.3921,1174.2330
81,2.494393,11.3971,1174.2380
82,2.462189,11.3971,1174.2430
83,2.452392,11.4021,1174.2480
84,2.423451,11.4021,1174.2530
85,2.411883,11.4070,1174.2580
86,2.381861,11.4070,1174.2630
87,2.371836,11.4120,1174.2680
88,2.343770,11.4120,1174.2730
89,2.332826,11.4170,1174.2780
90,2.304760,11.4170,1174.2830
91,2.296750,11.4220,1174.2880
92,2.270928,11.4220,1174.2930
93,2.260762,11.4276,1174.2980
94,2.233496,11.4276,1174.3031
95,2.223905,11.4319,1174.3081
96,2.195520,11.4319,1174.3131
97,2.185874,11.4375,1174.3181
98,2.156989,11.4375,1174.3229
99,2.149348,11.4419,1174.3280
100,2.121955,11.4419,1174.3330
101,2.111331,11.4469,1174.3380
102,2.081656,11.4469,1174.3430
103,2.071110,11.4518,1174.3480
104,2.040136,11.4518,1174.3530
105,2.029694,11.4568,1174.3580
106,1.999645,11.4568,1174.3630
107,1.990713,11.4618,1174.3680
108,1.961066,11.4618,1174.3730
109,1.950058,11.4668,1174.3780
110,1.919570,11.4668,1174.3830
111,1.909170,11.4718,1174.3880
112,1.879916,11.4717,1174.3930
113,1.869399,11.4767,1174.3980
114,1.839266,11.4767,1174.4030
115,1.830377,11.4817,1174.4080
116,1.800744,11.4817,1174.4130
117,1.788478,11.4867,1174.4180
118,1.757396,11.4867,1174.4230
119,1.747374,11.4917,1174.4281
120,1.719065,11.4916,1174.4331
121,1.708880,11.4966,1174.4381
122,1.679224,11.4966,1174.4431
123,1.670629,11.5016,1174.4479
124,1.641104,11.5016,1174.4530
125,1.629900,11.5066,1174.4580
126,1.600225,11.5066,1174.4630
127,1.590386,11.5116,1174.4680
128,1.560505,11.5115,1174.4730
129,1.549516,11.5165,1174.4780
130,1.519112,11.5165,1174.4830
131,1.509647,11.5215,1174.4880
132,1.480519,11.5215,1174.4930
133,1.470306,11.5271,1174.4980
134,1.441440,11.5271,1174.5030
135,1.431934,11.5315,1174.5080
136,1.402399,11.5315,1174.5130
137,1.391822,11.5364,1174.5180
138,1.362408,11.5364,1174.5230
139,1.354042,11.5414,1174.5280
140,1.326757,11.5414,1174.5330
141,1.316867,11.5464,1174.5380
142,1.288941,11.5464,1174.5430
143,1.280000,11.5514,1174.5480
144,1.251882,11.5514,1174.5531
145,1.241950,11.5564,1174.5581
146,1.213421,11.5563,1174.5631
147,1.205209,11.5613,1174.5681
148,1.178513,11.5613,1174.5729
149,1.168328,11.5663,1174.5780
150,1.140196,11.5663,1174.5830
151,1.131840,11.5713,1174.5880
152,1.104966,11.5713,1174.5930
153,1.095917,11.5769,1174.5980
154,1.068080,11.5769,1174.6030
155,1.060444,11.5812,1174.6080
156,1.033706,11.5812,1174.6130
157,1.023362,11.5862,1174.6180
158,0.994772,11.5862,1174.6230
159,0.985537,11.5912,1174.6280
160,0.957194,11.5912,1174.6330
161,0.947141,11.5962,1174.6380
162,0.919542,11.5962,1174.6430
163,0.912041,11.6012,1174.6480
164,0.886046,11.6011,1174.6530
165,0.876666,11.6061,1174.6580
166,0.849708,11.6061,1174.6630
167,0.841174,11.6111,1174.6680
168,0.814239,11.6111,1174.6730
169,0.805289,11.6161,1174.6781
170,0.778242,11.6161,1174.6831
171,0.770283,11.6211,1174.6881
172,0.743540,11.6211,1174.6931
173,0.733327,11.6261,1174.6979
174,0.706612,11.6260,1174.7030
175,0.699163,11.6310,1174.7080
176,0.674431,11.6310,1174.7130
177,0.665457,11.6360,1174.7180
178,0.637522,11.6360,1174.7230
179,0.629549,11.6410,1174.7280
180,0.604213,11.6410,1174.7330
181,0.594655,11.6460,1174.7380
182,0.566093,11.6460,1174.7430
183,0.556619,11.6510,1174.7480
184,0.528988,11.6509,1174.7530
185,0.518850,11.6559,1174.7580
186,0.490442,11.6559,1174.7630
187,0.482076,11.6609,1174.7680
188,0.456381,11.6609,1174.7730
189,0.446673,11.6659,1174.7780
190,0.422076,11.6659,1174.7830
191,0.414085,11.6709,1174.7880
192,0.389334,11.6709,1174.7930
193,0.382001,11.6759,1174.7980
194,0.361679,11.6758,1174.8031
195,0.356783,11.6808,1174.8081
196,0.340257,11.6808,1174.8131
197,0.334884,11.6858,1174.8181
198,0.315558,11.6858,1174.8229
199,0.309376,11.6902,1174.8280
200,0.290194,11.6902,1174.8330
201,0.283198,11.6958,1174.8380
202,0.261889,11.6958,1174.8430
203,0.256802,11.7008,1174.8480
204,0.233972,11.7008,1174.8530
205,0.225738,11.7058,1174.8580
206,0.203788,11.7057,1174.8630
207,0.199364,11.7101,1174.8680
208,0.178130,11.7101,1174.8730
209,0.170685,11.7157,1174.8780
210,0.147884,11.7157,1174.8830
211,0.143661,11.7207,1174.8880
212,0.120486,11.7207,1174.8930
213,0.111854,11.7257,1174.8980
214,0.086266,11.7257,1174.9030
215,0.078429,11.7300,1174.9080
216,0.055305,11.7300,1174.9130
217,0.046374,11.7357,1174.9180
218,0.022058,11.7356,1174.9230
219,0.015015,11.7406,1174.9281
220,-0.006809,11.7406,1174.9331
221,-0.014576,11.7456,1174.9381
222,-0.036423,11.7456,1174.9431
223,-0.042305,11.7500,1174.9479
224,-0.062436,11.7500,1174.9530
225,-0.069366,11.7556,1174.9580
226,-0.091410,11.7556,1174.9630
227,-0.097232,11.7606,1174.9680
228,-0.117896,11.7606,1174.9730
229,-0.125055,11.7656,1174.9780
230,-0.147337,11.7655,1174.9830
231,-0.153795,11.7699,1174.9880
232,-0.173645,11.7699,1174.9930
233,-0.180430,11.7755,1174.9980
234,-0.202076,11.7755,1175.0030
235,-0.207585,11.7805,1175.0080
236,-0.226911,11.7805,1175.0130
237,-0.234641,11.7849,1175.0180
238,-0.256946,11.7848,1175.0230
239,-0.262965,11.7898,1175.0280
240,-0.281992,11.7898,1175.0330
241,-0.288370,11.7955,1175.0380
242,-0.309666,11.7954,1175.0430
243,-0.315286,11.8004,1175.0480
244,-0.335876,11.8004,1175.0531
245,-0.343400,11.8054,1175.0581
246,-0.363372,11.8054,1175.0631
247,-0.369151,11.8104,1175.0681
248,-0.388370,11.8104,1175.0729
249,-0.395240,11.8154,1175.0780
250,-0.416638,11.8154,1175.0830
251,-0.422212,11.8204,1175.0880
252,-0.441838,11.8204,1175.0930
253,-0.448642,11.8247,1175.0980
254,-0.468983,11.8247,1175.1030
255,-0.474650,11.8297,1175.1080
256,-0.493313,11.8297,1175.1130
257,-0.499799,11.8347,1175.1180
258,-0.519518,11.8347,1175.1230
259,-0.524424,11.8397,1175.1280
260,-0.542567,11.8397,1175.1330
261,-0.548997,11.8447,1175.1380
262,-0.569128,11.8447,1175.1430
263,-0.575605,11.8497,1175.1480
264,-0.594655,11.8496,1175.1530
265,-0.600860,11.8553,1175.1580
266,-0.619504,11.8553,1175.1630
267,-0.623895,11.8603,1175.1680
268,-0.642329,11.8602,1175.1730
269,-0.649324,11.8646,1175.1781
270,-0.669324,11.8646,1175.1831
271,-0.675174,11.8696,1175.1881
272,-0.692672,11.8696,1175.1931
273,-0.698265,11.8746,1175.1979
274,-0.716025,11.8746,1175.2030
275,-0.720898,11.8796,1175.2080
276,-0.738794,11.8796,1175.2130
277,-0.745873,11.8846,1175.2180
278,-0.765873,11.8845,1175.2230
279,-0.771531,11.8895,1175.2280
280,-0.788520,11.8895,1175.2330
281,-0.794543,11.8945,1175.2380
282,-0.812256,11.8945,1175.2430
283,-0.816731,11.9001,1175.2480
284,-0.833659,11.9001,1175.2530
285,-0.840094,11.9051,1175.2580
286,-0.858878,11.9051,1175.2630
287,-0.863713,11.9095,1175.2680
288,-0.880089,11.9095,1175.2730
289,-0.886509,11.9145,1175.2780
290,-0.905326,11.9145,1175.2830
291,-0.910839,11.9195,1175.2880
292,-0.927080,11.9195,1175.2930
293,-0.932551,11.9245,1175.2980
294,-0.949661,11.9244,1175.3031
295,-0.954847,11.9294,1175.3081
296,-0.971789,11.9294,1175.3131
297,-0.978695,11.9344,1175.3181
298,-0.997190,11.9344,1175.3229
299,-1.002469,11.9394,1175.3280
300,-1.017583,11.9394,1175.3330
301,-1.022521,11.9450,1175.3380
302,-1.039191,11.9450,1175.3430
303,-1.044325,11.9494,1175.3480
304,-1.058971,11.9494,1175.3530
305,-1.064185,11.9544,1175.3580
306,-1.078635,11.9544,1175.3630
307,-1.081810,11.9594,1175.3680
308,-1.094304,11.9594,1175.3730
309,-1.099472,11.9644,1175.3780
310,-1.114955,11.9643,1175.3830
311,-1.120328,11.9693,1175.3880
312,-1.134211,11.9693,1175.3930
313,-1.139411,11.9743,1175.3980
314,-1.153856,11.9743,1175.4030
315,-1.158036,11.9793,1175.4080
316,-1.170629,11.9793,1175.4130
317,-1.175230,11.9843,1175.4180
318,-1.189128,11.9843,1175.4230
319,-1.193028,11.9843,1175.4281
320,-1.205116,11.9893,1175.4331
321,-1.209245,11.9893,1175.4381
322,-1.222324,11.9949,1175.4431
323,-1.225868,11.9993,1175.4479
324,-1.239668,11.9993,1175.4530
325,-1.244124,12.0043,1175.4580
326,-1.257466,12.0043,1175.4630
327,-1.260211,12.0093,1175.4680
328,-1.271069,12.0093,1175.4730
329,-1.274819,12.0142,1175.4780
330,-1.288782,12.0142,1175.4830
331,-1.293047,12.0192,1175.4880
332,-1.306827,12.0192,1175.4930
333,-1.311756,12.0242,1175.4980
334,-1.325574,12.0242,1175.5030
335,-1.329053,12.0292,1175.5080
336,-1.341917,12.0292,1175.5130
337,-1.347220,12.0342,1175.5180
338,-1.361436,12.0342,1175.5230
339,-1.364414,12.0392,1175.5280
340,-1.374786,12.0392,1175.5330
341,-1.377461,12.0392,1175.5380
342,-1.388641,12.0442,1175.5430
343,-1.391504,12.0442,1175.5480
344,-1.402895,12.0492,1175.5531
345,-1.407809,12.0542,1175.5581
346,-1.421707,12.0542,1175.5631
347,-1.425018,12.0592,1175.5681
348,-1.436198,12.0592,1175.5729
349,-1.440285,12.0642,1175.5780
350,-1.453308,12.0641,1175.5830
351,-1.457648,12.0685,1175.5880
352,-1.470414,12.0685,1175.5930
353,-1.476352,12.0741,1175.5980
354,-1.490835,12.0741,1175.6030
355,-1.494679,12.0791,1175.6080
356,-1.505714,12.0791,1175.6130
357,-1.510035,12.0841,1175.6180
358,-1.523732,12.0841,1175.6230
359,-1.528637,12.0885,1175.6280
360,-1.540720,12.0885,1175.6330
361,-1.545668,12.0941,1175.6380
362,-1.557377,12.0941,1175.6430
363,-1.558560,12.0941,1175.6480
364,-1.566327,12.0991,1175.6530
365,-1.569610,12.0991,1175.6580
366,-1.581903,12.1041,1175.6630
367,-1.586196,12.1041,1175.6680
368,-1.597601,12.1091,1175.6730
369,-1.602750,12.1141,1175.6781
370,-1.615389,12.1140,1175.6831
371,-1.619275,12.1190,1175.6881
372,-1.631017,12.1190,1175.6931
373,-1.636615,12.1234,1175.6979
374,-1.650470,12.1234,1175.7030
375,-1.655394,12.1284,1175.7080
376,-1.666388,12.1284,1175.7130
377,-1.671452,12.1334,1175.7180
378,-1.683690,12.1334,1175.7230
379,-1.687529,12.1390,1175.7280
380,-1.698756,12.1390,1175.7330
381,-1.704597,12.1440,1175.7380
382,-1.718602,12.1440,1175.7430
383,-1.723484,12.1440,1175.7480
384,-1.734421,12.1484,1175.7530
385,-1.739724,12.1483,1175.7580
386,-1.752055,12.1540,1175.7630
387,-1.756469,12.1540,1175.7680
388,-1.767099,12.1590,1175.7730
389,-1.772149,12.1640,1175.7780
390,-1.785902,12.1639,1175.7830
391,-1.791181,12.1683,1175.7880
392,-1.802563,12.1683,1175.7930
393,-1.808623,12.1733,1175.7980
394,-1.820884,12.1733,1175.8031
395,-1.826088,12.1783,1175.8081
396,-1.837049,12.1783,1175.8131
397,-1.842750,12.1833,1175.8181
398,-1.855778,12.1833,1175.8229
399,-1.861595,12.1883,1175.8280
400,-1.872602,12.1883,1175.8330
401,-1.878064,12.1883,1175.8380
402,-1.889970,12.1933,1175.8430
403,-1.894492,12.1933,1175.8480
404,-1.904237,12.1989,1175.8530
405,-1.909787,12.1989,1175.8580
406,-1.921422,12.2039,1175.8630
407,-1.926636,12.2039,1175.8680
408,-1.937283,12.2082,1175.8730
409,-1.943634,12.2132,1175.8780
410,-1.955801,12.2132,1175.8830
411,-1.960524,12.2182,1175.8880
412,-1.969399,12.2182,1175.8930
413,-1.974328,12.2232,1175.8980
414,-1.985901,12.2232,1175.9030
415,-1.991513,12.2282,1175.9080
416,-2.001791,12.2282,1175.9140
417,-2.009044,12.2332,1175.9190
418,-2.019827,12.2332,1175.9240
419,-2.023474,12.2382,1175.9290
420,-2.032659,12.2382,1175.9340
421,-2.038929,12.2438,1175.9390
422,-2.050236,12.2438,1175.9440
423,-2.055735,12.2488,1175.9490
424,-2.065195,12.2488,1175.9541
425,-2.071331,12.2538,1175.9591
426,-2.081487,12.2538,1175.9641
427,-2.085644,12.2588,1175.9691
428,-2.094566,12.2588,1175.9739
429,-2.100042,12.2631,1175.9790
430,-2.110049,12.2631,1175.9840
431,-2.114763,12.2681,1175.9890
432,-2.124246,12.2681,1175.9940
433,-2.131330,12.2731,1175.9990
434,-2.141547,12.2731,1176.0040
435,-2.145728,12.2781,1176.0090
436,-2.154052,12.2781,1176.0140
437,-2.158098,12.2831,1176.0190
438,-2.165467,12.2831,1176.0240
439,-2.167010,12.2881,1176.0290
440,-2.174300,12.2881,1176.0340
441,-2.179210,12.2937,1176.0390
442,-2.188282,12.2937,1176.0440
443,-2.190900,12.2987,1176.0490
444,-2.197812,12.2987,1176.0540
445,-2.201389,12.3037,1176.0590
446,-2.208328,12.3037,1176.0640
447,-2.208539,12.3081,1176.0690
448,-2.214421,12.3081,1176.0740
449,-2.217293,12.3131,1176.0791
450,-2.225504,12.3131,1176.0841
451,-2.228773,12.3181,1176.0891
452,-2.236180,12.3181,1176.0941
453,-2.240860,12.3231,1176.0989
454,-2.249427,12.3230,1176.1040
455,-2.253458,12.3280,1176.1090
456,-2.261421,12.3280,1176.1140
457,-2.267099,12.3330,1176.1190
458,-2.275764,12.3330,1176.1240
459,-2.278092,12.3387,1176.1290
460,-2.283484,12.3387,1176.1340
461,-2.285247,12.3437,1176.1390
462,-2.292256,12.3436,1176.1440
463,-2.295380,12.3480,1176.1490
464,-2.302820,12.3480,1176.1540
465,-2.309399,12.3530,1176.1590
466,-2.318392,12.3530,1176.1640
467,-2.322020,12.3580,1176.1690
468,-2.328323,12.3580,1176.1740
469,-2.333093,12.3630,1176.1790
470,-2.341726,12.3630,1176.1840
471,-2.347328,12.3680,1176.1890
472,-2.356110,12.3680,1176.1940
473,-2.363765,12.3730,1176.1990
474,-2.372327,12.3730,1176.2041
475,-2.375834,12.3780,1176.2091
476,-2.381538,12.3780,1176.2141
477,-2.385649,12.3830,1176.2191
478,-2.393477,12.3830,1176.2239
479,-2.398891,12.3886,1176.2290
480,-2.407202,12.3886,1176.2340
481,-2.414459,12.3936,1176.2390
482,-2.422371,12.3936,1176.2440
483,-2.425593,12.3986,1176.2490
484,-2.431293,12.3986,1176.2540
485,-2.435029,12.4029,1176.2590
486,-2.440543,12.4029,1176.2640
487,-2.440421,12.4079,1176.2690
488,-2.444302,12.4079,1176.2740
489,-2.445490,12.4129,1176.2790
490,-2.449619,12.4129,1176.2840
491,-2.448656,12.4179,1176.2890
492,-2.452275,12.4179,1176.2940
493,-2.454973,12.4229,1176.2990
494,-2.461609,12.4229,1176.3040
495,-2.465284,12.4279,1176.3090
496,-2.468651,12.4279,1176.3140
497,-2.466645,12.4335,1176.3190
498,-2.469171,12.4335,1176.3240
499,-2.467743,12.4385,1176.3291
500,-2.471121,12.4385,1176.3341
501,-2.473715,12.4429,1176.3391
502,-2.479743,12.4429,1176.3441
503,-2.482694,12.4479,1176.3489
504,-2.487889,12.4479,1176.3540
505,-2.493552,12.4529,1176.3590
506,-2.501048,12.4529,1176.3640
507,-2.505794,12.4579,1176.3690
508,-2.510741,12.4579,1176.3740
509,-2.510372,12.4629,1176.3790
510,-2.512158,12.4629,1176.3840
511,-2.510157,12.4679,1176.3890
512,-2.512065,12.4679,1176.3940
513,-2.511059,12.4729,1176.3990
514,-2.513065,12.4729,1176.4040
515,-2.512780,12.4785,1176.4090
516,-2.516076,12.4785,1176.4140
517,-2.519701,12.4835,1176.4190
518,-2.525092,12.4835,1176.4240
519,-2.525630,12.4879,1176.4290
520,-2.527641,12.4879,1176.4340
521,-2.529726,12.4929,1176.4390
522,-2.533772,12.4929,1176.4440
523,-2.536007,12.4979,1176.4490
524,-2.539944,12.4979,1176.4541
525,-2.545265,12.5029,1176.4591
526,-2.552097,12.5029,1176.4641
527,-2.558032,12.5079,1176.4691
528,-2.563381,12.5079,1176.4739
529,-2.568375,12.5129,1176.4790
530,-2.573687,12.5129,1176.4840
531,-2.577339,12.5179,1176.4890
532,-2.582020,12.5179,1176.4940
533,-2.588468,12.5228,1176.4990
534,-2.594141,12.5228,1176.5040
535,-2.596470,12.5285,1176.5090
536,-2.599042,12.5285,1176.5140
537,-2.602198,12.5335,1176.5190
538,-2.606000,12.5335,1176.5240
539,-2.605672,12.5385,1176.5290
540,-2.606744,12.5385,1176.5340
541,-2.608815,12.5428,1176.5390
542,-2.612608,12.5428,1176.5440
543,-2.614370,12.5478,1176.5490
544,-2.617625,12.5478,1176.5540
545,-2.622460,12.5528,1176.5590
546,-2.625579,12.5528,1176.5640
547,-2.625700,12.5578,1176.5690
548,-2.627234,12.5578,1176.5740
549,-2.628604,12.5628,1176.5791
550,-2.627786,12.5628,1176.5841
551,-2.621614,12.5678,1176.5891
552,-2.620211,12.5678,1176.5941
553,-2.621136,12.5735,1176.5989
554,-2.624527,12.5735,1176.6040
555,-2.626907,12.5785,1176.6090
556,-2.629367,12.5784,1176.6140
557,-2.634463,12.5828,1176.6190
558,-2.640014,12.5828,1176.6240
559,-2.645766,12.5878,1176.6290
560,-2.650460,12.5878,1176.6340
561,-2.657475,12.5928,1176.6390
562,-2.662278,12.5928,1176.6440
563,-2.666954,12.5978,1176.6490
564,-2.668595,12.5978,1176.6540
565,-2.668712,12.6028,1176.6590
566,-2.670157,12.6028,1176.6640
567,-2.672402,12.6078,1176.6690
568,-2.675371,12.6078,1176.6740
569,-2.680991,12.6128,1176.6790
570,-2.682745,12.6128,1176.6840
571,-2.679467,12.6184,1176.6890
572,-2.677293,12.6184,1176.6940
573,-2.677456,12.6234,1176.6990
574,-2.680220,12.6234,1176.7041
575,-2.684938,12.6278,1176.7091
576,-2.688169,12.6278,1176.7141
577,-2.693785,12.6328,1176.7191
578,-2.697694,12.6328,1176.7239
579,-2.702044,12.6378,1176.7290
580,-2.704517,12.6378,1176.7340
581,-2.711134,12.6428,1176.7390
582,-2.716161,12.6428,1176.7440
583,-2.721071,12.6478,1176.7490
584,-2.723881,12.6478,1176.7540
585,-2.730713,12.6528,1176.7590
586,-2.735278,12.6528,1176.7640
587,-2.741127,12.6578,1176.7690
588,-2.743718,12.6578,1176.7740
589,-2.749189,12.6628,1176.7790
590,-2.752836,12.6628,1176.7840
591,-2.754983,12.6678,1176.7890
592,-2.751167,12.6678,1176.7940
593,-2.746556,12.6734,1176.7990
594,-2.744676,12.6734,1176.8040
595,-2.743671,12.6784,1176.8090
596,-2.740136,12.6784,1176.8140
597,-2.733071,12.6828,1176.8190
598,-2.728221,12.6828,1176.8240
599,-2.722961,12.6878,1176.8291
600,-2.718410,12.6878,1176.8341
601,-2.711480,12.6928,1176.8391
602,-2.706327,12.6928,1176.8441
603,-2.697073,12.6978,1176.8489
604,-2.690559,12.6978,1176.8540
605,-2.687809,12.7028,1176.8590
606,-2.687328,12.7028,1176.8640
607,-2.688833,12.7078,1176.8690
608,-2.689404,12.7078,1176.8740
609,-2.693594,12.7128,1176.8790
610,-2.696016,12.7128,1176.8840
611,-2.695338,12.7184,1176.8890
612,-2.690339,12.7184,1176.8940
613,-2.687216,12.7234,1176.8990
614,-2.686682,12.7234,1176.9040
