Point No.,Normal Force [N],Gap [mm],Time [s]
1.0,3.997577,11.0399,810.3
2.0,3.993840,11.0415,810.3
3.0,3.944657,11.0492,810.4
4.0,3.834165,11.0608,810.4
5.0,3.706362,11.0732,810.4
6.0,3.584465,11.0865,810.4
7.0,3.478781,11.0981,810.5
8.0,3.365307,11.1114,810.5
9.0,3.263078,11.1230,810.5
10.0,3.155660,11.1362,810.5
11.0,3.057880,11.1477,810.6
12.0,2.955578,11.1608,810.6
13.0,2.861179,11.1727,810.6
14.0,2.761354,11.1860,810.6
15.0,2.670512,11.1975,810.7
16.0,2.575796,11.2106,810.7
17.0,2.488201,11.2225,810.7
18.0,2.389582,11.2355,810.7
19.0,2.304507,11.2473,810.8
20.0,2.225423,11.2607,810.8
21.0,2.150424,11.2718,810.8
22.0,2.100683,11.2796,810.8
23.0,1.970233,11.2971,810.9
24.0,1.883355,11.3097,810.9
25.0,1.791357,11.3221,810.9
26.0,1.705413,11.3345,810.9
27.0,1.612241,11.3469,811
28.0,1.530680,11.3594,811
29.0,1.437307,11.3719,811
30.0,1.354415,11.3839,811
31.0,1.267621,11.3968,811.1
32.0,1.189351,11.4092,811.1
33.0,1.102787,11.4217,811.1
34.0,1.022077,11.4341,811.1
35.0,0.934748,11.4466,811.2
36.0,0.857906,11.4590,811.2
37.0,0.775201,11.4715,811.2
38.0,0.699083,11.4840,811.2
39.0,0.615779,11.4964,811.3
40.0,0.530562,11.5089,811.3
41.0,0.451867,11.5213,811.3
42.0,0.385240,11.5338,811.3
43.0,0.318328,11.5462,811.4
44.0,0.255065,11.5587,811.4
45.0,0.186854,11.5712,811.4
46.0,0.127148,11.5836,811.4
47.0,0.061068,11.5961,811.5
48.0,-0.000106,11.6085,811.5
49.0,-0.049087,11.6210,811.5
50.0,-0.100485,11.6335,811.5
51.0,-0.171446,11.6459,811.6
52.0,-0.233346,11.6584,811.6
53.0,-0.296837,11.6709,811.6
54.0,-0.353394,11.6833,811.6
55.0,-0.414060,11.6958,811.7
56.0,-0.466484,11.7083,811.7
57.0,-0.525167,11.7207,811.7
58.0,-0.579580,11.7332,811.7
59.0,-0.636298,11.7457,811.8
60.0,-0.688871,11.7581,811.8
61.0,-0.742927,11.7706,811.8
62.0,-0.793124,11.7831,811.8
63.0,-0.843187,11.7955,811.9
64.0,-0.892389,11.8080,811.9
65.0,-0.946526,11.8205,811.9
66.0,-0.993278,11.8330,811.9
67.0,-1.041827,11.8453,812
68.0,-1.083669,11.8577,812
69.0,-1.121930,11.8695,812
70.0,-1.154816,11.8824,812
71.0,-1.191259,11.8953,812.1
72.0,-1.224705,11.9076,812.1
73.0,-1.268131,11.9190,812.1
74.0,-1.305812,11.9328,812.1
75.0,-1.346110,11.9451,812.2
76.0,-1.379894,11.9575,812.2
77.0,-1.412538,11.9687,812.2
78.0,-1.440772,11.9821,812.2
79.0,-1.476344,11.9951,812.3
80.0,-1.513223,12.0062,812.3
81.0,-1.547755,12.0189,812.3
82.0,-1.580909,12.0322,812.3
83.0,-1.610490,12.0445,812.4
84.0,-1.624679,12.0566,812.4
85.0,-1.656715,12.0686,812.4
86.0,-1.690994,12.0819,812.4
87.0,-1.729068,12.0940,812.5
88.0,-1.761506,12.1060,812.5
89.0,-1.791733,12.1187,812.5
90.0,-1.822256,12.1311,812.5
91.0,-1.841412,12.1435,812.6
92.0,-1.865520,12.1565,812.6
93.0,-1.878476,12.1685,812.6
94.0,-1.887311,12.1810,812.6
95.0,-1.908381,12.1939,812.7
96.0,-1.931466,12.2059,812.7
97.0,-1.946380,12.2186,812.7
98.0,-1.938671,12.2320,812.7
99.0,-1.952260,12.2434,812.8
100.0,-1.970388,12.2572,812.8
101.0,-1.966435,12.2684,812.8
102.0,-1.955160,12.2818,812.8
103.0,-1.965998,12.2938,812.9
104.0,-1.967882,12.3068,812.9
105.0,-1.966820,12.3186,812.9
106.0,-1.990626,12.3320,812.9
107.0,-2.009258,12.3434,813
108.0,-2.027545,12.3571,813
109.0,-2.025640,12.3684,813
110.0,-2.045293,12.3817,813
111.0,-2.067318,12.3938,813.1
112.0,-2.063536,12.4067,813.1
113.0,-2.073979,12.4186,813.1
114.0,-2.096523,12.4319,813.1
115.0,-2.113361,12.4433,813.2
116.0,-2.107647,12.4571,813.2
117.0,-2.112392,12.4683,813.2
118.0,-2.125933,12.4819,813.2
119.0,-2.144254,12.4937,813.3
120.0,-2.161802,12.5071,813.3
121.0,-2.180776,12.5185,813.3
122.0,-2.200439,12.5318,813.3
123.0,-2.216417,12.5437,813.4
124.0,-2.212847,12.5570,813.4
125.0,-2.217722,12.5685,813.4
126.0,-2.220351,12.5818,813.4
127.0,-2.237883,12.5937,813.5
128.0,-2.256179,12.6070,813.5
129.0,-2.272168,12.6185,813.5
130.0,-2.262073,12.6318,813.5
131.0,-2.271706,12.6437,813.6
132.0,-2.288823,12.6570,813.6
133.0,-2.305898,12.6684,813.6
134.0,-2.323816,12.6818,813.6
135.0,-2.317302,12.6936,813.7
136.0,-2.321779,12.7070,813.7
137.0,-2.334541,12.7184,813.7
138.0,-2.313304,12.7318,813.7
139.0,-2.284626,12.7437,813.8
140.0,-2.287076,12.7570,813.8
141.0,-2.263341,12.7685,813.8
142.0,-2.261271,12.7818,813.8
143.0,-2.268728,12.7937,813.9
144.0,-2.266382,12.8070,813.9
145.0,-2.265342,12.8185,813.9
146.0,-2.211516,12.8318,813.9
147.0,-2.200270,12.8437,814
148.0,-2.202224,12.8570,814
149.0,-2.182448,12.8685,814
150.0,-2.172101,12.8816,814
151.0,-2.120854,12.8937,814.1
152.0,-2.026566,12.9067,814.1
153.0,-2.004104,12.9179,814.1
154.0,-1.960085,12.9320,814.1
155.0,-1.935878,12.9426,814.2
156.0,-1.835187,12.9573,814.2
157.0,-1.814913,12.9677,814.2
158.0,-1.805092,12.9819,814.2
159.0,-1.775982,12.9940,814.3
160.0,-1.748542,13.0069,814.3
161.0,-1.719638,13.0180,814.3
162.0,-1.644119,13.0322,814.3
163.0,-1.582459,13.0436,814.4
164.0,-1.540853,13.0574,814.4
165.0,-1.495364,13.0687,814.4
166.0,-1.434289,13.0812,814.4
167.0,-1.369763,13.0938,814.5
168.0,-1.317003,13.1071,814.5
169.0,-1.293465,13.1180,814.5
170.0,-1.210673,13.1322,814.5
171.0,-1.123350,13.1431,814.6
172.0,-1.114078,13.1564,814.6
173.0,-1.075135,13.1681,814.6
174.0,-1.043316,13.1815,814.6
175.0,-0.991102,13.1932,814.7
176.0,-0.932076,13.2065,814.7
177.0,-0.898139,13.2182,814.7
178.0,-0.874610,13.2316,814.7
179.0,-0.876437,13.2432,814.8
180.0,-0.852041,13.2566,814.8
181.0,-0.753900,13.2683,814.8
182.0,-0.663078,13.2817,814.8
183.0,-0.590288,13.2934,814.9
184.0,-0.561715,13.3068,814.9
185.0,-0.525180,13.3184,814.9
186.0,-0.522786,13.3319,814.9
187.0,-0.522157,13.3434,815
188.0,-0.526392,13.3573,815
189.0,-0.527073,13.3684,815
190.0,-0.526378,13.3818,815
191.0,-0.522705,13.3938,815.1
192.0,-0.482351,13.4068,815.1
193.0,-0.444581,13.4188,815.1
194.0,-0.394555,13.4320,815.1
195.0,-0.385096,13.4435,815.2
196.0,-0.334226,13.4574,815.2
197.0,-0.282001,13.4686,815.2
198.0,-0.219622,13.4820,815.2
199.0,-0.180863,13.4940,815.3
200.0,-0.178467,13.5070,815.3
201.0,-0.179421,13.5190,815.3
202.0,-0.180661,13.5321,815.3
203.0,-0.182397,13.5436,815.4
204.0,-0.180272,13.5575,815.4
205.0,-0.107119,13.5687,815.4
206.0,-0.074147,13.5820,815.4
207.0,-0.044908,13.5940,815.5
208.0,-0.040617,13.6071,815.5
209.0,-0.039479,13.6190,815.5
210.0,-0.013650,13.6322,815.5
211.0,0.003357,13.6438,815.6
212.0,0.005327,13.6576,815.6
213.0,0.003729,13.6688,815.6
214.0,0.003506,13.6821,815.6
215.0,0.000903,13.6941,815.7
216.0,0.004884,13.7071,815.7
217.0,0.004876,13.7191,815.7
218.0,0.005283,13.7322,815.7
219.0,0.004233,13.7438,815.8
220.0,0.006044,13.7576,815.8
221.0,0.006883,13.7688,815.8
222.0,0.005934,13.7821,815.8
223.0,0.004409,13.7941,815.9
224.0,0.005617,13.8071,815.9
225.0,0.005519,13.8191,815.9
226.0,0.005879,13.8322,815.9
227.0,0.005277,13.8438,816
228.0,0.005080,13.8576,816
229.0,0.004680,13.8688,816
230.0,0.005398,13.8821,816
231.0,0.004597,13.8941,816.1
232.0,0.003887,13.9071,816.1
233.0,0.004782,13.9188,816.1
234.0,0.003953,13.9322,816.1
235.0,0.005366,13.9438,816.2
236.0,0.006212,13.9571,816.2
237.0,0.006237,13.9688,816.2
238.0,0.006188,13.9821,816.2
239.0,0.004040,13.9925,816.3
240.0,0.004265,14.0070,816.3
241.0,0.005066,14.0179,816.3
242.0,0.003769,14.0316,816.3
243.0,0.005331,14.0429,816.4
244.0,0.006229,14.0571,816.4
245.0,0.003453,14.0684,816.4
246.0,0.006088,14.0813,816.4
247.0,0.005309,14.0934,816.5
248.0,0.004780,14.1061,816.5
249.0,0.004146,14.1179,816.5
250.0,0.004301,14.1316,816.5
251.0,0.007063,14.1429,816.6
252.0,0.003979,14.1561,816.6
253.0,0.003854,14.1684,816.6
254.0,0.006692,14.1816,816.6
255.0,0.003795,14.1934,816.7
256.0,0.005108,14.2053,816.7
257.0,0.004447,14.2179,816.7
258.0,0.005038,14.2299,816.7
259.0,0.006462,14.2425,816.8
260.0,0.004773,14.2553,816.8
261.0,0.005208,14.2677,816.8
262.0,0.006815,14.2799,816.8
263.0,0.003694,14.2925,816.9
264.0,0.003517,14.3054,816.9
265.0,0.004138,14.3177,816.9
266.0,0.006119,14.3299,816.9
267.0,0.006233,14.3429,817
268.0,0.004326,14.3553,817
269.0,0.004000,14.3677,817
270.0,0.006618,14.3804,817
271.0,0.003523,14.3925,817.1
272.0,0.004800,14.4054,817.1
273.0,0.003543,14.4179,817.1
274.0,0.003082,14.4304,817.1
275.0,0.004756,14.4429,817.2
276.0,0.003529,14.4553,817.2
277.0,0.006775,14.4677,817.2
278.0,0.006503,14.4804,817.2
279.0,0.003964,14.4925,817.3
280.0,0.007584,14.5054,817.3
281.0,0.003678,14.5179,817.3
282.0,0.004727,14.5299,817.3
283.0,0.008142,14.5429,817.4
284.0,0.002128,14.5553,817.4
285.0,0.003527,14.5677,817.4
286.0,0.006533,14.5804,817.4
287.0,0.004677,14.5925,817.5
288.0,0.004834,14.6054,817.5
289.0,0.005346,14.6179,817.5
290.0,0.005456,14.6299,817.5
291.0,0.007484,14.6429,817.6
292.0,0.003646,14.6554,817.6
293.0,0.006396,14.6679,817.6
294.0,0.006076,14.6804,817.6
295.0,0.005403,14.6925,817.7
296.0,0.004096,14.7054,817.7
297.0,0.003505,14.7179,817.7
298.0,0.005713,14.7299,817.7
299.0,0.004942,14.7429,817.8
300.0,0.004580,14.7553,817.8
301.0,0.005182,14.7679,817.8
302.0,0.006204,14.7804,817.8
303.0,0.005958,14.7925,817.9
304.0,0.004449,14.8053,817.9
305.0,0.003992,14.8177,817.9
306.0,0.003975,14.8299,817.9
307.0,0.006908,14.8423,818
308.0,0.006134,14.8553,818
309.0,0.005230,14.8677,818
310.0,0.003961,14.8799,818
311.0,0.002795,14.8923,818.1
312.0,0.003918,14.9048,818.1
313.0,0.004704,14.9177,818.1
314.0,0.005569,14.9298,818.1
315.0,0.007063,14.9423,818.2
316.0,0.005040,14.9553,818.2
317.0,0.006028,14.9673,818.2
318.0,0.007297,14.9798,818.2
319.0,0.005025,14.9923,818.3
