Point No.,Normal Force [N],Gap [mm],Time [s]
1.0,4.204182,11.1975,170.5330
2.0,4.205331,11.1975,170.5380
3.0,4.205822,11.1975,170.5430
4.0,4.205187,11.1975,170.5480
5.0,4.203157,11.1975,170.5530
6.0,4.202778,11.1975,170.5580
7.0,4.202815,11.1981,170.5630
8.0,4.201427,11.1981,170.5680
9.0,4.198883,11.1981,170.5720
10.0,4.192621,11.2000,170.5770
11.0,4.184802,11.2000,170.5820
12.0,4.170250,11.2031,170.5870
13.0,4.158962,11.2031,170.5920
14.0,4.131775,11.2081,170.5970
15.0,4.117826,11.2081,170.6020
16.0,4.084584,11.2137,170.6080
17.0,4.052607,11.2199,170.6130
18.0,4.024887,11.2199,170.6180
19.0,3.988932,11.2255,170.6230
20.0,3.964513,11.2255,170.6280
21.0,3.921310,11.2342,170.6330
22.0,3.888170,11.2342,170.6380
23.0,3.840552,11.2429,170.6430
24.0,3.806809,11.2429,170.6480
25.0,3.750283,11.2528,170.6530
26.0,3.709708,11.2528,170.6580
27.0,3.646949,11.2640,170.6630
28.0,3.603807,11.2640,170.6680
29.0,3.540276,11.2752,170.6730
30.0,3.497396,11.2752,170.6770
31.0,3.451223,11.2752,170.6820
32.0,3.379547,11.2882,170.6870
33.0,3.333944,11.2882,170.6920
34.0,3.256086,11.3032,170.6970
35.0,3.206897,11.3031,170.7020
36.0,3.127094,11.3175,170.7070
37.0,3.073921,11.3174,170.7120
38.0,2.992738,11.3324,170.7170
39.0,2.938887,11.3324,170.7220
40.0,2.855053,11.3486,170.7270
41.0,2.797026,11.3485,170.7320
42.0,2.708502,11.3660,170.7370
43.0,2.650376,11.3659,170.7420
44.0,2.556867,11.3846,170.7470
45.0,2.497405,11.3846,170.7520
46.0,2.402610,11.4039,170.7570
47.0,2.342890,11.4039,170.7620
48.0,2.252182,11.4238,170.7670
49.0,2.194987,11.4238,170.7720
50.0,2.101875,11.4437,170.7770
51.0,2.040889,11.4437,170.7820
52.0,1.941422,11.4636,170.7870
53.0,1.879925,11.4636,170.7920
54.0,1.780089,11.4842,170.7970
55.0,1.717531,11.4841,170.8020
56.0,1.619130,11.5041,170.8070
57.0,1.558167,11.5040,170.8120
58.0,1.460145,11.5234,170.8170
59.0,1.400454,11.5233,170.8220
60.0,1.304129,11.5433,170.8270
61.0,1.245925,11.5432,170.8320
62.0,1.153856,11.5632,170.8370
63.0,1.097335,11.5631,170.8420
64.0,1.005817,11.5831,170.8470
65.0,0.948791,11.5831,170.8520
66.0,0.858695,11.6030,170.8570
67.0,0.804045,11.6030,170.8620
68.0,0.715806,11.6229,170.8670
69.0,0.661160,11.6229,170.8720
70.0,0.575315,11.6428,170.8770
71.0,0.516624,11.6428,170.8820
72.0,0.425298,11.6634,170.8870
73.0,0.370152,11.6633,170.8920
74.0,0.297540,11.6833,170.8970
75.0,0.253313,11.6833,170.9020
76.0,0.188221,11.7026,170.9070
77.0,0.149778,11.7026,170.9120
78.0,0.081160,11.7225,170.9170
79.0,0.036577,11.7225,170.9220
80.0,-0.037040,11.7425,170.9270
81.0,-0.082497,11.7425,170.9320
82.0,-0.155057,11.7624,170.9370
83.0,-0.198588,11.7624,170.9420
84.0,-0.268829,11.7823,170.9470
85.0,-0.311419,11.7823,170.9520
86.0,-0.381019,11.8023,170.9570
87.0,-0.422072,11.8023,170.9620
88.0,-0.488478,11.8216,170.9670
89.0,-0.528688,11.8216,170.9720
90.0,-0.592827,11.8428,170.9770
91.0,-0.631228,11.8428,170.9820
92.0,-0.693360,11.8621,170.9870
93.0,-0.731228,11.8621,170.9920
94.0,-0.793276,11.8820,170.9970
95.0,-0.830376,11.8820,171.0020
96.0,-0.892261,11.9020,171.0070
97.0,-0.928899,11.9020,171.0120
98.0,-0.989292,11.9213,171.0170
99.0,-1.024653,11.9213,171.0220
100.0,-1.080786,11.9412,171.0270
101.0,-1.113224,11.9412,171.0320
102.0,-1.163517,11.9612,171.0370
103.0,-1.191789,11.9612,171.0420
104.0,-1.241819,11.9811,171.0470
105.0,-1.271424,11.9811,171.0520
106.0,-1.323549,12.0011,171.0570
107.0,-1.353720,12.0011,171.0620
108.0,-1.404503,12.0217,171.0670
109.0,-1.433360,12.0217,171.0720
110.0,-1.483713,12.0416,171.0770
111.0,-1.512191,12.0416,171.0820
112.0,-1.557508,12.0616,171.0870
113.0,-1.583886,12.0616,171.0920
114.0,-1.630409,12.0809,171.0970
115.0,-1.656577,12.0809,171.1020
116.0,-1.704344,12.1009,171.1070
117.0,-1.731952,12.1009,171.1120
118.0,-1.779682,12.1208,171.1170
119.0,-1.806131,12.1208,171.1220
120.0,-1.848380,12.1408,171.1270
121.0,-1.871022,12.1408,171.1320
122.0,-1.911218,12.1607,171.1370
123.0,-1.935184,12.1607,171.1420
124.0,-1.978167,12.1807,171.1470
125.0,-2.003040,12.1807,171.1520
126.0,-2.045289,12.2007,171.1570
127.0,-2.067720,12.2007,171.1620
128.0,-2.103517,12.2213,171.1670
129.0,-2.123563,12.2212,171.1720
130.0,-2.157807,12.2412,171.1770
131.0,-2.175076,12.2412,171.1820
132.0,-2.208062,12.2606,171.1870
133.0,-2.228347,12.2606,171.1920
134.0,-2.266135,12.2805,171.1970
135.0,-2.287482,12.2805,171.2020
136.0,-2.325017,12.3005,171.2070
137.0,-2.346757,12.3005,171.2120
138.0,-2.385139,12.3205,171.2170
139.0,-2.407173,12.3205,171.2220
140.0,-2.445911,12.3404,171.2270
141.0,-2.466608,12.3404,171.2320
142.0,-2.502637,12.3604,171.2370
143.0,-2.520402,12.3604,171.2420
144.0,-2.548590,12.3804,171.2470
145.0,-2.563054,12.3804,171.2520
146.0,-2.593805,12.4010,171.2570
147.0,-2.611195,12.4010,171.2620
148.0,-2.643577,12.4209,171.2670
149.0,-2.661108,12.4209,171.2720
150.0,-2.691522,12.4403,171.2770
151.0,-2.706163,12.4403,171.2820
152.0,-2.731981,12.4603,171.2870
153.0,-2.746566,12.4603,171.2920
154.0,-2.774319,12.4802,171.2970
155.0,-2.787146,12.4802,171.3020
156.0,-2.811195,12.5002,171.3070
157.0,-2.823119,12.5002,171.3120
158.0,-2.845163,12.5202,171.3170
159.0,-2.854043,12.5202,171.3220
160.0,-2.875895,12.5402,171.3270
161.0,-2.888450,12.5402,171.3320
162.0,-2.911345,12.5602,171.3370
163.0,-2.916474,12.5602,171.3420
164.0,-2.921454,12.5808,171.3470
165.0,-2.914496,12.5808,171.3520
166.0,-2.909058,12.6008,171.3570
167.0,-2.903306,12.6008,171.3620
168.0,-2.906860,12.6208,171.3670
169.0,-2.910457,12.6208,171.3720
170.0,-2.923498,12.6402,171.3770
171.0,-2.926991,12.6402,171.3820
172.0,-2.938237,12.6601,171.3870
173.0,-2.943283,12.6601,171.3920
174.0,-2.949123,12.6801,171.3970
175.0,-2.944475,12.6801,171.4020
176.0,-2.935600,12.7001,171.4070
177.0,-2.927730,12.7001,171.4120
178.0,-2.927501,12.7201,171.4170
179.0,-2.924891,12.7201,171.4220
180.0,-2.926739,12.7401,171.4270
181.0,-2.922988,12.7402,171.4320
182.0,-2.920547,12.7602,171.4370
183.0,-2.915118,12.7602,171.4420
184.0,-2.908334,12.7802,171.4470
185.0,-2.894880,12.7802,171.4520
186.0,-2.877475,12.8008,171.4570
187.0,-2.865616,12.8008,171.4620
188.0,-2.857424,12.8208,171.4670
189.0,-2.847810,12.8208,171.4720
190.0,-2.832528,12.8408,171.4770
191.0,-2.808918,12.8408,171.4820
192.0,-2.771480,12.8609,171.4870
193.0,-2.741034,12.8609,171.4920
194.0,-2.697400,12.8797,171.4970
195.0,-2.662689,12.8797,171.5020
196.0,-2.599416,12.9010,171.5070
197.0,-2.552878,12.9010,171.5120
198.0,-2.498593,12.9204,171.5170
199.0,-2.452032,12.9204,171.5220
200.0,-2.370152,12.9405,171.5270
201.0,-2.309366,12.9405,171.5320
202.0,-2.241520,12.9599,171.5370
203.0,-2.205532,12.9599,171.5420
204.0,-2.157022,12.9800,171.5470
205.0,-2.119926,12.9800,171.5520
206.0,-2.077526,13.0000,171.5570
207.0,-2.049722,13.0000,171.5620
208.0,-2.006243,13.0201,171.5670
209.0,-1.971321,13.0201,171.5720
210.0,-1.931546,13.0401,171.5770
211.0,-1.908543,13.0401,171.5820
212.0,-1.882198,13.0601,171.5870
213.0,-1.863825,13.0602,171.5920
214.0,-1.823928,13.0808,171.5970
215.0,-1.777470,13.0808,171.6020
216.0,-1.686682,13.1009,171.6070
217.0,-1.618438,13.1009,171.6120
218.0,-1.536212,13.1203,171.6170
219.0,-1.489872,13.1204,171.6220
220.0,-1.429086,13.1404,171.6270
221.0,-1.382881,13.1404,171.6320
222.0,-1.300201,13.1605,171.6370
223.0,-1.231050,13.1605,171.6420
224.0,-1.131906,13.1806,171.6470
225.0,-1.070765,13.1806,171.6520
226.0,-0.987505,13.2007,171.6570
227.0,-0.933664,13.2007,171.6620
228.0,-0.867781,13.2207,171.6670
229.0,-0.830199,13.2208,171.6720
230.0,-0.788029,13.2408,171.6770
231.0,-0.757811,13.2408,171.6820
232.0,-0.710133,13.2615,171.6870
233.0,-0.677147,13.2615,171.6920
234.0,-0.637522,13.2815,171.6970
235.0,-0.613145,13.2815,171.7020
236.0,-0.576343,13.3009,171.7070
237.0,-0.548342,13.3009,171.7120
238.0,-0.510147,13.3209,171.7170
239.0,-0.483269,13.3210,171.7220
240.0,-0.444760,13.3410,171.7270
241.0,-0.411302,13.3410,171.7320
242.0,-0.356189,13.3610,171.7370
243.0,-0.315010,13.3611,171.7420
244.0,-0.263189,13.3811,171.7470
245.0,-0.236904,13.3811,171.7520
246.0,-0.214309,13.4011,171.7570
247.0,-0.204358,13.4011,171.7620
248.0,-0.199659,13.4211,171.7670
249.0,-0.194767,13.4211,171.7720
250.0,-0.182418,13.4424,171.7770
251.0,-0.166673,13.4424,171.7820
252.0,-0.138447,13.4618,171.7870
253.0,-0.110928,13.4618,171.7920
254.0,-0.066612,13.4818,171.7970
255.0,-0.038340,13.4819,171.8020
256.0,-0.014150,13.5012,171.8070
257.0,-0.004877,13.5012,171.8120
258.0,-0.001005,13.5212,171.8170
259.0,0.003227,13.5213,171.8220
260.0,0.005261,13.5413,171.8270
261.0,0.008445,13.5413,171.8320
262.0,0.008623,13.5613,171.8370
263.0,0.009511,13.5613,171.8420
264.0,0.008202,13.5813,171.8470
265.0,0.004583,13.5813,171.8520
266.0,-0.005228,13.6012,171.8570
267.0,-0.006112,13.6012,171.8620
268.0,-0.003460,13.6212,171.8670
269.0,-0.002043,13.6212,171.8720
270.0,-0.001230,13.6419,171.8770
271.0,0.001379,13.6419,171.8820
272.0,0.003086,13.6619,171.8870
273.0,0.002015,13.6619,171.8920
274.0,0.000589,13.6812,171.8970
275.0,-0.000468,13.6812,171.9020
276.0,-0.004293,13.7012,171.9070
277.0,-0.004101,13.7012,171.9120
278.0,-0.003096,13.7212,171.9170
279.0,0.000729,13.7212,171.9220
280.0,0.003531,13.7413,171.9270
281.0,0.005897,13.7413,171.9320
282.0,0.006107,13.7613,171.9370
283.0,0.006720,13.7613,171.9420
284.0,0.006430,13.7813,171.9470
285.0,0.008581,13.7813,171.9520
286.0,0.008917,13.8013,171.9570
287.0,0.009352,13.8013,171.9620
288.0,0.008623,13.8219,171.9670
289.0,0.005092,13.8219,171.9720
290.0,-0.001127,13.8419,171.9770
291.0,-0.001038,13.8419,171.9820
292.0,-0.000229,13.8613,171.9870
293.0,0.003128,13.8613,171.9920
294.0,0.006116,13.8813,171.9970
295.0,0.008328,13.8813,172.0020
296.0,0.008211,13.9006,172.0070
297.0,0.008866,13.9006,172.0120
298.0,0.008137,13.9206,172.0170
299.0,0.007978,13.9206,172.0220
300.0,0.006528,13.9406,172.0270
301.0,0.006486,13.9406,172.0320
302.0,0.004840,13.9606,172.0370
303.0,0.001300,13.9606,172.0420
304.0,-0.006088,13.9806,172.0470
305.0,-0.006116,13.9806,172.0520
306.0,-0.002983,14.0019,172.0570
307.0,-0.002343,14.0019,172.0620
308.0,-0.003979,14.0212,172.0670
309.0,-0.003708,14.0212,172.0720
310.0,-0.002231,14.0412,172.0770
311.0,0.002118,14.0413,172.0820
312.0,0.006696,14.0606,172.0870
313.0,0.008272,14.0606,172.0920
314.0,0.009956,14.0806,172.0970
315.0,0.011410,14.0806,172.1020
316.0,0.011031,14.1006,172.1070
317.0,0.010853,14.1006,172.1120
318.0,0.011620,14.1206,172.1170
319.0,0.011358,14.1206,172.1220
320.0,0.009432,14.1406,172.1270
321.0,0.007805,14.1406,172.1320
322.0,0.007384,14.1606,172.1370
323.0,0.008875,14.1606,172.1420
324.0,0.010793,14.1819,172.1470
325.0,0.011985,14.1819,172.1520
326.0,0.012967,14.2013,172.1570
327.0,0.011812,14.2013,172.1620
328.0,0.009039,14.2213,172.1670
329.0,0.007926,14.2213,172.1720
330.0,0.009282,14.2406,172.1770
331.0,0.010330,14.2406,172.1820
332.0,0.011368,14.2606,172.1870
333.0,0.011985,14.2606,172.1920
334.0,0.012602,14.2806,172.1970
335.0,0.013191,14.2806,172.2020
336.0,0.012700,14.3006,172.2070
337.0,0.009535,14.3006,172.2120
338.0,0.005219,14.3206,172.2170
339.0,0.002885,14.3206,172.2220
340.0,-0.002633,14.3406,172.2270
341.0,-0.003156,14.3406,172.2320
342.0,-0.001249,14.3606,172.2370
343.0,0.003484,14.3606,172.2420
344.0,0.008197,14.3813,172.2470
345.0,0.008885,14.3813,172.2520
346.0,0.008366,14.4013,172.2570
347.0,0.007346,14.4013,172.2620
348.0,0.005939,14.4213,172.2670
349.0,0.004087,14.4213,172.2720
350.0,0.000168,14.4406,172.2770
351.0,0.000201,14.4406,172.2820
352.0,0.001973,14.4606,172.2870
353.0,0.001632,14.4606,172.2920
354.0,0.001875,14.4806,172.2970
355.0,0.001277,14.4806,172.3020
356.0,0.001566,14.5006,172.3070
357.0,0.004746,14.5006,172.3120
358.0,0.010138,14.5206,172.3170
359.0,0.010288,14.5206,172.3220
360.0,0.010325,14.5406,172.3270
361.0,0.010909,14.5406,172.3320
362.0,0.011410,14.5619,172.3370
363.0,0.010844,14.5619,172.3420
364.0,0.012065,14.5813,172.3470
365.0,0.012570,14.5813,172.3520
366.0,0.013467,14.6013,172.3570
367.0,0.014351,14.6013,172.3620
368.0,0.015015,14.6206,172.3670
369.0,0.010685,14.6206,172.3720
370.0,0.005569,14.6406,172.3770
371.0,0.003797,14.6406,172.3820
372.0,0.002413,14.6606,172.3870
373.0,-0.000178,14.6606,172.3920
374.0,-0.000098,14.6806,172.3970
375.0,0.001061,14.6806,172.4020
376.0,0.005990,14.7006,172.4070
377.0,0.007033,14.7006,172.4120
378.0,0.008403,14.7206,172.4170
379.0,0.008450,14.7206,172.4220
380.0,0.010054,14.7406,172.4270
381.0,0.010054,14.7406,172.4320
382.0,0.011817,14.7613,172.4370
383.0,0.011854,14.7613,172.4420
384.0,0.013205,14.7813,172.4470
385.0,0.009334,14.7813,172.4520
386.0,0.005574,14.8006,172.4570
387.0,0.001833,14.8006,172.4620
388.0,-0.002333,14.8200,172.4670
389.0,-0.004494,14.8200,172.4720
390.0,-0.001627,14.8400,172.4770
391.0,-0.002591,14.8400,172.4820
392.0,-0.001922,14.8600,172.4870
393.0,-0.000987,14.8600,172.4920
394.0,0.003984,14.8800,172.4970
395.0,0.004625,14.8800,172.5020
396.0,0.005546,14.9000,172.5070
397.0,0.004419,14.9000,172.5120
398.0,0.003423,14.9200,172.5170
399.0,0.000075,14.9200,172.5220
400.0,-0.000968,14.9412,172.5270
401.0,-0.000220,14.9413,172.5320
402.0,0.006229,14.9606,172.5370
403.0,0.006416,14.9606,172.5420
404.0,0.008749,14.9806,172.5470
405.0,0.007861,14.9806,172.5520
