Point No.,Normal Force [N],Gap [mm],Time [s]
1,6.170577,11.6624,296.2890
2,6.170400,11.6624,296.2940
3,6.170376,11.6624,296.2990
4,6.170376,11.6624,296.3040
5,6.169833,11.6624,296.3090
6,6.169507,11.6624,296.3140
7,6.169104,11.6624,296.3190
8,6.169184,11.6630,296.3240
9,6.168258,11.6630,296.3280
10,6.164139,11.6643,296.3330
11,6.156619,11.6643,296.3380
12,6.137882,11.6680,296.3430
13,6.120084,11.6680,296.3480
14,6.086421,11.6730,296.3530
15,6.057190,11.6729,296.3580
16,6.014338,11.6779,296.3640
17,5.963242,11.6779,296.3690
18,5.929072,11.6829,296.3740
19,5.874412,11.6828,296.3790
20,5.840243,11.6878,296.3840
21,5.792013,11.6878,296.3890
22,5.758770,11.6928,296.3940
23,5.711588,11.6927,296.3990
24,5.677895,11.6977,296.4040
25,5.630966,11.6977,296.4090
26,5.598392,11.7027,296.4140
27,5.551546,11.7027,296.4190
28,5.519771,11.7070,296.4240
29,5.472000,11.7070,296.4290
30,5.439402,11.7126,296.4330
31,5.405116,11.7126,296.4380
32,5.359009,11.7175,296.4430
33,5.327066,11.7175,296.4480
34,5.283180,11.7225,296.4530
35,5.253304,11.7225,296.4580
36,5.210793,11.7268,296.4630
37,5.179939,11.7268,296.4680
38,5.137606,11.7324,296.4730
39,5.106781,11.7324,296.4780
40,5.065593,11.7374,296.4830
41,5.035585,11.7373,296.4880
42,4.994997,11.7423,296.4930
43,4.964349,11.7423,296.4980
44,4.924947,11.7467,296.5030
45,4.896937,11.7466,296.5080
46,4.857620,11.7522,296.5130
47,4.827866,11.7522,296.5180
48,4.788618,11.7572,296.5230
49,4.759299,11.7572,296.5280
50,4.721361,11.7622,296.5330
51,4.693065,11.7621,296.5380
52,4.655459,11.7665,296.5430
53,4.627136,11.7665,296.5480
54,4.589002,11.7721,296.5530
55,4.559575,11.7721,296.5580
56,4.521833,11.7770,296.5630
57,4.493561,11.7770,296.5680
58,4.456653,11.7820,296.5730
59,4.429675,11.7820,296.5780
60,4.393552,11.7863,296.5830
61,4.366051,11.7863,296.5880
62,4.329268,11.7919,296.5930
63,4.301253,11.7919,296.5980
64,4.266028,11.7969,296.6030
65,4.239014,11.7969,296.6080
66,4.203200,11.8019,296.6130
67,4.175725,11.8018,296.6180
68,4.140145,11.8062,296.6230
69,4.114309,11.8062,296.6280
70,4.080174,11.8118,296.6330
71,4.055103,11.8118,296.6380
72,4.023750,11.8161,296.6430
73,4.001651,11.8161,296.6480
74,3.972673,11.8217,296.6530
75,3.950971,11.8217,296.6580
76,3.923087,11.8261,296.6630
77,3.899991,11.8261,296.6680
78,3.867894,11.8317,296.6730
79,3.841464,11.8316,296.6780
80,3.808300,11.8366,296.6830
81,3.783765,11.8366,296.6880
82,3.751405,11.8416,296.6930
83,3.726473,11.8416,296.6980
84,3.694697,11.8459,296.7030
85,3.670297,11.8459,296.7080
86,3.638139,11.8515,296.7130
87,3.612696,11.8515,296.7180
88,3.581801,11.8559,296.7230
89,3.558003,11.8559,296.7280
90,3.527248,11.8608,296.7330
91,3.503119,11.8608,296.7380
92,3.471387,11.8658,296.7430
93,3.446692,11.8658,296.7480
94,3.414772,11.8714,296.7530
95,3.389918,11.8714,296.7580
96,3.360267,11.8764,296.7630
97,3.336282,11.8763,296.7680
98,3.305705,11.8813,296.7730
99,3.281651,11.8813,296.7780
100,3.251934,11.8857,296.7830
101,3.228530,11.8857,296.7880
102,3.198462,11.8913,296.7930
103,3.174164,11.8912,296.7980
104,3.144555,11.8956,296.8030
105,3.120749,11.8956,296.8080
106,3.090840,11.9006,296.8130
107,3.067159,11.9006,296.8180
108,3.038378,11.9055,296.8230
109,3.015787,11.9055,296.8280
110,2.987211,11.9111,296.8330
111,2.963250,11.9111,296.8380
112,2.935137,11.9161,296.8430
113,2.912262,11.9161,296.8480
114,2.883419,11.9211,296.8530
115,2.859710,11.9211,296.8580
116,2.830928,11.9254,296.8630
117,2.807683,11.9254,296.8680
118,2.778719,11.9310,296.8730
119,2.755385,11.9310,296.8780
120,2.727150,11.9354,296.8830
121,2.703479,11.9353,296.8880
122,2.674623,11.9403,296.8930
123,2.651854,11.9403,296.8980
124,2.624873,11.9453,296.9030
125,2.603012,11.9453,296.9080
126,2.575871,11.9503,296.9130
127,2.552406,11.9503,296.9180
128,2.524872,11.9552,296.9230
129,2.501749,11.9552,296.9280
130,2.474665,11.9602,296.9330
131,2.452392,11.9602,296.9380
132,2.426004,11.9652,296.9430
133,2.403484,11.9652,296.9480
134,2.373926,11.9708,296.9530
135,2.349736,11.9708,296.9580
136,2.324555,11.9751,296.9630
137,2.304260,11.9751,296.9680
138,2.279598,11.9801,296.9730
139,2.260098,11.9801,296.9780
140,2.236451,11.9851,296.9830
141,2.217452,11.9851,296.9880
142,2.195422,11.9900,296.9930
143,2.176175,11.9900,296.9980
144,2.153322,11.9950,297.0030
145,2.131859,11.9950,297.0080
146,2.106346,12.0000,297.0130
147,2.084578,12.0000,297.0180
148,2.059322,12.0050,297.0230
149,2.037859,12.0050,297.0280
150,2.012270,12.0106,297.0330
151,1.990442,12.0106,297.0380
152,1.961913,12.0149,297.0430
153,1.938522,12.0149,297.0480
154,1.913659,12.0199,297.0530
155,1.891602,12.0199,297.0580
156,1.865027,12.0249,297.0630
157,1.843026,12.0248,297.0680
158,1.817648,12.0298,297.0730
159,1.795871,12.0298,297.0780
160,1.770087,12.0348,297.0830
161,1.747449,12.0348,297.0880
162,1.722123,12.0398,297.0930
163,1.701202,12.0398,297.0980
164,1.677662,12.0447,297.1030
165,1.656114,12.0447,297.1080
166,1.631139,12.0497,297.1130
167,1.609053,12.0497,297.1180
168,1.584756,12.0547,297.1230
169,1.563194,12.0547,297.1280
170,1.537901,12.0597,297.1330
171,1.515656,12.0596,297.1380
172,1.489367,12.0646,297.1430
173,1.467304,12.0646,297.1480
174,1.442100,12.0696,297.1530
175,1.419271,12.0696,297.1580
176,1.394908,12.0746,297.1630
177,1.373500,12.0746,297.1680
178,1.349764,12.0795,297.1730
179,1.329582,12.0795,297.1780
180,1.306589,12.0845,297.1830
181,1.286159,12.0845,297.1880
182,1.262834,12.0895,297.1930
183,1.242338,12.0895,297.1980
184,1.220627,12.0945,297.2030
185,1.199958,12.0945,297.2080
186,1.176427,12.0994,297.2130
187,1.155656,12.0994,297.2180
188,1.132546,12.1044,297.2230
189,1.112570,12.1044,297.2280
190,1.089123,12.1100,297.2330
191,1.068104,12.1100,297.2380
192,1.046327,12.1144,297.2430
193,1.026767,12.1144,297.2480
194,1.004644,12.1193,297.2530
195,0.984522,12.1193,297.2580
196,0.962684,12.1243,297.2630
197,0.942923,12.1243,297.2680
198,0.920561,12.1293,297.2730
199,0.900500,12.1293,297.2780
200,0.878148,12.1343,297.2830
201,0.857746,12.1343,297.2880
202,0.835688,12.1392,297.2930
203,0.816245,12.1392,297.2980
204,0.795768,12.1442,297.3030
205,0.776666,12.1442,297.3080
206,0.755609,12.1498,297.3130
207,0.735946,12.1498,297.3180
208,0.715226,12.1542,297.3230
209,0.695866,12.1542,297.3280
210,0.674608,12.1591,297.3330
211,0.655417,12.1591,297.3380
212,0.634898,12.1641,297.3430
213,0.614838,12.1641,297.3480
214,0.592953,12.1691,297.3530
215,0.573196,12.1691,297.3580
216,0.551003,12.1741,297.3630
217,0.529979,12.1741,297.3680
218,0.506275,12.1790,297.3730
219,0.485677,12.1790,297.3780
220,0.463474,12.1840,297.3830
221,0.445766,12.1840,297.3880
222,0.425013,12.1890,297.3930
223,0.407426,12.1890,297.3980
224,0.390115,12.1940,297.4030
225,0.372509,12.1940,297.4080
226,0.353954,12.1996,297.4130
227,0.337218,12.1996,297.4180
228,0.321969,12.2039,297.4230
229,0.306752,12.2039,297.4280
230,0.290250,12.2095,297.4330
231,0.274585,12.2095,297.4380
232,0.257540,12.2139,297.4430
233,0.240720,12.2139,297.4480
234,0.223236,12.2189,297.4530
235,0.206575,12.2189,297.4580
236,0.190161,12.2239,297.4630
237,0.173921,12.2239,297.4680
238,0.156357,12.2288,297.4730
239,0.139383,12.2288,297.4780
240,0.122310,12.2338,297.4830
241,0.106523,12.2338,297.4880
242,0.090161,12.2388,297.4930
243,0.074066,12.2388,297.4980
244,0.058462,12.2438,297.5030
245,0.042693,12.2438,297.5080
246,0.025312,12.2488,297.5130
247,0.009062,12.2488,297.5180
248,-0.007351,12.2537,297.5230
249,-0.022843,12.2537,297.5280
250,-0.039144,12.2587,297.5330
251,-0.054454,12.2587,297.5380
252,-0.070068,12.2637,297.5430
253,-0.085284,12.2637,297.5480
254,-0.101323,12.2687,297.5530
255,-0.117180,12.2687,297.5580
256,-0.132743,12.2737,297.5630
257,-0.148871,12.2737,297.5680
258,-0.165223,12.2787,297.5730
259,-0.181076,12.2786,297.5780
260,-0.196460,12.2836,297.5830
261,-0.211747,12.2836,297.5880
262,-0.227267,12.2886,297.5930
263,-0.243241,12.2886,297.5980
264,-0.258293,12.2936,297.6030
265,-0.273458,12.2936,297.6080
266,-0.288296,12.2992,297.6130
267,-0.303194,12.2992,297.6180
268,-0.318611,12.3036,297.6230
269,-0.334870,12.3036,297.6280
270,-0.351055,12.3092,297.6330
271,-0.366098,12.3092,297.6380
272,-0.379720,12.3135,297.6430
273,-0.393729,12.3135,297.6480
274,-0.407926,12.3185,297.6530
275,-0.422506,12.3185,297.6580
276,-0.437185,12.3235,297.6630
277,-0.452228,12.3235,297.6680
278,-0.467276,12.3285,297.6730
279,-0.482787,12.3285,297.6780
280,-0.496932,12.3335,297.6830
281,-0.511429,12.3335,297.6880
282,-0.526411,12.3384,297.6930
283,-0.541992,12.3384,297.6980
284,-0.557274,12.3434,297.7030
285,-0.572139,12.3434,297.7080
286,-0.586420,12.3490,297.7130
287,-0.600706,12.3490,297.7180
288,-0.613182,12.3534,297.7230
289,-0.627678,12.3534,297.7280
290,-0.642778,12.3584,297.7330
291,-0.657311,12.3584,297.7380
292,-0.670573,12.3634,297.7430
293,-0.684068,12.3633,297.7480
294,-0.697250,12.3683,297.7530
295,-0.712443,12.3683,297.7580
296,-0.727234,12.3733,297.7630
297,-0.741646,12.3733,297.7680
298,-0.755010,12.3783,297.7730
299,-0.768702,12.3783,297.7780
300,-0.780902,12.3833,297.7830
301,-0.794342,12.3833,297.7880
302,-0.808305,12.3883,297.7930
303,-0.822693,12.3883,297.7980
304,-0.835763,12.3939,297.8030
305,-0.849067,12.3939,297.8080
306,-0.861922,12.3982,297.8130
307,-0.875787,12.3982,297.8180
308,-0.888216,12.4032,297.8230
309,-0.902067,12.4032,297.8280
310,-0.915198,12.4082,297.8330
311,-0.928819,12.4082,297.8380
312,-0.940734,12.4132,297.8430
313,-0.953795,12.4132,297.8480
314,-0.966738,12.4182,297.8530
315,-0.980384,12.4182,297.8580
316,-0.992345,12.4232,297.8630
317,-1.005658,12.4232,297.8680
318,-1.017784,12.4281,297.8730
319,-1.030587,12.4281,297.8780
320,-1.042366,12.4281,297.8830
321,-1.055679,12.4331,297.8880
322,-1.068473,12.4331,297.8930
323,-1.081754,12.4387,297.8980
324,-1.092780,12.4431,297.9030
325,-1.104176,12.4431,297.9080
326,-1.114697,12.4481,297.9130
327,-1.126659,12.4481,297.9180
328,-1.136675,12.4531,297.9230
329,-1.146131,12.4531,297.9280
330,-1.153973,12.4581,297.9330
331,-1.162698,12.4581,297.9380
332,-1.170877,12.4631,297.9430
333,-1.180047,12.4631,297.9480
334,-1.188735,12.4680,297.9530
335,-1.198536,12.4680,297.9580
336,-1.206636,12.4730,297.9630
337,-1.216643,12.4730,297.9680
338,-1.226444,12.4730,297.9730
339,-1.238017,12.4780,297.9780
340,-1.247257,12.4780,297.9830
341,-1.258340,12.4836,297.9880
342,-1.266823,12.4886,297.9930
343,-1.276582,12.4886,297.9980
344,-1.283376,12.4930,298.0030
345,-1.293575,12.4930,298.0080
346,-1.302969,12.4980,298.0130
347,-1.314281,12.4980,298.0180
348,-1.323895,12.5030,298.0230
349,-1.335908,12.5030,298.0280
350,-1.347140,12.5080,298.0330
351,-1.359584,12.5079,298.0380
352,-1.370297,12.5129,298.0430
353,-1.381267,12.5129,298.0480
354,-1.391274,12.5179,298.0530
355,-1.403026,12.5179,298.0580
356,-1.412855,12.5179,298.0630
357,-1.424307,12.5229,298.0680
358,-1.434912,12.5229,298.0730
359,-1.446004,12.5285,298.0780
360,-1.454033,12.5285,298.0830
361,-1.462993,12.5329,298.0880
362,-1.468422,12.5379,298.0930
363,-1.477264,12.5379,298.0980
364,-1.484073,12.5429,298.1030
365,-1.494431,12.5429,298.1080
366,-1.502591,12.5479,298.1130
367,-1.512560,12.5479,298.1180
368,-1.519874,12.5529,298.1230
369,-1.529736,12.5528,298.1280
370,-1.538756,12.5578,298.1330
371,-1.549091,12.5578,298.1380
372,-1.556320,12.5628,298.1430
373,-1.565724,12.5628,298.1480
374,-1.574080,12.5628,298.1530
375,-1.584915,12.5678,298.1580
376,-1.593584,12.5678,298.1630
377,-1.603096,12.5728,298.1680
378,-1.611518,12.5728,298.1730
379,-1.622259,12.5778,298.1780
380,-1.631050,12.5778,298.1830
381,-1.641216,12.5828,298.1880
382,-1.649605,12.5878,298.1930
383,-1.659575,12.5878,298.1980
384,-1.665607,12.5928,298.2030
385,-1.673047,12.5928,298.2080
386,-1.678560,12.5978,298.2130
387,-1.687286,12.5978,298.2180
388,-1.694010,12.6028,298.2230
389,-1.703830,12.6027,298.2280
390,-1.712387,12.6077,298.2330
391,-1.721076,12.6077,298.2380
392,-1.723376,12.6127,298.2430
393,-1.728871,12.6127,298.2480
394,-1.733963,12.6127,298.2530
395,-1.743259,12.6177,298.2580
396,-1.750751,12.6177,298.2630
397,-1.760440,12.6227,298.2680
398,-1.769048,12.6227,298.2730
399,-1.779247,12.6277,298.2780
400,-1.786645,12.6277,298.2830
401,-1.796035,12.6327,298.2880
402,-1.805537,12.6377,298.2930
403,-1.815922,12.6377,298.2980
404,-1.824194,12.6421,298.3030
405,-1.833631,12.6420,298.3080
406,-1.842437,12.6477,298.3130
407,-1.852869,12.6477,298.3180
408,-1.861048,12.6527,298.3230
409,-1.869839,12.6526,298.3280
410,-1.877643,12.6576,298.3330
411,-1.887510,12.6576,298.3380
412,-1.896110,12.6576,298.3430
413,-1.905597,12.6620,298.3480
414,-1.913182,12.6620,298.3530
415,-1.921936,12.6676,298.3580
416,-1.928174,12.6676,298.3640
417,-1.939070,12.6726,298.3690
418,-1.941964,12.6726,298.3740
419,-1.955899,12.6776,298.3790
420,-1.959570,12.6776,298.3840
421,-1.972074,12.6820,298.3890
422,-1.975263,12.6820,298.3940
423,-1.988137,12.6876,298.3990
424,-1.990615,12.6876,298.4040
425,-2.002960,12.6926,298.4090
426,-2.006098,12.6926,298.4140
427,-2.019214,12.6976,298.4190
428,-2.022539,12.6976,298.4240
429,-2.034824,12.7019,298.4290
430,-2.038200,12.7019,298.4340
431,-2.051896,12.7075,298.4390
432,-2.054585,12.7075,298.4440
433,-2.065630,12.7125,298.4490
434,-2.068151,12.7125,298.4540
435,-2.080893,12.7175,298.4590
436,-2.083329,12.7175,298.4640
437,-2.095273,12.7219,298.4690
438,-2.098326,12.7219,298.4740
439,-2.110549,12.7275,298.4790
440,-2.110952,12.7275,298.4840
441,-2.117957,12.7325,298.4890
442,-2.118593,12.7325,298.4940
443,-2.129409,12.7369,298.4990
444,-2.129614,12.7369,298.5040
445,-2.133945,12.7419,298.5090
446,-2.131789,12.7419,298.5140
447,-2.138420,12.7475,298.5190
448,-2.138377,12.7475,298.5240
449,-2.148300,12.7519,298.5290
450,-2.150447,12.7519,298.5340
451,-2.162427,12.7568,298.5390
452,-2.164850,12.7568,298.5440
453,-2.175675,12.7618,298.5490
454,-2.178017,12.7618,298.5540
455,-2.189797,12.7675,298.5590
456,-2.191896,12.7675,298.5640
457,-2.202857,12.7724,298.5690
458,-2.204765,12.7724,298.5740
459,-2.214103,12.7768,298.5790
460,-2.213005,12.7768,298.5840
461,-2.218808,12.7818,298.5890
462,-2.219196,12.7818,298.5940
463,-2.229549,12.7868,298.5990
464,-2.230873,12.7868,298.6040
465,-2.240103,12.7918,298.6090
466,-2.241782,12.7918,298.6140
467,-2.253594,12.7968,298.6190
468,-2.256671,12.7968,298.6240
469,-2.268950,12.8018,298.6290
470,-2.272162,12.8018,298.6340
471,-2.283933,12.8074,298.6390
472,-2.286155,12.8074,298.6440
473,-2.297573,12.8124,298.6490
474,-2.300496,12.8124,298.6540
475,-2.313589,12.8174,298.6590
476,-2.316601,12.8174,298.6640
477,-2.327893,12.8218,298.6690
478,-2.330638,12.8218,298.6740
479,-2.342464,12.8267,298.6790
480,-2.344490,12.8267,298.6840
481,-2.355043,12.8317,298.6890
482,-2.357466,12.8317,298.6940
483,-2.369881,12.8367,298.6990
484,-2.372415,12.8367,298.7040
485,-2.384550,12.8417,298.7090
486,-2.387421,12.8417,298.7140
487,-2.399981,12.8467,298.7190
488,-2.402006,12.8467,298.7240
489,-2.411424,12.8517,298.7290
490,-2.414398,12.8517,298.7340
491,-2.427197,12.8567,298.7390
492,-2.430110,12.8567,298.7440
493,-2.440954,12.8617,298.7490
494,-2.443713,12.8617,298.7540
495,-2.455352,12.8667,298.7590
496,-2.457138,12.8667,298.7640
497,-2.466491,12.8717,298.7690
498,-2.469035,12.8717,298.7740
499,-2.481197,12.8767,298.7790
500,-2.483568,12.8767,298.7840
501,-2.493645,12.8817,298.7890
502,-2.495132,12.8817,298.7940
503,-2.506500,12.8866,298.7990
504,-2.509357,12.8866,298.8040
505,-2.519864,12.8916,298.8090
506,-2.522572,12.8916,298.8140
507,-2.533687,12.8966,298.8190
508,-2.535988,12.8966,298.8240
509,-2.546332,12.9016,298.8290
510,-2.548726,12.9016,298.8340
511,-2.560201,12.9072,298.8390
512,-2.562628,12.9072,298.8440
513,-2.572930,12.9116,298.8490
514,-2.575305,12.9116,298.8540
515,-2.584770,12.9166,298.8590
516,-2.584284,12.9166,298.8640
517,-2.584274,12.9216,298.8690
518,-2.576306,12.9216,298.8740
519,-2.571920,12.9266,298.8790
520,-2.566603,12.9266,298.8840
521,-2.569497,12.9316,298.8890
522,-2.569881,12.9316,298.8940
523,-2.579617,12.9366,298.8990
524,-2.581557,12.9366,298.9040
525,-2.590699,12.9416,298.9090
526,-2.592630,12.9416,298.9140
527,-2.603110,12.9466,298.9190
528,-2.604110,12.9466,298.9240
529,-2.607235,12.9516,298.9290
530,-2.604578,12.9516,298.9340
531,-2.608680,12.9566,298.9390
532,-2.608356,12.9566,298.9440
533,-2.616802,12.9616,298.9490
534,-2.619144,12.9616,298.9540
535,-2.630634,12.9666,298.9590
536,-2.632509,12.9666,298.9640
537,-2.640813,12.9716,298.9690
538,-2.642825,12.9716,298.9740
539,-2.652832,12.9766,298.9790
540,-2.654931,12.9766,298.9840
541,-2.663742,12.9809,298.9890
542,-2.666360,12.9809,298.9940
543,-2.677531,12.9865,298.9990
544,-2.680478,12.9865,299.0040
545,-2.690704,12.9915,299.0090
546,-2.693538,12.9915,299.0140
547,-2.704246,12.9965,299.0190
548,-2.706373,12.9965,299.0240
549,-2.715230,13.0015,299.0290
550,-2.717297,13.0015,299.0340
551,-2.727173,13.0065,299.0390
552,-2.729675,13.0065,299.0440
553,-2.738546,13.0115,299.0490
554,-2.740515,13.0115,299.0540
555,-2.749278,13.0165,299.0590
556,-2.751742,13.0165,299.0640
557,-2.762142,13.0209,299.0690
558,-2.765929,13.0209,299.0740
559,-2.776343,13.0265,299.0790
560,-2.778676,13.0265,299.0840
561,-2.786374,13.0315,299.0890
562,-2.788029,13.0315,299.0940
563,-2.793542,13.0365,299.0990
564,-2.789493,13.0365,299.1040
565,-2.789376,13.0409,299.1090
566,-2.787885,13.0409,299.1140
567,-2.793735,13.0465,299.1190
568,-2.795123,13.0465,299.1240
569,-2.802657,13.0515,299.1290
570,-2.804878,13.0515,299.1340
571,-2.814613,13.0565,299.1390
572,-2.815866,13.0565,299.1440
573,-2.818200,13.0608,299.1490
574,-2.815483,13.0608,299.1540
575,-2.819603,13.0665,299.1590
576,-2.820042,13.0665,299.1640
577,-2.826766,13.0715,299.1690
578,-2.828866,13.0715,299.1740
579,-2.838153,13.0765,299.1790
580,-2.839570,13.0765,299.1840
581,-2.847347,13.0808,299.1890
582,-2.849848,13.0808,299.1940
583,-2.859009,13.0864,299.1990
584,-2.861094,13.0864,299.2040
585,-2.864774,13.0914,299.2090
586,-2.861380,13.0914,299.2140
587,-2.863245,13.0964,299.2190
588,-2.862086,13.0964,299.2240
589,-2.867669,13.1014,299.2290
590,-2.869549,13.1014,299.2340
591,-2.878761,13.1064,299.2390
592,-2.881066,13.1064,299.2440
593,-2.888726,13.1114,299.2490
594,-2.890891,13.1114,299.2540
595,-2.900491,13.1164,299.2590
596,-2.903296,13.1164,299.2640
597,-2.912014,13.1208,299.2690
598,-2.914384,13.1208,299.2740
599,-2.923601,13.1264,299.2790
600,-2.926192,13.1264,299.2840
601,-2.933818,13.1314,299.2890
602,-2.936530,13.1314,299.2940
603,-2.946191,13.1364,299.2990
604,-2.945481,13.1364,299.3040
605,-2.943129,13.1414,299.3090
606,-2.939289,13.1414,299.3140
607,-2.940444,13.1464,299.3190
608,-2.936339,13.1464,299.3240
609,-2.930007,13.1514,299.3290
610,-2.925060,13.1514,299.3340
611,-2.927842,13.1564,299.3390
612,-2.928497,13.1564,299.3440
613,-2.934945,13.1608,299.3490
614,-2.937208,13.1608,299.3540
615,-2.944854,13.1664,299.3590
616,-2.946823,13.1664,299.3640
617,-2.951036,13.1714,299.3690
618,-2.950938,13.1714,299.3740
619,-2.950110,13.1764,299.3790
620,-2.942179,13.1764,299.3840
621,-2.931696,13.1808,299.3890
622,-2.924503,13.1808,299.3940
623,-2.921562,13.1864,299.3990
624,-2.917194,13.1864,299.4040
625,-2.911733,13.1914,299.4090
626,-2.907440,13.1914,299.4140
627,-2.909123,13.1964,299.4190
628,-2.909082,13.1964,299.4240
629,-2.914216,13.2008,299.4290
630,-2.915403,13.2008,299.4340
631,-2.921184,13.2064,299.4390
632,-2.923460,13.2064,299.4440
633,-2.928904,13.2114,299.4490
634,-2.930624,13.2114,299.4540
635,-2.937316,13.2164,299.4590
636,-2.938527,13.2164,299.4640
637,-2.943208,13.2208,299.4690
638,-2.945331,13.2208,299.4740
639,-2.952373,13.2264,299.4790
640,-2.954885,13.2264,299.4840
641,-2.961090,13.2314,299.4890
642,-2.963493,13.2314,299.4940
643,-2.970022,13.2364,299.4990
644,-2.972135,13.2364,299.5040
645,-2.978167,13.2414,299.5090
646,-2.981169,13.2414,299.5140
647,-2.988520,13.2464,299.5190
648,-2.990863,13.2464,299.5240
649,-2.996343,13.2514,299.5290
650,-2.999004,13.2514,299.5340
651,-3.006893,13.2563,299.5390
652,-3.009666,13.2563,299.5440
653,-3.015571,13.2607,299.5490
654,-3.018490,13.2607,299.5540
655,-3.025682,13.2663,299.5590
