Point No.,Normal Force [N],Gap [mm],Time [s]
1,4.003671,12.0986,425.4270
2,4.003554,12.0986,425.4320
3,4.003339,12.0986,425.4370
4,4.002876,12.0986,425.4420
5,4.002694,12.0986,425.4470
6,4.001445,12.0986,425.4520
7,4.000992,12.0999,425.4570
8,3.996526,12.0999,425.4620
9,3.992467,12.1017,425.4660
10,3.988820,12.1017,425.4710
11,3.980772,12.1036,425.4760
12,3.974043,12.1036,425.4810
13,3.964242,12.1055,425.4860
14,3.958948,12.1055,425.4910
15,3.948287,12.1073,425.4960
16,3.936559,12.1073,425.5020
17,3.927052,12.1098,425.5070
18,3.914777,12.1098,425.5120
19,3.907449,12.1117,425.5170
20,3.896970,12.1117,425.5220
21,3.890377,12.1135,425.5270
22,3.877957,12.1135,425.5320
23,3.870536,12.1154,425.5370
24,3.859042,12.1154,425.5420
25,3.852397,12.1173,425.5470
26,3.843274,12.1173,425.5520
27,3.835946,12.1198,425.5570
28,3.825097,12.1198,425.5620
29,3.818710,12.1216,425.5670
30,3.811597,12.1216,425.5710
31,3.801628,12.1235,425.5760
32,3.795034,12.1235,425.5810
33,3.784901,12.1254,425.5860
34,3.780454,12.1254,425.5910
35,3.770985,12.1272,425.5960
36,3.765794,12.1272,425.6010
37,3.755628,12.1297,425.6060
38,3.748184,12.1297,425.6110
39,3.739187,12.1316,425.6160
40,3.732640,12.1316,425.6210
41,3.722105,12.1334,425.6260
42,3.715249,12.1334,425.6310
43,3.705691,12.1353,425.6360
44,3.700275,12.1353,425.6410
45,3.690017,12.1372,425.6460
46,3.684087,12.1372,425.6510
47,3.673121,12.1397,425.6560
48,3.664676,12.1397,425.6610
49,3.656212,12.1415,425.6660
50,3.651952,12.1415,425.6710
51,3.645186,12.1434,425.6760
52,3.639392,12.1434,425.6810
53,3.628698,12.1453,425.6860
54,3.622797,12.1453,425.6910
55,3.613023,12.1471,425.6960
56,3.608478,12.1471,425.7010
57,3.598808,12.1496,425.7060
58,3.591405,12.1496,425.7110
59,3.582108,12.1515,425.7160
60,3.576054,12.1515,425.7210
61,3.567061,12.1534,425.7260
62,3.561515,12.1534,425.7310
63,3.553206,12.1552,425.7360
64,3.548862,12.1552,425.7410
65,3.540739,12.1571,425.7460
66,3.535530,12.1571,425.7510
67,3.526121,12.1596,425.7560
68,3.519173,12.1596,425.7610
69,3.511489,12.1614,425.7660
70,3.506617,12.1614,425.7710
71,3.498719,12.1633,425.7760
72,3.492907,12.1633,425.7810
73,3.482628,12.1652,425.7860
74,3.478368,12.1652,425.7910
75,3.468923,12.1670,425.7960
76,3.463937,12.1670,425.8010
77,3.455019,12.1695,425.8060
78,3.447730,12.1695,425.8110
79,3.439753,12.1714,425.8160
80,3.434515,12.1714,425.8210
81,3.425387,12.1733,425.8260
82,3.419365,12.1733,425.8310
83,3.410092,12.1751,425.8360
84,3.405574,12.1751,425.8410
85,3.396610,12.1770,425.8460
86,3.391541,12.1770,425.8510
87,3.383344,12.1795,425.8560
88,3.376035,12.1795,425.8610
89,3.367857,12.1814,425.8660
90,3.362610,12.1814,425.8710
91,3.354824,12.1832,425.8760
92,3.349717,12.1832,425.8810
93,3.341207,12.1851,425.8860
94,3.337998,12.1851,425.8910
95,3.329455,12.1870,425.8960
96,3.325265,12.1870,425.9010
97,3.316643,12.1895,425.9060
98,3.309708,12.1895,425.9110
99,3.301534,12.1913,425.9160
100,3.296007,12.1913,425.9210
101,3.287071,12.1932,425.9260
102,3.281511,12.1932,425.9310
103,3.272724,12.1951,425.9360
104,3.269025,12.1951,425.9410
105,3.260781,12.1969,425.9460
106,3.255838,12.1969,425.9510
107,3.247585,12.1994,425.9560
108,3.241202,12.1994,425.9610
109,3.234852,12.2013,425.9660
110,3.230873,12.2013,425.9710
111,3.224124,12.2032,425.9760
112,3.218668,12.2031,425.9810
113,3.208413,12.2050,425.9860
114,3.204354,12.2050,425.9910
115,3.195497,12.2069,425.9960
116,3.191307,12.2069,426.0010
117,3.183970,12.2094,426.0060
118,3.178154,12.2094,426.0110
119,3.170134,12.2112,426.0160
120,3.164513,12.2112,426.0210
121,3.155113,12.2131,426.0260
122,3.149212,12.2131,426.0310
123,3.139841,12.2150,426.0360
124,3.136563,12.2150,426.0410
125,3.129432,12.2168,426.0460
126,3.125457,12.2168,426.0510
127,3.119486,12.2193,426.0560
128,3.114202,12.2193,426.0610
129,3.107604,12.2212,426.0660
130,3.102820,12.2212,426.0710
131,3.095932,12.2231,426.0760
132,3.090868,12.2231,426.0810
133,3.082189,12.2249,426.0860
134,3.079439,12.2249,426.0910
135,3.071284,12.2268,426.0960
136,3.067033,12.2268,426.1010
137,3.059570,12.2293,426.1060
138,3.053033,12.2293,426.1110
139,3.045799,12.2312,426.1160
140,3.041431,12.2312,426.1210
141,3.034749,12.2330,426.1260
142,3.030624,12.2330,426.1310
143,3.021614,12.2349,426.1360
144,3.017545,12.2349,426.1410
145,3.008548,12.2368,426.1460
146,3.004251,12.2368,426.1510
147,2.997639,12.2393,426.1560
148,2.992294,12.2393,426.1610
149,2.986365,12.2411,426.1660
150,2.981721,12.2411,426.1710
151,2.974291,12.2430,426.1760
152,2.969269,12.2430,426.1810
153,2.961216,12.2449,426.1860
154,2.958901,12.2449,426.1910
155,2.950727,12.2467,426.1960
156,2.946107,12.2467,426.2010
157,2.937769,12.2492,426.2060
158,2.931125,12.2492,426.2110
159,2.924031,12.2511,426.2160
160,2.919117,12.2511,426.2210
161,2.911551,12.2530,426.2260
162,2.907426,12.2530,426.2310
163,2.900463,12.2548,426.2360
164,2.897522,12.2548,426.2410
165,2.890049,12.2567,426.2460
166,2.885574,12.2567,426.2510
167,2.878845,12.2592,426.2560
168,2.873664,12.2592,426.2610
169,2.868768,12.2611,426.2660
170,2.865345,12.2611,426.2710
171,2.858827,12.2629,426.2760
172,2.853566,12.2629,426.2810
173,2.843765,12.2648,426.2860
174,2.840561,12.2648,426.2910
175,2.832939,12.2667,426.2960
176,2.829642,12.2667,426.3010
177,2.822371,12.2692,426.3060
178,2.815637,12.2692,426.3110
179,2.808969,12.2710,426.3160
180,2.805107,12.2710,426.3210
181,2.798995,12.2729,426.3260
182,2.793978,12.2729,426.3310
183,2.784822,12.2748,426.3360
184,2.781450,12.2748,426.3410
185,2.774295,12.2766,426.3460
186,2.770919,12.2766,426.3510
187,2.765055,12.2791,426.3560
188,2.759677,12.2791,426.3610
189,2.753336,12.2810,426.3660
190,2.748324,12.2810,426.3710
191,2.740912,12.2829,426.3760
192,2.736825,12.2829,426.3810
193,2.729600,12.2847,426.3860
194,2.727173,12.2847,426.3910
195,2.719065,12.2866,426.3960
196,2.714575,12.2866,426.4010
197,2.706729,12.2891,426.4060
198,2.700949,12.2891,426.4110
199,2.695053,12.2910,426.4160
200,2.691616,12.2910,426.4210
201,2.685990,12.2928,426.4260
202,2.682165,12.2928,426.4310
203,2.674754,12.2947,426.4360
204,2.672065,12.2947,426.4410
205,2.664967,12.2966,426.4460
206,2.661857,12.2966,426.4510
207,2.656820,12.2991,426.4560
208,2.652369,12.2991,426.4610
209,2.646743,12.3009,426.4660
210,2.642385,12.3009,426.4710
211,2.635474,12.3028,426.4760
212,2.630723,12.3028,426.4810
213,2.622072,12.3047,426.4860
214,2.619813,12.3047,426.4910
215,2.612944,12.3065,426.4960
216,2.609834,12.3065,426.5010
217,2.603045,12.3090,426.5060
218,2.596872,12.3090,426.5110
219,2.589694,12.3109,426.5160
220,2.585466,12.3109,426.5210
221,2.579715,12.3128,426.5260
222,2.576857,12.3128,426.5310
223,2.570938,12.3146,426.5360
224,2.568875,12.3146,426.5410
225,2.561389,12.3165,426.5460
226,2.557167,12.3165,426.5510
227,2.550784,12.3190,426.5560
228,2.545649,12.3190,426.5610
229,2.539893,12.3209,426.5660
230,2.535918,12.3209,426.5710
231,2.530114,12.3227,426.5760
232,2.525925,12.3227,426.5810
233,2.518069,12.3246,426.5860
234,2.516296,12.3246,426.5910
235,2.509750,12.3265,426.5960
236,2.506645,12.3265,426.6010
237,2.500566,12.3290,426.6060
238,2.494665,12.3290,426.6110
239,2.487833,12.3308,426.6160
240,2.483484,12.3308,426.6210
241,2.477139,12.3327,426.6260
242,2.473238,12.3327,426.6310
243,2.466257,12.3346,426.6360
244,2.464475,12.3346,426.6410
245,2.457994,12.3365,426.6460
246,2.454277,12.3364,426.6510
247,2.448061,12.3389,426.6560
248,2.443339,12.3389,426.6610
249,2.438546,12.3408,426.6660
250,2.435212,12.3408,426.6710
251,2.430442,12.3427,426.6760
252,2.427459,12.3427,426.6810
253,2.420459,12.3446,426.6860
254,2.418064,12.3446,426.6910
255,2.411181,12.3464,426.6960
256,2.408029,12.3464,426.7010
257,2.402586,12.3489,426.7060
258,2.397423,12.3489,426.7110
259,2.391228,12.3508,426.7160
260,2.387356,12.3508,426.7210
261,2.380963,12.3527,426.7260
262,2.377162,12.3527,426.7310
263,2.369240,12.3545,426.7360
264,2.367875,12.3545,426.7410
265,2.362175,12.3564,426.7460
266,2.358322,12.3564,426.7510
267,2.350976,12.3589,426.7560
268,2.345672,12.3589,426.7610
269,2.340454,12.3608,426.7660
270,2.337615,12.3608,426.7710
271,2.333762,12.3626,426.7760
272,2.330844,12.3626,426.7810
273,2.322600,12.3645,426.7860
274,2.319537,12.3645,426.7910
275,2.313093,12.3664,426.7960
276,2.310115,12.3664,426.8010
277,2.304742,12.3689,426.8060
278,2.299692,12.3689,426.8110
279,2.294417,12.3707,426.8160
280,2.290956,12.3707,426.8210
281,2.286178,12.3726,426.8260
282,2.283451,12.3726,426.8310
283,2.277854,12.3745,426.8360
284,2.276680,12.3745,426.8410
285,2.272986,12.3763,426.8460
286,2.270788,12.3763,426.8510
287,2.266481,12.3788,426.8560
288,2.263353,12.3788,426.8610
289,2.259243,12.3807,426.8660
290,2.256502,12.3807,426.8710
291,2.252579,12.3826,426.8760
292,2.249708,12.3826,426.8810
293,2.245116,12.3844,426.8860
294,2.243619,12.3844,426.8910
295,2.239266,12.3863,426.8960
296,2.237045,12.3863,426.9010
297,2.235170,12.3888,426.9060
298,2.233290,12.3888,426.9110
299,2.229675,12.3907,426.9160
300,2.225645,12.3907,426.9210
301,2.219991,12.3926,426.9260
302,2.216675,12.3926,426.9310
303,2.209362,12.3944,426.9360
304,2.207314,12.3944,426.9410
305,2.202109,12.3963,426.9460
306,2.199818,12.3963,426.9510
307,2.195034,12.3988,426.9560
308,2.190493,12.3988,426.9610
309,2.184995,12.4007,426.9660
310,2.181468,12.4007,426.9710
311,2.177110,12.4025,426.9760
312,2.174337,12.4025,426.9810
313,2.166842,12.4044,426.9860
314,2.163942,12.4044,426.9910
315,2.157901,12.4063,426.9960
316,2.154665,12.4063,427.0010
317,2.147851,12.4088,427.0060
318,2.142610,12.4088,427.0110
319,2.137764,12.4106,427.0160
320,2.134487,12.4106,427.0210
321,2.129418,12.4125,427.0260
322,2.126336,12.4125,427.0310
323,2.119355,12.4144,427.0360
324,2.117026,12.4144,427.0410
325,2.111298,12.4162,427.0460
326,2.108413,12.4162,427.0510
327,2.103287,12.4187,427.0560
328,2.099159,12.4187,427.0610
329,2.093407,12.4206,427.0660
330,2.089399,12.4206,427.0710
331,2.084321,12.4225,427.0760
332,2.081248,12.4225,427.0810
333,2.075376,12.4244,427.0860
334,2.073828,12.4243,427.0910
335,2.068403,12.4262,427.0960
336,2.064929,12.4262,427.1010
337,2.059780,12.4287,427.1060
338,2.055497,12.4287,427.1110
339,2.050727,12.4306,427.1160
340,2.047454,12.4306,427.1210
341,2.041684,12.4325,427.1260
342,2.037676,12.4325,427.1310
343,2.028847,12.4343,427.1360
344,2.026173,12.4343,427.1410
345,2.020987,12.4362,427.1460
346,2.018485,12.4362,427.1510
347,2.013823,12.4387,427.1560
348,2.010512,12.4387,427.1610
349,2.005433,12.4406,427.1660
350,2.002324,12.4406,427.1710
351,1.998494,12.4424,427.1760
352,1.995343,12.4424,427.1810
353,1.988632,12.4443,427.1860
354,1.986598,12.4443,427.1910
355,1.982006,12.4462,427.1960
356,1.979532,12.4462,427.2010
357,1.974361,12.4487,427.2060
358,1.969338,12.4487,427.2110
359,1.964372,12.4505,427.2160
360,1.961978,12.4505,427.2210
361,1.957812,12.4524,427.2260
362,1.954454,12.4524,427.2310
363,1.947094,12.4543,427.2360
364,1.945326,12.4543,427.2410
365,1.940701,12.4561,427.2460
366,1.938289,12.4561,427.2510
367,1.933355,12.4586,427.2560
368,1.929554,12.4586,427.2610
369,1.923961,12.4605,427.2660
370,1.920486,12.4605,427.2710
371,1.916077,12.4624,427.2760
372,1.912649,12.4624,427.2810
373,1.905018,12.4642,427.2860
374,1.902656,12.4642,427.2910
375,1.898663,12.4661,427.2960
376,1.895633,12.4661,427.3010
377,1.890563,12.4686,427.3060
378,1.885906,12.4686,427.3110
379,1.880346,12.4705,427.3160
380,1.876858,12.4705,427.3210
381,1.871607,12.4724,427.3260
382,1.868048,12.4724,427.3310
383,1.861174,12.4742,427.3360
384,1.859228,12.4742,427.3410
385,1.854632,12.4761,427.3460
386,1.852513,12.4761,427.3510
387,1.848085,12.4786,427.3560
388,1.844602,12.4786,427.3610
389,1.839701,12.4805,427.3660
390,1.836989,12.4805,427.3710
391,1.832546,12.4823,427.3760
392,1.829418,12.4823,427.3810
393,1.821669,12.4842,427.3860
394,1.818733,12.4842,427.3910
395,1.814417,12.4861,427.3960
396,1.811723,12.4861,427.4010
397,1.806874,12.4886,427.4060
398,1.802348,12.4886,427.4110
399,1.797326,12.4904,427.4160
400,1.794847,12.4904,427.4210
401,1.790503,12.4923,427.4260
402,1.787608,12.4923,427.4310
403,1.781221,12.4942,427.4360
404,1.779991,12.4942,427.4410
405,1.776030,12.4960,427.4460
406,1.773393,12.4960,427.4510
407,1.768754,12.4985,427.4560
408,1.765265,12.4985,427.4610
409,1.759860,12.5004,427.4660
410,1.757774,12.5004,427.4710
411,1.754529,12.5023,427.4760
412,1.751003,12.5023,427.4810
413,1.744153,12.5042,427.4860
414,1.741431,12.5042,427.4910
415,1.737615,12.5060,427.4960
416,1.733444,12.5060,427.5020
417,1.730376,12.5085,427.5070
418,1.724639,12.5085,427.5120
419,1.722450,12.5110,427.5170
420,1.718261,12.5110,427.5220
421,1.715310,12.5123,427.5270
422,1.710349,12.5123,427.5320
423,1.704929,12.5141,427.5370
424,1.701211,12.5141,427.5420
425,1.696989,12.5160,427.5470
426,1.693206,12.5160,427.5520
427,1.689778,12.5185,427.5570
428,1.683456,12.5185,427.5620
429,1.681005,12.5204,427.5670
430,1.678434,12.5204,427.5720
431,1.676334,12.5222,427.5770
432,1.672065,12.5222,427.5820
433,1.667674,12.5241,427.5870
434,1.664054,12.5241,427.5920
435,1.660108,12.5241,427.5970
436,1.655329,12.5260,427.6020
437,1.652013,12.5285,427.6070
438,1.645892,12.5285,427.6120
439,1.643643,12.5303,427.6170
440,1.640229,12.5303,427.6220
441,1.637723,12.5322,427.6270
442,1.633173,12.5322,427.6320
443,1.628282,12.5341,427.6370
444,1.625654,12.5341,427.6420
445,1.622600,12.5360,427.6470
446,1.618073,12.5360,427.6520
447,1.614655,12.5385,427.6570
448,1.609465,12.5384,427.6620
449,1.607197,12.5403,427.6670
450,1.603441,12.5403,427.6720
451,1.600599,12.5422,427.6770
452,1.595254,12.5422,427.6820
453,1.590372,12.5422,427.6870
454,1.586519,12.5441,427.6920
455,1.582900,12.5441,427.6970
456,1.579285,12.5459,427.7020
457,1.576208,12.5484,427.7070
458,1.569006,12.5484,427.7120
459,1.565794,12.5503,427.7170
460,1.561688,12.5503,427.7220
461,1.558794,12.5522,427.7270
462,1.554655,12.5522,427.7320
463,1.551041,12.5540,427.7370
464,1.549572,12.5540,427.7420
465,1.546911,12.5559,427.7470
466,1.543432,12.5559,427.7520
467,1.540182,12.5578,427.7570
468,1.534711,12.5578,427.7620
469,1.531723,12.5603,427.7670
470,1.526944,12.5603,427.7720
471,1.524695,12.5621,427.7770
472,1.520108,12.5621,427.7820
473,1.515286,12.5621,427.7870
474,1.511386,12.5640,427.7920
475,1.508511,12.5640,427.7970
476,1.504349,12.5659,427.8020
477,1.501632,12.5684,427.8070
478,1.496081,12.5684,427.8120
479,1.493673,12.5703,427.8170
480,1.489722,12.5703,427.8220
481,1.487215,12.5721,427.8270
482,1.482806,12.5721,427.8320
483,1.478158,12.5740,427.8370
484,1.475417,12.5740,427.8420
485,1.471840,12.5759,427.8470
486,1.467351,12.5759,427.8520
487,1.463568,12.5784,427.8570
488,1.457063,12.5784,427.8620
489,1.454262,12.5802,427.8670
490,1.451517,12.5802,427.8720
491,1.449324,12.5821,427.8770
492,1.444167,12.5821,427.8820
493,1.439593,12.5821,427.8870
494,1.435506,12.5840,427.8920
495,1.432364,12.5840,427.8970
496,1.428249,12.5858,427.9020
497,1.426154,12.5858,427.9070
498,1.421800,12.5883,427.9120
499,1.418747,12.5902,427.9170
500,1.415258,12.5902,427.9220
501,1.413131,12.5902,427.9270
502,1.407697,12.5921,427.9320
503,1.401693,12.5921,427.9370
504,1.398373,12.5940,427.9420
505,1.395240,12.5958,427.9470
506,1.391045,12.5958,427.9520
507,1.387744,12.5983,427.9570
508,1.382927,12.5983,427.9620
509,1.380865,12.6002,427.9670
510,1.378532,12.6002,427.9720
511,1.376900,12.6021,427.9770
512,1.372111,12.6021,427.9820
513,1.367094,12.6039,427.9870
514,1.363054,12.6039,427.9920
515,1.359724,12.6058,427.9970
516,1.354300,12.6058,428.0020
517,1.350788,12.6083,428.0070
518,1.344630,12.6083,428.0120
519,1.342642,12.6083,428.0170
520,1.340140,12.6102,428.0220
521,1.337755,12.6102,428.0270
522,1.333285,12.6120,428.0320
523,1.329423,12.6120,428.0370
524,1.327253,12.6139,428.0420
525,1.325424,12.6158,428.0470
526,1.322974,12.6158,428.0520
527,1.320907,12.6183,428.0570
528,1.316343,12.6183,428.0620
529,1.313627,12.6202,428.0670
530,1.310484,12.6202,428.0720
531,1.308146,12.6220,428.0770
532,1.303718,12.6220,428.0820
533,1.299897,12.6239,428.0870
534,1.296502,12.6239,428.0920
535,1.293598,12.6258,428.0970
536,1.289890,12.6258,428.1020
537,1.287749,12.6258,428.1070
538,1.282782,12.6283,428.1120
539,1.279850,12.6283,428.1170
540,1.275333,12.6301,428.1220
541,1.272163,12.6301,428.1270
542,1.267660,12.6320,428.1320
543,1.264208,12.6320,428.1370
544,1.262277,12.6339,428.1420
545,1.259794,12.6357,428.1470
546,1.256152,12.6357,428.1520
547,1.253107,12.6382,428.1570
548,1.246837,12.6382,428.1620
549,1.243737,12.6401,428.1670
550,1.240402,12.6401,428.1720
551,1.238438,12.6420,428.1770
552,1.233795,12.6420,428.1820
553,1.229745,12.6439,428.1870
554,1.226304,12.6438,428.1920
555,1.224134,12.6438,428.1970
556,1.220084,12.6457,428.2020
557,1.216923,12.6457,428.2070
558,1.211433,12.6482,428.2120
559,1.209086,12.6482,428.2170
560,1.207150,12.6501,428.2220
561,1.205303,12.6501,428.2270
562,1.200720,12.6520,428.2320
563,1.195941,12.6520,428.2370
564,1.191901,12.6538,428.2420
565,1.189544,12.6538,428.2470
566,1.186327,12.6557,428.2520
567,1.183713,12.6557,428.2570
568,1.179135,12.6576,428.2620
569,1.176643,12.6576,428.2670
570,1.173599,12.6601,428.2720
571,1.171134,12.6601,428.2770
572,1.167454,12.6619,428.2820
573,1.163835,12.6619,428.2870
574,1.160496,12.6638,428.2920
575,1.158055,12.6638,428.2970
576,1.153365,12.6657,428.3020
577,1.150255,12.6657,428.3070
578,1.145397,12.6682,428.3120
579,1.142497,12.6682,428.3170
580,1.138616,12.6700,428.3220
581,1.136119,12.6700,428.3270
582,1.131073,12.6719,428.3320
583,1.125901,12.6719,428.3370
584,1.122460,12.6738,428.3420
585,1.119949,12.6738,428.3470
586,1.116657,12.6757,428.3520
587,1.114127,12.6757,428.3570
588,1.109118,12.6775,428.3620
589,1.105855,12.6775,428.3670
590,1.102343,12.6800,428.3720
591,1.100543,12.6800,428.3770
592,1.097395,12.6819,428.3820
593,1.094117,12.6819,428.3870
594,1.090587,12.6838,428.3920
595,1.087739,12.6838,428.3970
596,1.082909,12.6856,428.4020
597,1.080585,12.6856,428.4070
598,1.075997,12.6881,428.4120
599,1.074174,12.6881,428.4170
600,1.072200,12.6900,428.4220
601,1.070680,12.6900,428.4270
602,1.065901,12.6919,428.4320
603,1.060701,12.6919,428.4370
604,1.056147,12.6937,428.4420
605,1.053388,12.6937,428.4470
606,1.050718,12.6956,428.4520
607,1.049278,12.6956,428.4570
608,1.044517,12.6975,428.4620
609,1.040215,12.6975,428.4670
610,1.036138,12.7000,428.4720
611,1.034239,12.7000,428.4770
612,1.031611,12.7019,428.4820
613,1.028997,12.7019,428.4870
614,1.025135,12.7037,428.4920
615,1.022806,12.7037,428.4970
616,1.017999,12.7056,428.5020
617,1.014926,12.7056,428.5070
618,1.009282,12.7081,428.5120
619,1.006121,12.7081,428.5170
620,1.003301,12.7100,428.5220
621,1.001253,12.7100,428.5270
622,0.996194,12.7118,428.5320
623,0.991522,12.7118,428.5370
624,0.988109,12.7137,428.5420
625,0.986659,12.7137,428.5470
626,0.984349,12.7156,428.5520
627,0.982969,12.7156,428.5570
628,0.979472,12.7175,428.5620
629,0.976184,12.7175,428.5670
630,0.971873,12.7199,428.5720
631,0.968801,12.7199,428.5770
632,0.963685,12.7218,428.5820
633,0.960009,12.7218,428.5870
634,0.956788,12.7237,428.5920
635,0.955305,12.7237,428.5970
636,0.951457,12.7256,428.6020
637,0.948469,12.7256,428.6070
638,0.942357,12.7274,428.6120
639,0.938686,12.7274,428.6170
640,0.935431,12.7299,428.6220
641,0.933734,12.7299,428.6270
642,0.930016,12.7318,428.6320
643,0.925780,12.7318,428.6370
644,0.921506,12.7337,428.6420
645,0.918784,12.7337,428.6470
646,0.914225,12.7355,428.6520
647,0.911050,12.7355,428.6570
