Point No.,Normal Force [N],Gap [mm],Time [s]
1,4.280411,11.4025,580.4700
2,4.280393,11.4025,580.4750
3,4.279924,11.4025,580.4800
4,4.279691,11.4025,580.4850
5,4.279181,11.4025,580.4901
6,4.278677,11.4025,580.4951
7,4.278088,11.4025,580.5000
8,4.278392,11.4025,580.5050
9,4.277887,11.4025,580.5090
10,4.274520,11.4050,580.5140
11,4.267534,11.4050,580.5190
12,4.258298,11.4075,580.5240
13,4.249572,11.4075,580.5291
14,4.232163,11.4112,580.5341
15,4.218934,11.4112,580.5390
16,4.205636,11.4137,580.5450
17,4.186383,11.4137,580.5500
18,4.174062,11.4168,580.5551
19,4.156913,11.4168,580.5600
20,4.146790,11.4193,580.5650
21,4.126725,11.4193,580.5700
22,4.117218,11.4224,580.5750
23,4.102726,11.4224,580.5800
24,4.090148,11.4255,580.5850
25,4.072682,11.4255,580.5900
26,4.062545,11.4280,580.5950
27,4.046789,11.4280,580.6000
28,4.033692,11.4318,580.6050
29,4.019686,11.4317,580.6100
30,4.010138,11.4349,580.6140
31,3.998981,11.4349,580.6190
32,3.986322,11.4374,580.6240
33,3.979098,11.4373,580.6290
34,3.968436,11.4411,580.6340
35,3.960487,11.4411,580.6390
36,3.952275,11.4430,580.6440
37,3.945111,11.4430,580.6490
38,3.929245,11.4461,580.6541
39,3.919140,11.4461,580.6591
40,3.906636,11.4492,580.6640
41,3.894253,11.4492,580.6690
42,3.877896,11.4523,580.6740
43,3.870559,11.4523,580.6790
44,3.856414,11.4560,580.6840
45,3.846561,11.4560,580.6890
46,3.834426,11.4579,580.6940
47,3.826276,11.4579,580.6990
48,3.808277,11.4616,580.7040
49,3.799014,11.4616,580.7090
50,3.787660,11.4641,580.7141
51,3.777021,11.4641,580.7191
52,3.761309,11.4672,580.7240
53,3.753014,11.4672,580.7290
54,3.739659,11.4710,580.7340
55,3.727239,11.4709,580.7390
56,3.715361,11.4734,580.7440
57,3.706616,11.4734,580.7490
58,3.690975,11.4766,580.7540
59,3.681511,11.4765,580.7590
60,3.669105,11.4790,580.7640
61,3.657461,11.4790,580.7690
62,3.641683,11.4821,580.7740
63,3.634726,11.4821,580.7791
64,3.622380,11.4859,580.7841
65,3.612673,11.4859,580.7890
66,3.600575,11.4877,580.7940
67,3.594202,11.4877,580.7990
68,3.575880,11.4915,580.8040
69,3.567108,11.4915,580.8090
70,3.555174,11.4946,580.8140
71,3.545158,11.4946,580.8190
72,3.531700,11.4971,580.8240
73,3.523904,11.4971,580.8290
74,3.511788,11.5008,580.8340
75,3.500851,11.5008,580.8391
76,3.490087,11.5033,580.8441
77,3.483264,11.5033,580.8490
78,3.470522,11.5064,580.8540
79,3.462783,11.5064,580.8590
80,3.453949,11.5089,580.8640
81,3.443503,11.5089,580.8690
82,3.427225,11.5120,580.8740
83,3.419294,11.5120,580.8790
84,3.405476,11.5158,580.8840
85,3.395623,11.5158,580.8890
86,3.382404,11.5182,580.8940
87,3.376404,11.5182,580.8990
88,3.360468,11.5214,580.9041
89,3.352201,11.5214,580.9091
90,3.342773,11.5238,580.9140
91,3.334080,11.5238,580.9190
92,3.320014,11.5270,580.9240
93,3.312860,11.5270,580.9290
94,3.300519,11.5307,580.9340
95,3.288796,11.5307,580.9390
96,3.277489,11.5332,580.9440
97,3.270316,11.5332,580.9490
98,3.257222,11.5363,580.9540
99,3.248688,11.5363,580.9590
100,3.239411,11.5388,580.9641
101,3.230008,11.5388,580.9691
102,3.213930,11.5419,580.9740
103,3.205953,11.5419,580.9790
104,3.194365,11.5450,580.9840
105,3.185682,11.5450,580.9890
106,3.175750,11.5481,580.9940
107,3.171546,11.5481,580.9990
108,3.155838,11.5512,581.0040
109,3.146869,11.5512,581.0090
110,3.135156,11.5543,581.0140
111,3.125948,11.5543,581.0190
112,3.113346,11.5568,581.0240
113,3.106692,11.5568,581.0291
114,3.097035,11.5606,581.0341
115,3.086995,11.5606,581.0390
116,3.075338,11.5631,581.0440
117,3.069044,11.5631,581.0490
118,3.057138,11.5662,581.0540
119,3.049502,11.5662,581.0590
120,3.041455,11.5687,581.0640
121,3.032720,11.5687,581.0690
122,3.018209,11.5718,581.0740
123,3.010798,11.5718,581.0790
124,2.998775,11.5755,581.0840
125,2.990180,11.5755,581.0891
126,2.978813,11.5780,581.0941
127,2.974375,11.5780,581.0990
128,2.961319,11.5811,581.1040
129,2.953005,11.5811,581.1090
130,2.942006,11.5836,581.1140
131,2.933388,11.5836,581.1190
132,2.920851,11.5867,581.1240
133,2.914515,11.5867,581.1290
134,2.905074,11.5905,581.1340
135,2.894408,11.5905,581.1390
136,2.882394,11.5929,581.1440
137,2.874819,11.5929,581.1490
138,2.863180,11.5961,581.1541
139,2.856377,11.5961,581.1591
140,2.848689,11.5986,581.1640
141,2.840832,11.5986,581.1690
142,2.827374,11.6017,581.1740
143,2.820393,11.6017,581.1790
144,2.809437,11.6054,581.1840
145,2.801595,11.6054,581.1890
146,2.791167,11.6079,581.1940
147,2.785981,11.6079,581.1990
148,2.770550,11.6110,581.2040
149,2.762231,11.6110,581.2090
150,2.752017,11.6141,581.2141
151,2.744232,11.6141,581.2191
152,2.733533,11.6166,581.2240
153,2.726869,11.6166,581.2290
154,2.717321,11.6204,581.2340
155,2.706930,11.6203,581.2390
156,2.695497,11.6228,581.2440
157,2.688646,11.6228,581.2490
158,2.675946,11.6260,581.2540
159,2.668493,11.6260,581.2590
160,2.660501,11.6284,581.2640
161,2.652252,11.6284,581.2690
162,2.639037,11.6322,581.2740
163,2.632396,11.6322,581.2791
164,2.621464,11.6353,581.2841
165,2.613986,11.6353,581.2890
166,2.604470,11.6378,581.2940
167,2.600520,11.6378,581.2990
168,2.586851,11.6409,581.3040
169,2.578700,11.6409,581.3090
170,2.568890,11.6434,581.3140
171,2.561099,11.6434,581.3190
172,2.549890,11.6465,581.3240
173,2.542918,11.6465,581.3290
174,2.532865,11.6502,581.3340
175,2.522310,11.6502,581.3391
176,2.512546,11.6527,581.3441
177,2.506626,11.6527,581.3490
178,2.494576,11.6558,581.3540
179,2.486813,11.6558,581.3590
180,2.477803,11.6583,581.3640
181,2.469596,11.6583,581.3690
182,2.455875,11.6614,581.3740
183,2.449286,11.6614,581.3790
184,2.439654,11.6652,581.3840
185,2.431494,11.6652,581.3890
186,2.420585,11.6677,581.3940
187,2.416409,11.6677,581.3990
188,2.403156,11.6708,581.4041
189,2.395918,11.6708,581.4091
190,2.386687,11.6739,581.4140
191,2.378621,11.6739,581.4190
192,2.367557,11.6764,581.4240
193,2.361417,11.6764,581.4290
194,2.352401,11.6801,581.4340
195,2.342506,11.6801,581.4390
196,2.331634,11.6826,581.4440
197,2.325074,11.6826,581.4490
198,2.313145,11.6857,581.4540
199,2.306056,11.6857,581.4590
200,2.298228,11.6889,581.4641
201,2.290283,11.6889,581.4691
202,2.277742,11.6920,581.4740
203,2.272046,11.6920,581.4790
204,2.260696,11.6951,581.4840
205,2.252228,11.6951,581.4890
206,2.241730,11.6976,581.4940
207,2.237213,11.6976,581.4990
208,2.227155,11.7007,581.5040
209,2.221557,11.7007,581.5090
210,2.214534,11.7038,581.5140
211,2.209174,11.7038,581.5190
212,2.201188,11.7063,581.5240
213,2.196470,11.7063,581.5291
214,2.189708,11.7100,581.5341
215,2.182652,11.7100,581.5390
216,2.176764,11.7125,581.5440
217,2.172228,11.7125,581.5490
218,2.161950,11.7157,581.5540
219,2.155497,11.7156,581.5590
220,2.148085,11.7188,581.5640
221,2.140477,11.7188,581.5690
222,2.127945,11.7213,581.5740
223,2.122062,11.7213,581.5790
224,2.111653,11.7250,581.5840
225,2.103171,11.7250,581.5891
226,2.091817,11.7269,581.5941
227,2.086687,11.7269,581.5990
228,2.072826,11.7306,581.6040
229,2.066032,11.7306,581.6090
230,2.057784,11.7337,581.6140
231,2.049900,11.7337,581.6190
232,2.038990,11.7362,581.6240
233,2.032934,11.7362,581.6290
234,2.023904,11.7399,581.6340
235,2.013294,11.7399,581.6390
236,2.002600,11.7424,581.6440
237,1.996418,11.7424,581.6490
238,1.984036,11.7455,581.6541
239,1.976072,11.7455,581.6591
240,1.967187,11.7487,581.6640
241,1.958901,11.7487,581.6690
242,1.945827,11.7518,581.6740
243,1.940486,11.7518,581.6790
244,1.931055,11.7549,581.6840
245,1.923507,11.7549,581.6890
246,1.913075,11.7574,581.6940
247,1.908731,11.7574,581.6990
248,1.895754,11.7605,581.7040
249,1.888973,11.7605,581.7090
250,1.880299,11.7636,581.7141
251,1.872658,11.7636,581.7191
252,1.860327,11.7661,581.7240
253,1.853121,11.7661,581.7290
254,1.844686,11.7698,581.7340
255,1.834945,11.7698,581.7390
256,1.825616,11.7723,581.7440
257,1.819486,11.7723,581.7490
258,1.807973,11.7754,581.7540
259,1.800730,11.7754,581.7590
260,1.791396,11.7786,581.7640
261,1.782689,11.7786,581.7690
262,1.769194,11.7810,581.7740
263,1.762839,11.7810,581.7791
264,1.753290,11.7848,581.7841
265,1.745602,11.7848,581.7890
266,1.735114,11.7866,581.7940
267,1.730633,11.7866,581.7990
268,1.716839,11.7904,581.8040
269,1.710152,11.7904,581.8090
270,1.702689,11.7935,581.8140
271,1.696283,11.7935,581.8190
272,1.686435,11.7960,581.8240
273,1.679822,11.7960,581.8290
274,1.670409,11.7997,581.8340
275,1.659678,11.7997,581.8391
276,1.648412,11.8022,581.8441
277,1.642020,11.8022,581.8490
278,1.630507,11.8053,581.8540
279,1.623367,11.8053,581.8590
280,1.615717,11.8085,581.8640
281,1.608440,11.8084,581.8690
282,1.596446,11.8109,581.8740
283,1.590512,11.8109,581.8790
284,1.579523,11.8147,581.8840
285,1.571817,11.8147,581.8890
286,1.562277,11.8165,581.8940
287,1.558396,11.8165,581.8990
288,1.544671,11.8203,581.9041
289,1.536722,11.8203,581.9091
290,1.527337,11.8228,581.9140
291,1.519902,11.8228,581.9190
292,1.508876,11.8259,581.9240
293,1.502717,11.8259,581.9290
294,1.493930,11.8296,581.9340
295,1.483998,11.8296,581.9390
296,1.473673,11.8321,581.9440
297,1.466977,11.8321,581.9490
298,1.455726,11.8352,581.9540
299,1.449147,11.8352,581.9590
300,1.441693,11.8383,581.9641
301,1.435015,11.8383,581.9691
302,1.422568,11.8408,581.9740
303,1.416802,11.8408,581.9790
304,1.407599,11.8440,581.9840
305,1.399626,11.8440,581.9890
306,1.388997,11.8464,581.9940
307,1.384181,11.8464,581.9990
308,1.370419,11.8502,582.0040
309,1.362960,11.8502,582.0090
310,1.353921,11.8533,582.0140
311,1.345602,11.8533,582.0190
312,1.333103,11.8558,582.0240
313,1.325925,11.8558,582.0291
314,1.317494,11.8595,582.0341
315,1.308001,11.8595,582.0390
316,1.297035,11.8620,582.0440
317,1.291054,11.8620,582.0490
318,1.280861,11.8651,582.0540
319,1.274632,11.8651,582.0590
320,1.268029,11.8682,582.0640
321,1.260641,11.8682,582.0690
322,1.248356,11.8707,582.0740
323,1.243348,11.8707,582.0790
324,1.233902,11.8745,582.0840
325,1.226650,11.8745,582.0891
326,1.217499,11.8763,582.0941
327,1.213411,11.8763,582.0990
328,1.200875,11.8801,582.1040
329,1.192724,11.8801,582.1090
330,1.183114,11.8832,582.1140
331,1.176516,11.8832,582.1190
332,1.167183,11.8857,582.1240
333,1.161800,11.8857,582.1290
334,1.154122,11.8894,582.1340
335,1.144330,11.8894,582.1390
336,1.135239,11.8919,582.1440
337,1.129895,11.8919,582.1490
338,1.119631,11.8950,582.1541
339,1.113178,11.8950,582.1591
340,1.104522,11.8975,582.1640
341,1.097236,11.8975,582.1690
342,1.083989,11.9006,582.1740
343,1.077882,11.9006,582.1790
344,1.068782,11.9038,582.1840
345,1.061768,11.9038,582.1890
346,1.052616,11.9062,582.1940
347,1.048717,11.9062,582.1990
348,1.036058,11.9100,582.2040
349,1.028674,11.9100,582.2090
350,1.019514,11.9131,582.2141
351,1.012266,11.9131,582.2191
352,1.002076,11.9156,582.2240
353,0.995604,11.9156,582.2290
354,0.988249,11.9193,582.2340
355,0.978840,11.9193,582.2390
356,0.967973,11.9218,582.2440
357,0.961913,11.9218,582.2490
358,0.951368,11.9249,582.2540
359,0.945457,11.9249,582.2590
360,0.938719,11.9281,582.2640
361,0.931934,11.9281,582.2690
362,0.919472,11.9305,582.2740
363,0.913972,11.9305,582.2791
364,0.904372,11.9343,582.2841
365,0.897147,11.9343,582.2890
366,0.887033,11.9361,582.2940
367,0.882619,11.9361,582.2990
368,0.869792,11.9399,582.3040
369,0.862062,11.9399,582.3090
370,0.853800,11.9430,582.3140
371,0.847819,11.9430,582.3190
372,0.838911,11.9455,582.3240
373,0.833439,11.9455,582.3290
374,0.826173,11.9492,582.3340
375,0.817330,11.9492,582.3391
376,0.808132,11.9517,582.3441
377,0.802109,11.9517,582.3490
378,0.791321,11.9548,582.3540
379,0.785326,11.9548,582.3590
380,0.777746,11.9573,582.3640
381,0.771040,11.9573,582.3690
382,0.758204,11.9604,582.3740
383,0.752350,11.9604,582.3790
384,0.744634,11.9636,582.3840
385,0.737905,11.9636,582.3890
386,0.728908,11.9661,582.3940
387,0.725621,11.9661,582.3990
388,0.714047,11.9698,582.4041
389,0.707033,11.9698,582.4091
390,0.698176,11.9729,582.4140
391,0.691045,11.9729,582.4190
392,0.680884,11.9754,582.4240
393,0.674477,11.9754,582.4290
394,0.667248,11.9791,582.4340
395,0.657732,11.9791,582.4390
396,0.647328,11.9810,582.4440
397,0.641478,11.9810,582.4490
398,0.630970,11.9841,582.4540
399,0.624985,11.9841,582.4590
400,0.618854,11.9872,582.4641
401,0.613131,11.9872,582.4691
402,0.601066,11.9904,582.4740
403,0.596091,11.9904,582.4790
404,0.586678,11.9941,582.4840
405,0.579542,11.9941,582.4890
406,0.570367,11.9966,582.4940
407,0.566449,11.9966,582.4990
408,0.553589,11.9997,582.5040
409,0.545640,11.9997,582.5090
410,0.536942,12.0022,582.5140
411,0.529287,12.0022,582.5190
412,0.516801,12.0053,582.5240
413,0.510344,12.0053,582.5291
414,0.502684,12.0090,582.5341
415,0.491368,12.0090,582.5390
416,0.481057,12.0115,582.5450
417,0.469600,12.0115,582.5500
418,0.461080,12.0146,582.5551
419,0.452322,12.0146,582.5600
420,0.448590,12.0171,582.5650
421,0.437662,12.0171,582.5700
422,0.430264,12.0203,582.5750
423,0.422740,12.0202,582.5800
424,0.417568,12.0234,582.5850
425,0.409708,12.0234,582.5900
426,0.405167,12.0259,582.5950
427,0.400014,12.0259,582.6000
428,0.393556,12.0296,582.6050
429,0.386317,12.0296,582.6100
430,0.381997,12.0327,582.6151
431,0.374197,12.0327,582.6201
432,0.369787,12.0352,582.6250
433,0.363554,12.0352,582.6300
434,0.359182,12.0390,582.6350
435,0.348548,12.0390,582.6400
436,0.344195,12.0408,582.6450
437,0.338522,12.0408,582.6500
438,0.332715,12.0439,582.6550
439,0.325158,12.0439,582.6600
440,0.322001,12.0471,582.6650
441,0.311751,12.0471,582.6700
442,0.305139,12.0502,582.6750
443,0.298181,12.0502,582.6801
444,0.292345,12.0539,582.6850
445,0.282885,12.0539,582.6900
446,0.277246,12.0558,582.6950
447,0.270825,12.0558,582.7000
448,0.262226,12.0595,582.7050
449,0.253968,12.0595,582.7100
450,0.250624,12.0620,582.7150
451,0.242516,12.0620,582.7200
452,0.237484,12.0651,582.7250
453,0.231938,12.0651,582.7300
454,0.227374,12.0689,582.7350
455,0.214318,12.0689,582.7401
456,0.209483,12.0714,582.7451
457,0.201356,12.0714,582.7500
458,0.194487,12.0745,582.7550
459,0.186491,12.0745,582.7600
460,0.183736,12.0770,582.7650
461,0.176151,12.0770,582.7700
462,0.171574,12.0801,582.7750
463,0.166799,12.0801,582.7800
464,0.163376,12.0832,582.7850
465,0.158401,12.0832,582.7900
466,0.155427,12.0857,582.7950
467,0.152532,12.0857,582.8000
468,0.147370,12.0895,582.8051
469,0.143591,12.0895,582.8100
470,0.141197,12.0926,582.8150
471,0.135043,12.0926,582.8200
472,0.131139,12.0951,582.8250
473,0.126308,12.0951,582.8300
474,0.122754,12.0988,582.8350
475,0.114716,12.0988,582.8400
476,0.112027,12.1007,582.8450
477,0.107594,12.1007,582.8500
478,0.101838,12.1038,582.8550
479,0.093210,12.1038,582.8600
480,0.090129,12.1038,582.8651
481,0.078878,12.1075,582.8701
482,0.069483,12.1100,582.8750
483,0.064414,12.1100,582.8800
484,0.061422,12.1138,582.8850
485,0.052518,12.1138,582.8900
486,0.045429,12.1157,582.8950
487,0.034234,12.1156,582.9000
488,0.023545,12.1194,582.9050
489,0.012574,12.1194,582.9100
490,0.007613,12.1219,582.9150
491,-0.001496,12.1219,582.9200
492,-0.008146,12.1250,582.9250
493,-0.015586,12.1250,582.9301
494,-0.020369,12.1287,582.9350
495,-0.031363,12.1287,582.9400
496,-0.035212,12.1312,582.9450
497,-0.041604,12.1312,582.9500
498,-0.047253,12.1312,582.9550
499,-0.054300,12.1343,582.9600
500,-0.057531,12.1343,582.9650
501,-0.065929,12.1375,582.9700
502,-0.071588,12.1400,582.9750
503,-0.077017,12.1400,582.9800
504,-0.082043,12.1431,582.9850
505,-0.091985,12.1431,582.9901
506,-0.097087,12.1456,582.9951
507,-0.102090,12.1456,583.0000
508,-0.109488,12.1493,583.0050
509,-0.116979,12.1493,583.0100
510,-0.121043,12.1524,583.0150
511,-0.129170,12.1524,583.0200
512,-0.134150,12.1549,583.0250
513,-0.140931,12.1549,583.0300
514,-0.145298,12.1587,583.0350
515,-0.155749,12.1587,583.0400
516,-0.160542,12.1587,583.0450
517,-0.166701,12.1605,583.0500
518,-0.172298,12.1605,583.0551
519,-0.180065,12.1643,583.0600
520,-0.182857,12.1643,583.0650
521,-0.191204,12.1674,583.0700
522,-0.197419,12.1699,583.0750
523,-0.203091,12.1699,583.0800
524,-0.208501,12.1736,583.0850
525,-0.216844,12.1736,583.0900
526,-0.221300,12.1755,583.0950
527,-0.225270,12.1755,583.1000
528,-0.231920,12.1792,583.1050
529,-0.239771,12.1792,583.1100
530,-0.243241,12.1817,583.1151
531,-0.251330,12.1817,583.1201
532,-0.256479,12.1849,583.1250
533,-0.261819,12.1848,583.1300
534,-0.264662,12.1848,583.1350
535,-0.274693,12.1886,583.1400
536,-0.279037,12.1886,583.1450
537,-0.286537,12.1911,583.1500
538,-0.293453,12.1911,583.1550
539,-0.300889,12.1942,583.1600
540,-0.303507,12.1942,583.1650
541,-0.310741,12.1973,583.1700
542,-0.316460,12.1998,583.1750
543,-0.322137,12.1998,583.1801
544,-0.326584,12.2029,583.1850
545,-0.334534,12.2029,583.1900
546,-0.339514,12.2054,583.1950
547,-0.343928,12.2054,583.2000
548,-0.351312,12.2092,583.2050
549,-0.358719,12.2092,583.2100
550,-0.362202,12.2123,583.2150
551,-0.370844,12.2123,583.2200
552,-0.375946,12.2148,583.2250
553,-0.382324,12.2148,583.2300
554,-0.385289,12.2148,583.2350
555,-0.393869,12.2185,583.2401
556,-0.397260,12.2185,583.2451
557,-0.402399,12.2210,583.2500
558,-0.407879,12.2210,583.2550
559,-0.415726,12.2241,583.2600
560,-0.419140,12.2241,583.2650
561,-0.427000,12.2272,583.2700
562,-0.432233,12.2297,583.2750
563,-0.436629,12.2297,583.2800
564,-0.441468,12.2335,583.2850
565,-0.449376,12.2335,583.2900
566,-0.453739,12.2354,583.2950
567,-0.456895,12.2354,583.3000
568,-0.462932,12.2391,583.3051
569,-0.469731,12.2391,583.3100
570,-0.472944,12.2422,583.3150
571,-0.481408,12.2422,583.3200
572,-0.487080,12.2422,583.3250
573,-0.493065,12.2447,583.3300
574,-0.496011,12.2447,583.3350
575,-0.504770,12.2485,583.3400
576,-0.507262,12.2485,583.3450
577,-0.512626,12.2509,583.3500
578,-0.518677,12.2509,583.3550
579,-0.526112,12.2541,583.3600
580,-0.528955,12.2541,583.3651
581,-0.536334,12.2572,583.3701
582,-0.541870,12.2597,583.3750
583,-0.546612,12.2597,583.3800
584,-0.550867,12.2628,583.3850
585,-0.558709,12.2628,583.3900
586,-0.563086,12.2628,583.3950
587,-0.567122,12.2653,583.4000
588,-0.573949,12.2653,583.4050
589,-0.580631,12.2690,583.4100
590,-0.583217,12.2690,583.4150
591,-0.590316,12.2721,583.4200
592,-0.594744,12.2721,583.4250
593,-0.599308,12.2746,583.4301
594,-0.602100,12.2746,583.4350
595,-0.612121,12.2784,583.4400
596,-0.615908,12.2784,583.4450
597,-0.620323,12.2809,583.4500
598,-0.624891,12.2809,583.4550
599,-0.630858,12.2840,583.4600
600,-0.633051,12.2840,583.4650
601,-0.639687,12.2871,583.4700
602,-0.645546,12.2871,583.4750
603,-0.651466,12.2896,583.4800
604,-0.656334,12.2896,583.4850
605,-0.662871,12.2934,583.4901
606,-0.667103,12.2934,583.4951
607,-0.671779,12.2952,583.5000
608,-0.678130,12.2952,583.5050
609,-0.685382,12.2990,583.5100
610,-0.688146,12.2990,583.5150
611,-0.693832,12.3021,583.5200
612,-0.697667,12.3021,583.5250
613,-0.701861,12.3046,583.5300
614,-0.704064,12.3046,583.5350
615,-0.713986,12.3083,583.5400
616,-0.717863,12.3083,583.5450
617,-0.723704,12.3108,583.5500
618,-0.729109,12.3108,583.5551
619,-0.735399,12.3139,583.5600
620,-0.737620,12.3139,583.5650
621,-0.744209,12.3171,583.5700
622,-0.749741,12.3171,583.5750
623,-0.754842,12.3196,583.5800
624,-0.758247,12.3196,583.5850
625,-0.764816,12.3233,583.5900
626,-0.768342,12.3233,583.5950
627,-0.770923,12.3252,583.6000
628,-0.777321,12.3252,583.6050
629,-0.783867,12.3289,583.6100
630,-0.787304,12.3289,583.6151
631,-0.795511,12.3320,583.6201
632,-0.799991,12.3320,583.6250
633,-0.805205,12.3345,583.6300
634,-0.807042,12.3345,583.6350
635,-0.814632,12.3383,583.6400
636,-0.817900,12.3383,583.6450
637,-0.821590,12.3408,583.6500
638,-0.826276,12.3408,583.6550
639,-0.832911,12.3439,583.6600
640,-0.834721,12.3439,583.6650
641,-0.840650,12.3470,583.6700
642,-0.845934,12.3470,583.6750
