Data stamp = , 06-04-2022 02:19:48 070

Calibration Values: 
Slope = , 26.54 , g/V 
Offset Voltage at no contact = , -0.501760 , V 

No , Time , Stage Position ,   Mass , Force 
   ,  (s) ,      (mm)      ,   (g)  , (mN)  

1 ,0.0000 ,0.44939 ,5.14452 ,50.47803 
2 ,0.2045 ,0.44944 ,5.14794 ,50.51161 
3 ,0.5885 ,0.45057 ,5.15136 ,50.54519 
4 ,0.7809 ,0.45218 ,5.15479 ,50.57876 
5 ,0.9887 ,0.45400 ,5.13425 ,50.37729 
6 ,1.1649 ,0.45578 ,5.13425 ,50.37729 
7 ,1.3570 ,0.45760 ,5.13768 ,50.41087 
8 ,1.5492 ,0.45965 ,5.12056 ,50.24298 
9 ,1.7251 ,0.46140 ,5.12741 ,50.31014 
10 ,1.9175 ,0.46330 ,5.11714 ,50.20940 
11 ,2.0934 ,0.46514 ,5.11030 ,50.14225 
12 ,2.3011 ,0.46707 ,5.11030 ,50.14225 
13 ,2.4773 ,0.46894 ,5.10345 ,50.07509 
14 ,2.6534 ,0.47066 ,5.07265 ,49.77289 
15 ,2.8296 ,0.47244 ,5.06239 ,49.67215 
16 ,3.0058 ,0.47423 ,5.06239 ,49.67215 
17 ,3.2140 ,0.47621 ,5.05554 ,49.60499 
18 ,3.3894 ,0.47801 ,5.04185 ,49.47068 
19 ,3.5659 ,0.47980 ,5.04528 ,49.50426 
20 ,3.7577 ,0.48169 ,5.03159 ,49.36995 
21 ,3.9339 ,0.48343 ,5.00079 ,49.06774 
22 ,4.1262 ,0.48534 ,4.99052 ,48.96701 
23 ,4.3341 ,0.48739 ,4.96999 ,48.76554 
24 ,4.5105 ,0.48923 ,4.95972 ,48.66480 
25 ,4.7186 ,0.49121 ,4.94946 ,48.56407 
26 ,4.9108 ,0.49325 ,4.91181 ,48.19471 
27 ,5.0867 ,0.49503 ,4.89470 ,48.02681 
28 ,5.2624 ,0.49676 ,4.90497 ,48.12755 
29 ,5.4388 ,0.49854 ,4.89470 ,48.02681 
30 ,5.6469 ,0.50052 ,4.85364 ,47.62387 
31 ,5.8389 ,0.50254 ,4.85364 ,47.62387 
32 ,6.0146 ,0.50429 ,4.83310 ,47.42240 
33 ,6.1911 ,0.50603 ,4.79204 ,47.01946 
34 ,6.3671 ,0.50784 ,4.78177 ,46.91873 
35 ,6.5751 ,0.50987 ,4.78177 ,46.91873 
36 ,6.7512 ,0.51166 ,4.75097 ,46.61653 
37 ,6.9274 ,0.51341 ,4.74413 ,46.54937 
38 ,7.1194 ,0.51517 ,4.73386 ,46.44863 
39 ,7.2794 ,0.51704 ,4.71675 ,46.28074 
40 ,7.4554 ,0.51863 ,4.70648 ,46.18001 
41 ,7.6316 ,0.52045 ,4.67568 ,45.87780 
42 ,7.8079 ,0.52221 ,4.64831 ,45.60918 
43 ,7.9998 ,0.52408 ,4.66542 ,45.77707 
44 ,8.1756 ,0.52589 ,4.63804 ,45.50844 
45 ,8.3522 ,0.52764 ,4.59697 ,45.10550 
46 ,8.5281 ,0.52943 ,4.60382 ,45.17266 
47 ,8.7197 ,0.53129 ,4.59355 ,45.07192 
48 ,8.8962 ,0.53304 ,4.58671 ,45.00477 
49 ,9.0722 ,0.53488 ,4.55249 ,44.66898 
50 ,9.2644 ,0.53677 ,4.54222 ,44.56825 
51 ,9.4404 ,0.53858 ,4.52511 ,44.40036 
52 ,9.6164 ,0.54024 ,4.50800 ,44.23247 
53 ,9.7925 ,0.54199 ,4.49431 ,44.09815 
54 ,9.9686 ,0.54377 ,4.47035 ,43.86310 
55 ,10.1608 ,0.54558 ,4.45666 ,43.72879 
56 ,10.3528 ,0.54763 ,4.43955 ,43.56090 
57 ,10.5290 ,0.54940 ,4.42929 ,43.46016 
58 ,10.7210 ,0.55135 ,4.41560 ,43.32585 
59 ,10.8809 ,0.55303 ,4.40191 ,43.19154 
60 ,11.0730 ,0.55485 ,4.37453 ,42.92291 
61 ,11.2810 ,0.55689 ,4.36769 ,42.85576 
62 ,11.4573 ,0.55867 ,4.36769 ,42.85576 
63 ,11.6495 ,0.56055 ,4.31636 ,42.35208 
64 ,11.8250 ,0.56240 ,4.32320 ,42.41924 
65 ,12.0011 ,0.56412 ,4.29924 ,42.18419 
66 ,12.1614 ,0.56584 ,4.29240 ,42.11703 
67 ,12.3377 ,0.56747 ,4.27871 ,41.98272 
68 ,12.5296 ,0.56944 ,4.24449 ,41.64694 
69 ,12.7217 ,0.57132 ,4.24791 ,41.68051 
70 ,12.8975 ,0.57307 ,4.23080 ,41.51262 
71 ,13.0736 ,0.57486 ,4.21027 ,41.31115 
72 ,13.2499 ,0.57667 ,4.19316 ,41.14326 
73 ,13.4261 ,0.57831 ,4.17262 ,40.94179 
74 ,13.6022 ,0.58015 ,4.15894 ,40.80748 
75 ,13.7940 ,0.58199 ,4.15209 ,40.74032 
76 ,13.9699 ,0.58379 ,4.12471 ,40.47170 
77 ,14.1464 ,0.58554 ,4.10418 ,40.27023 
78 ,14.3222 ,0.58734 ,4.09391 ,40.16949 
79 ,14.5143 ,0.58920 ,4.07338 ,39.96802 
80 ,14.6905 ,0.59097 ,4.06654 ,39.90087 
81 ,14.8665 ,0.59273 ,4.03574 ,39.59866 
82 ,15.0424 ,0.59451 ,4.03574 ,39.59866 
83 ,15.2347 ,0.59637 ,4.02889 ,39.53150 
84 ,15.4268 ,0.59837 ,4.00152 ,39.26288 
85 ,15.6030 ,0.60012 ,3.98783 ,39.12856 
86 ,15.8110 ,0.60215 ,3.96387 ,38.89352 
87 ,15.9871 ,0.60392 ,3.94334 ,38.69205 
88 ,16.1630 ,0.60579 ,3.95018 ,38.75920 
89 ,16.3393 ,0.60751 ,3.93650 ,38.62489 
90 ,16.5153 ,0.60926 ,3.92281 ,38.49058 
91 ,16.6914 ,0.61101 ,3.90227 ,38.28911 
92 ,16.8676 ,0.61274 ,3.87832 ,38.05406 
93 ,17.0595 ,0.61470 ,3.87147 ,37.98690 
94 ,17.2197 ,0.61636 ,3.85779 ,37.85259 
95 ,17.3957 ,0.61800 ,3.83725 ,37.65112 
96 ,17.6038 ,0.62000 ,3.80987 ,37.38249 
97 ,17.7958 ,0.62204 ,3.81330 ,37.41607 
98 ,17.9717 ,0.62379 ,3.79961 ,37.28176 
99 ,18.1800 ,0.62571 ,3.76539 ,36.94597 
100 ,18.3720 ,0.62773 ,3.75170 ,36.81166 
101 ,18.5640 ,0.62965 ,3.73117 ,36.61019 
102 ,18.7562 ,0.63166 ,3.74143 ,36.71093 
103 ,18.9483 ,0.63357 ,3.70721 ,36.37514 
104 ,19.1242 ,0.63529 ,3.69352 ,36.24083 
105 ,19.3001 ,0.63708 ,3.69010 ,36.20725 
106 ,19.4764 ,0.63889 ,3.67641 ,36.07294 
107 ,19.6686 ,0.64073 ,3.62850 ,35.60284 
108 ,19.8607 ,0.64262 ,3.63877 ,35.70358 
109 ,20.0367 ,0.64441 ,3.62166 ,35.53569 
110 ,20.2129 ,0.64625 ,3.61823 ,35.50211 
111 ,20.3885 ,0.64799 ,3.58743 ,35.19990 
112 ,20.5649 ,0.64971 ,3.55663 ,34.89770 
113 ,20.7409 ,0.65154 ,3.55321 ,34.86412 
114 ,20.9491 ,0.65357 ,3.53952 ,34.72981 
115 ,21.1250 ,0.65527 ,3.52584 ,34.59549 
116 ,21.3172 ,0.65712 ,3.51215 ,34.46118 
117 ,21.4933 ,0.65902 ,3.50872 ,34.42760 
118 ,21.6692 ,0.66075 ,3.48135 ,34.15898 
119 ,21.8451 ,0.66247 ,3.45055 ,33.85677 
120 ,22.0214 ,0.66432 ,3.44370 ,33.78961 
121 ,22.1976 ,0.66607 ,3.44713 ,33.82319 
122 ,22.3896 ,0.66798 ,3.43344 ,33.68888 
123 ,22.5657 ,0.66969 ,3.39237 ,33.28594 
124 ,22.7579 ,0.67170 ,3.39921 ,33.35310 
125 ,22.9499 ,0.67358 ,3.37184 ,33.08447 
126 ,23.1579 ,0.67548 ,3.36842 ,33.05089 
127 ,23.3499 ,0.67757 ,3.34104 ,32.78227 
128 ,23.5259 ,0.67934 ,3.32051 ,32.58080 
129 ,23.7183 ,0.68125 ,3.31024 ,32.48006 
130 ,23.9103 ,0.68317 ,3.29655 ,32.34575 
131 ,24.0864 ,0.68489 ,3.27602 ,32.14428 
132 ,24.2785 ,0.68683 ,3.26233 ,32.00996 
133 ,24.4545 ,0.68859 ,3.26233 ,32.00996 
134 ,24.6303 ,0.69034 ,3.23495 ,31.74134 
135 ,24.8227 ,0.69225 ,3.20415 ,31.43913 
136 ,24.9988 ,0.69406 ,3.21100 ,31.50629 
137 ,25.1748 ,0.69579 ,3.19731 ,31.37198 
138 ,25.3669 ,0.69766 ,3.16993 ,31.10335 
139 ,25.5590 ,0.69964 ,3.14940 ,30.90188 
140 ,25.7510 ,0.70149 ,3.14255 ,30.83472 
141 ,25.9271 ,0.70331 ,3.13229 ,30.73399 
142 ,26.1033 ,0.70508 ,3.11175 ,30.53252 
143 ,26.2793 ,0.70687 ,3.10491 ,30.46536 
144 ,26.4874 ,0.70884 ,3.07411 ,30.16316 
145 ,26.6634 ,0.71069 ,3.06384 ,30.06242 
146 ,26.8394 ,0.71242 ,3.05358 ,29.96169 
147 ,27.0316 ,0.71435 ,3.04331 ,29.86095 
148 ,27.2075 ,0.71613 ,3.02278 ,29.65948 
149 ,27.3998 ,0.71792 ,3.00224 ,29.45801 
150 ,27.6077 ,0.72006 ,2.99198 ,29.35728 
151 ,27.7996 ,0.72210 ,2.98855 ,29.32370 
152 ,27.9760 ,0.72381 ,2.97487 ,29.18939 
153 ,28.1681 ,0.72579 ,2.94407 ,28.88718 
154 ,28.3440 ,0.72748 ,2.92696 ,28.71929 
155 ,28.5361 ,0.72936 ,2.93380 ,28.78645 
156 ,28.7123 ,0.73118 ,2.91669 ,28.61856 
157 ,28.8882 ,0.73293 ,2.88931 ,28.34993 
158 ,29.0804 ,0.73483 ,2.87562 ,28.21562 
159 ,29.2722 ,0.73675 ,2.87562 ,28.21562 
160 ,29.4486 ,0.73854 ,2.84482 ,27.91341 
161 ,29.6243 ,0.74025 ,2.82429 ,27.71194 
162 ,29.8006 ,0.74200 ,2.82087 ,27.67836 
163 ,29.9603 ,0.74372 ,2.81402 ,27.61121 
164 ,30.1369 ,0.74542 ,2.78665 ,27.34258 
165 ,30.3288 ,0.74738 ,2.77980 ,27.27542 
166 ,30.4890 ,0.74904 ,2.75585 ,27.04038 
167 ,30.6648 ,0.75064 ,2.73874 ,26.87248 
168 ,30.8572 ,0.75255 ,2.73531 ,26.83891 
169 ,31.0329 ,0.75437 ,2.73189 ,26.80533 
170 ,31.2093 ,0.75612 ,2.72505 ,26.73817 
171 ,31.4176 ,0.75818 ,2.68398 ,26.33523 
172 ,31.5935 ,0.75997 ,2.68056 ,26.30165 
173 ,31.7695 ,0.76176 ,2.67372 ,26.23450 
174 ,31.9455 ,0.76345 ,2.64292 ,25.93229 
175 ,32.1213 ,0.76522 ,2.62238 ,25.73082 
176 ,32.2976 ,0.76697 ,2.62581 ,25.76440 
177 ,32.4898 ,0.76888 ,2.60185 ,25.52935 
178 ,32.6658 ,0.77065 ,2.58132 ,25.32788 
179 ,32.8577 ,0.77261 ,2.58132 ,25.32788 
180 ,33.0340 ,0.77436 ,2.56763 ,25.19357 
181 ,33.2421 ,0.77640 ,2.53683 ,24.89136 
182 ,33.4341 ,0.77832 ,2.54710 ,24.99210 
183 ,33.6424 ,0.78040 ,2.50603 ,24.58916 
184 ,33.8185 ,0.78223 ,2.49918 ,24.52200 
185 ,33.9945 ,0.78393 ,2.49918 ,24.52200 
186 ,34.1702 ,0.78572 ,2.47865 ,24.32053 
187 ,34.3306 ,0.78743 ,2.45812 ,24.11906 
188 ,34.5227 ,0.78918 ,2.43416 ,23.88402 
189 ,34.6826 ,0.79097 ,2.41363 ,23.68255 
190 ,34.8589 ,0.79259 ,2.41021 ,23.64897 
191 ,35.0509 ,0.79448 ,2.41363 ,23.68255 
192 ,35.2269 ,0.79628 ,2.37941 ,23.34676 
193 ,35.4192 ,0.79823 ,2.36230 ,23.17887 
194 ,35.6111 ,0.80015 ,2.36572 ,23.21245 
195 ,35.7870 ,0.80186 ,2.35203 ,23.07814 
196 ,35.9633 ,0.80367 ,2.33150 ,22.87667 
197 ,36.1394 ,0.80543 ,2.30412 ,22.60804 
198 ,36.3156 ,0.80712 ,2.31097 ,22.67520 
199 ,36.5235 ,0.80921 ,2.26990 ,22.27226 
200 ,36.6996 ,0.81109 ,2.27674 ,22.33941 
201 ,36.8755 ,0.81281 ,2.24594 ,22.03721 
202 ,37.0518 ,0.81458 ,2.25621 ,22.13794 
203 ,37.2437 ,0.81644 ,2.22199 ,21.80216 
204 ,37.4195 ,0.81829 ,2.21515 ,21.73500 
205 ,37.5960 ,0.81996 ,2.19119 ,21.49996 
206 ,37.7881 ,0.82184 ,2.18435 ,21.43280 
207 ,37.9637 ,0.82365 ,2.15697 ,21.16417 
208 ,38.1402 ,0.82541 ,2.14670 ,21.06344 
209 ,38.3324 ,0.82734 ,2.15012 ,21.09702 
210 ,38.5240 ,0.82917 ,2.11590 ,20.76123 
211 ,38.7005 ,0.83101 ,2.10221 ,20.62692 
212 ,38.8765 ,0.83282 ,2.09879 ,20.59334 
213 ,39.0526 ,0.83452 ,2.08510 ,20.45903 
214 ,39.2288 ,0.83630 ,2.07141 ,20.32472 
215 ,39.4210 ,0.83815 ,2.04746 ,20.08967 
216 ,39.5804 ,0.83992 ,2.04061 ,20.02251 
217 ,39.7568 ,0.84153 ,2.02350 ,19.85462 
218 ,39.9329 ,0.84333 ,2.00982 ,19.72031 
219 ,40.1247 ,0.84521 ,1.99955 ,19.61957 
220 ,40.3010 ,0.84700 ,1.98244 ,19.45168 
221 ,40.4932 ,0.84887 ,1.98244 ,19.45168 
222 ,40.6853 ,0.85076 ,1.96190 ,19.25021 
223 ,40.8772 ,0.85273 ,1.93453 ,18.98158 
224 ,41.0533 ,0.85449 ,1.93795 ,19.01516 
225 ,41.2290 ,0.85627 ,1.91742 ,18.81369 
226 ,41.4216 ,0.85818 ,1.87977 ,18.44433 
227 ,41.6137 ,0.86009 ,1.89688 ,18.61222 
228 ,41.7897 ,0.86188 ,1.88662 ,18.51149 
229 ,41.9818 ,0.86379 ,1.85924 ,18.24286 
230 ,42.1577 ,0.86554 ,1.83186 ,17.97423 
231 ,42.3337 ,0.86732 ,1.83186 ,17.97423 
232 ,42.5100 ,0.86911 ,1.82844 ,17.94066 
233 ,42.6859 ,0.87080 ,1.81475 ,17.80634 
234 ,42.8622 ,0.87260 ,1.79764 ,17.63845 
235 ,43.0699 ,0.87464 ,1.77711 ,17.43698 
236 ,43.2464 ,0.87641 ,1.76000 ,17.26909 
237 ,43.4383 ,0.87829 ,1.73604 ,17.03404 
238 ,43.6144 ,0.88015 ,1.72920 ,16.96689 
239 ,43.7902 ,0.88188 ,1.72235 ,16.89973 
240 ,43.9667 ,0.88369 ,1.71209 ,16.79899 
241 ,44.1587 ,0.88557 ,1.68471 ,16.53037 
242 ,44.3668 ,0.88758 ,1.68129 ,16.49679 
243 ,44.5429 ,0.88943 ,1.66075 ,16.29532 
244 ,44.7348 ,0.89131 ,1.64022 ,16.09385 
245 ,44.9110 ,0.89310 ,1.63338 ,16.02669 
246 ,45.0870 ,0.89482 ,1.62653 ,15.95954 
247 ,45.2632 ,0.89657 ,1.60942 ,15.79164 
248 ,45.4554 ,0.89851 ,1.60600 ,15.75807 
249 ,45.6474 ,0.90042 ,1.59573 ,15.65733 
250 ,45.8394 ,0.90236 ,1.55467 ,15.25439 
251 ,46.0152 ,0.90411 ,1.53071 ,15.01934 
252 ,46.1912 ,0.90586 ,1.53756 ,15.08650 
253 ,46.3672 ,0.90765 ,1.54098 ,15.12008 
254 ,46.5597 ,0.90947 ,1.51702 ,14.88503 
255 ,46.7838 ,0.91167 ,1.49991 ,14.71714 
256 ,46.9757 ,0.91367 ,1.48622 ,14.58283 
257 ,47.1680 ,0.91567 ,1.47938 ,14.51567 
258 ,47.3600 ,0.91756 ,1.44858 ,14.21346 
259 ,47.5360 ,0.91928 ,1.43831 ,14.11273 
260 ,47.7281 ,0.92120 ,1.43831 ,14.11273 
261 ,47.9202 ,0.92311 ,1.39040 ,13.64263 
262 ,48.0960 ,0.92492 ,1.39040 ,13.64263 
263 ,48.2725 ,0.92667 ,1.37671 ,13.50832 
264 ,48.4829 ,0.92870 ,1.35960 ,13.34043 
265 ,48.6722 ,0.93072 ,1.36303 ,13.37401 
266 ,48.8642 ,0.93256 ,1.33907 ,13.13896 
267 ,49.0568 ,0.93440 ,1.32196 ,12.97107 
268 ,49.2487 ,0.93645 ,1.33223 ,13.07180 
269 ,49.4248 ,0.93823 ,1.31169 ,12.87033 
270 ,49.6169 ,0.94017 ,1.27063 ,12.46739 
271 ,49.7931 ,0.94190 ,1.28089 ,12.56813 
272 ,50.0010 ,0.94393 ,1.25009 ,12.26592 
273 ,50.1769 ,0.94571 ,1.23298 ,12.09803 
274 ,50.3532 ,0.94748 ,1.21929 ,11.96372 
275 ,50.5453 ,0.94942 ,1.22614 ,12.03088 
276 ,50.7215 ,0.95120 ,1.20903 ,11.86298 
277 ,50.9138 ,0.95310 ,1.20218 ,11.79583 
278 ,51.0895 ,0.95486 ,1.19192 ,11.69509 
279 ,51.2653 ,0.95662 ,1.17138 ,11.49362 
280 ,51.4577 ,0.95846 ,1.16454 ,11.42647 
281 ,51.6816 ,0.96062 ,1.14743 ,11.25857 
282 ,51.8737 ,0.96266 ,1.13032 ,11.09068 
283 ,52.0818 ,0.96463 ,1.10294 ,10.82206 
284 ,52.2579 ,0.96649 ,1.09610 ,10.75490 
285 ,52.4338 ,0.96825 ,1.08241 ,10.62059 
286 ,52.6103 ,0.97008 ,1.07556 ,10.55343 
287 ,52.7862 ,0.97185 ,1.06530 ,10.45270 
288 ,52.9784 ,0.97369 ,1.03450 ,10.15049 
289 ,53.1544 ,0.97550 ,1.03108 ,10.11691 
290 ,53.3465 ,0.97741 ,1.04819 ,10.28480 
291 ,53.5225 ,0.97914 ,1.02423 ,10.04976 
292 ,53.6985 ,0.98088 ,0.98659 ,9.68039 
293 ,53.8907 ,0.98273 ,0.99685 ,9.78113 
294 ,54.0827 ,0.98477 ,0.96263 ,9.44535 
295 ,54.2745 ,0.98662 ,0.96605 ,9.47892 
296 ,54.4505 ,0.98847 ,0.97290 ,9.54608 
297 ,54.6591 ,0.99041 ,0.94552 ,9.27745 
298 ,54.8669 ,0.99252 ,0.93183 ,9.14314 
299 ,55.0431 ,0.99437 ,0.92499 ,9.07598 
300 ,55.2351 ,0.99627 ,0.91472 ,8.97525 
301 ,55.4109 ,0.99808 ,0.90446 ,8.87451 
302 ,55.5873 ,0.99977 ,0.89419 ,8.77378 
303 ,55.7634 ,1.00153 ,0.87708 ,8.60589 
304 ,55.9394 ,1.00337 ,0.84970 ,8.33726 
305 ,56.1158 ,1.00512 ,0.83943 ,8.23653 
306 ,56.2917 ,1.00685 ,0.82917 ,8.13579 
307 ,56.4678 ,1.00864 ,0.82917 ,8.13579 
308 ,56.6435 ,1.01045 ,0.79152 ,7.76643 
309 ,56.8198 ,1.01213 ,0.79152 ,7.76643 
310 ,56.9959 ,1.01385 ,0.77784 ,7.63212 
311 ,57.1881 ,1.01576 ,0.78468 ,7.69927 
312 ,57.3801 ,1.01762 ,0.76757 ,7.53138 
313 ,57.5721 ,1.01956 ,0.73335 ,7.19560 
314 ,57.7642 ,1.02153 ,0.74361 ,7.29633 
315 ,57.9723 ,1.02360 ,0.72992 ,7.16202 
316 ,58.1484 ,1.02542 ,0.70939 ,6.96055 
317 ,58.3243 ,1.02718 ,0.69913 ,6.85982 
318 ,58.5166 ,1.02911 ,0.68201 ,6.69193 
319 ,58.7246 ,1.03109 ,0.66833 ,6.55761 
320 ,58.9008 ,1.03290 ,0.64437 ,6.32256 
321 ,59.0607 ,1.03465 ,0.63410 ,6.22183 
322 ,59.2368 ,1.03628 ,0.62726 ,6.15467 
323 ,59.4130 ,1.03809 ,0.62384 ,6.12109 
324 ,59.6209 ,1.04008 ,0.61015 ,5.98678 
325 ,59.7810 ,1.04183 ,0.58619 ,5.75173 
326 ,59.9572 ,1.04348 ,0.57935 ,5.68458 
327 ,60.1332 ,1.04529 ,0.58277 ,5.71815 
328 ,60.3095 ,1.04702 ,0.57593 ,5.65100 
329 ,60.4849 ,1.04874 ,0.57251 ,5.61742 
330 ,60.6775 ,1.05065 ,0.53828 ,5.28164 
331 ,60.8856 ,1.05260 ,0.51091 ,5.01301 
332 ,61.0776 ,1.05475 ,0.51091 ,5.01301 
333 ,61.2696 ,1.05661 ,0.51433 ,5.04659 
334 ,61.4458 ,1.05843 ,0.50748 ,4.97943 
335 ,61.6378 ,1.06028 ,0.47326 ,4.64365 
336 ,61.8300 ,1.06206 ,0.46642 ,4.57649 
337 ,62.0221 ,1.06409 ,0.45615 ,4.47576 
338 ,62.2301 ,1.06616 ,0.45957 ,4.50934 
339 ,62.4062 ,1.06795 ,0.45615 ,4.47576 
340 ,62.5984 ,1.06982 ,0.42535 ,4.17355 
341 ,62.7903 ,1.07176 ,0.42193 ,4.13997 
342 ,62.9500 ,1.07350 ,0.42193 ,4.13997 
343 ,63.1264 ,1.07514 ,0.42193 ,4.13997 
344 ,63.3026 ,1.07693 ,0.39113 ,3.83777 
345 ,63.4945 ,1.07882 ,0.37744 ,3.70346 
346 ,63.6707 ,1.08060 ,0.37060 ,3.63630 
347 ,63.8468 ,1.08241 ,0.36033 ,3.53557 
348 ,64.0388 ,1.08425 ,0.33638 ,3.30052 
349 ,64.2148 ,1.08604 ,0.33295 ,3.26694 
350 ,64.4069 ,1.08796 ,0.32953 ,3.23336 
351 ,64.5831 ,1.08973 ,0.31584 ,3.09905 
352 ,64.7591 ,1.09151 ,0.29873 ,2.93116 
353 ,64.9351 ,1.09323 ,0.28504 ,2.79684 
354 ,65.1112 ,1.09506 ,0.28162 ,2.76326 
355 ,65.2874 ,1.09675 ,0.28847 ,2.83042 
356 ,65.4635 ,1.09853 ,0.26109 ,2.56179 
357 ,65.6555 ,1.10044 ,0.24055 ,2.36032 
358 ,65.8474 ,1.10231 ,0.25767 ,2.52822 
359 ,66.0237 ,1.10410 ,0.23029 ,2.25959 
360 ,66.2154 ,1.10599 ,0.21318 ,2.09170 
361 ,66.4079 ,1.10798 ,0.21660 ,2.12528 
362 ,66.5838 ,1.10974 ,0.20976 ,2.05812 
363 ,66.7760 ,1.11168 ,0.17553 ,1.72234 
364 ,66.9680 ,1.11362 ,0.19607 ,1.92381 
365 ,67.1598 ,1.11550 ,0.15842 ,1.55445 
366 ,67.3362 ,1.11729 ,0.15500 ,1.52087 
367 ,67.5283 ,1.11916 ,0.15158 ,1.48729 
368 ,67.7043 ,1.12088 ,0.14473 ,1.42013 
369 ,67.8804 ,1.12267 ,0.11051 ,1.08435 
370 ,68.0724 ,1.12459 ,0.11051 ,1.08435 
371 ,68.2485 ,1.12643 ,0.09682 ,0.95004 
372 ,68.4404 ,1.12824 ,0.08998 ,0.88288 
373 ,68.6328 ,1.13020 ,0.07287 ,0.71499 
374 ,68.8247 ,1.13207 ,0.06260 ,0.61425 
375 ,69.0010 ,1.13386 ,0.04549 ,0.44636 
376 ,69.2091 ,1.13595 ,0.04549 ,0.44636 
377 ,69.3850 ,1.13770 ,0.04891 ,0.47994 
378 ,69.5611 ,1.13947 ,0.02838 ,0.27847 
379 ,69.7532 ,1.14140 ,0.01469 ,0.14416 
380 ,69.9294 ,1.14320 ,-0.00242 ,-0.02373 
381 ,70.1214 ,1.14507 ,-0.00926 ,-0.09089 
382 ,70.2975 ,1.14683 ,-0.02295 ,-0.22520 
383 ,70.4731 ,1.14874 ,-0.01953 ,-0.19163 
384 ,70.6653 ,1.15043 ,-0.03664 ,-0.35952 
385 ,70.8414 ,1.15224 ,-0.05033 ,-0.49383 
386 ,71.0178 ,1.15408 ,-0.07086 ,-0.69530 
387 ,71.1937 ,1.15581 ,-0.08113 ,-0.79604 
388 ,71.3699 ,1.15759 ,-0.07771 ,-0.76246 
389 ,71.5459 ,1.15931 ,-0.07428 ,-0.72888 
390 ,71.7222 ,1.16113 ,-0.09824 ,-0.96393 
391 ,71.9295 ,1.16314 ,-0.11193 ,-1.09824 
392 ,72.1058 ,1.16489 ,-0.11877 ,-1.16540 
393 ,72.2818 ,1.16667 ,-0.11877 ,-1.16540 
394 ,72.4582 ,1.16846 ,-0.13588 ,-1.33329 
395 ,72.6664 ,1.17055 ,-0.13588 ,-1.33329 
396 ,72.8584 ,1.17243 ,-0.17011 ,-1.66907 
397 ,73.0345 ,1.17424 ,-0.18037 ,-1.76981 
398 ,73.2265 ,1.17607 ,-0.16668 ,-1.63549 
399 ,73.4026 ,1.17794 ,-0.17011 ,-1.66907 
400 ,73.5943 ,1.17969 ,-0.19748 ,-1.93770 
401 ,73.7708 ,1.18158 ,-0.22144 ,-2.17275 
402 ,73.9467 ,1.18330 ,-0.20775 ,-2.03843 
403 ,74.1229 ,1.18508 ,-0.20433 ,-2.00485 
404 ,74.3149 ,1.18693 ,-0.23855 ,-2.34064 
405 ,74.5071 ,1.18894 ,-0.23513 ,-2.30706 
406 ,74.6830 ,1.19068 ,-0.24197 ,-2.37422 
407 ,74.8593 ,1.19248 ,-0.25908 ,-2.54211 
408 ,75.0511 ,1.19435 ,-0.28304 ,-2.77716 
409 ,75.2594 ,1.19632 ,-0.28646 ,-2.81073 
410 ,75.4355 ,1.19824 ,-0.31041 ,-3.04578 
411 ,75.6117 ,1.20002 ,-0.31726 ,-3.11294 
412 ,75.7877 ,1.20175 ,-0.31726 ,-3.11294 
413 ,75.9798 ,1.20366 ,-0.33779 ,-3.31441 
414 ,76.1718 ,1.20549 ,-0.33779 ,-3.31441 
415 ,76.3479 ,1.20738 ,-0.34464 ,-3.38156 
416 ,76.5239 ,1.20910 ,-0.34806 ,-3.41514 
417 ,76.7160 ,1.21095 ,-0.38228 ,-3.75093 
418 ,76.9081 ,1.21288 ,-0.36859 ,-3.61661 
419 ,77.0840 ,1.21470 ,-0.37544 ,-3.68377 
420 ,77.2603 ,1.21649 ,-0.38912 ,-3.81808 
421 ,77.4684 ,1.21849 ,-0.40281 ,-3.95240 
422 ,77.6605 ,1.22047 ,-0.41650 ,-4.08671 
423 ,77.8361 ,1.22220 ,-0.42677 ,-4.18744 
424 ,78.0126 ,1.22395 ,-0.46099 ,-4.52323 
425 ,78.2045 ,1.22580 ,-0.44388 ,-4.35534 
426 ,78.3807 ,1.22767 ,-0.44388 ,-4.35534 
427 ,78.5724 ,1.22961 ,-0.47126 ,-4.62396 
428 ,78.7647 ,1.23143 ,-0.47810 ,-4.69112 
429 ,78.9408 ,1.23321 ,-0.47810 ,-4.69112 
430 ,79.1171 ,1.23502 ,-0.49179 ,-4.82543 
431 ,79.3090 ,1.23690 ,-0.48837 ,-4.79185 
432 ,79.5011 ,1.23884 ,-0.50206 ,-4.92617 
433 ,79.6931 ,1.24073 ,-0.53628 ,-5.26195 
434 ,79.9013 ,1.24281 ,-0.52601 ,-5.16121 
435 ,80.0932 ,1.24469 ,-0.54312 ,-5.32911 
436 ,80.2695 ,1.24653 ,-0.54997 ,-5.39626 
437 ,80.4613 ,1.24845 ,-0.54997 ,-5.39626 
438 ,80.6375 ,1.25019 ,-0.58077 ,-5.69847 
439 ,80.8455 ,1.25226 ,-0.56365 ,-5.53058 
440 ,81.0215 ,1.25402 ,-0.57392 ,-5.63131 
441 ,81.1978 ,1.25580 ,-0.59788 ,-5.86636 
442 ,81.3738 ,1.25758 ,-0.60814 ,-5.96709 
443 ,81.5498 ,1.25930 ,-0.62525 ,-6.13499 
444 ,81.7260 ,1.26108 ,-0.60472 ,-5.93352 
445 ,81.9021 ,1.26284 ,-0.62525 ,-6.13499 
446 ,82.0941 ,1.26474 ,-0.65263 ,-6.40361 
447 ,82.2862 ,1.26670 ,-0.65605 ,-6.43719 
448 ,82.4624 ,1.26845 ,-0.64236 ,-6.30288 
449 ,82.6543 ,1.27035 ,-0.67316 ,-6.60508 
450 ,82.8465 ,1.27226 ,-0.67659 ,-6.63866 
451 ,83.0385 ,1.27424 ,-0.68343 ,-6.70582 
452 ,83.2305 ,1.27608 ,-0.70396 ,-6.90729 
453 ,83.4229 ,1.27804 ,-0.69712 ,-6.84013 
454 ,83.6147 ,1.27989 ,-0.70739 ,-6.94086 
455 ,83.7909 ,1.28175 ,-0.73818 ,-7.24307 
456 ,83.9829 ,1.28364 ,-0.72450 ,-7.10876 
457 ,84.1588 ,1.28543 ,-0.74503 ,-7.31023 
458 ,84.3507 ,1.28728 ,-0.76214 ,-7.47812 
459 ,84.5271 ,1.28909 ,-0.75872 ,-7.44454 
460 ,84.7032 ,1.29083 ,-0.76556 ,-7.51170 
461 ,84.8792 ,1.29265 ,-0.75872 ,-7.44454 
462 ,85.0554 ,1.29438 ,-0.77925 ,-7.64601 
463 ,85.2310 ,1.29619 ,-0.78267 ,-7.67959 
