Data stamp = , 06-04-2022 01:37:45 206

Calibration Values: 
Slope = , 26.54 , g/V 
Offset Voltage at no contact = , -0.501760 , V 

No , Time , Stage Position ,   Mass , Force 
   ,  (s) ,      (mm)      ,   (g)  , (mN)  

1 ,0.0000 ,0.44934 ,5.22665 ,51.28391 
2 ,0.2107 ,0.44942 ,5.22323 ,51.25033 
3 ,0.5313 ,0.45022 ,5.19927 ,51.01528 
4 ,0.7394 ,0.45170 ,5.20954 ,51.11602 
5 ,0.9314 ,0.45345 ,5.21296 ,51.14960 
6 ,1.1073 ,0.45508 ,5.19927 ,51.01528 
7 ,1.2996 ,0.45694 ,5.18901 ,50.91455 
8 ,1.4753 ,0.45893 ,5.19927 ,51.01528 
9 ,1.6518 ,0.46057 ,5.17874 ,50.81381 
10 ,1.8437 ,0.46256 ,5.16163 ,50.64592 
11 ,2.0198 ,0.46429 ,5.14452 ,50.47803 
12 ,2.1960 ,0.46600 ,5.14452 ,50.47803 
13 ,2.4038 ,0.46795 ,5.11714 ,50.20940 
14 ,2.5800 ,0.46987 ,5.11030 ,50.14225 
15 ,2.7560 ,0.47161 ,5.11030 ,50.14225 
16 ,2.9482 ,0.47355 ,5.07608 ,49.80646 
17 ,3.1241 ,0.47527 ,5.05897 ,49.63857 
18 ,3.3004 ,0.47707 ,5.04870 ,49.53784 
19 ,3.4764 ,0.47884 ,5.05212 ,49.57142 
20 ,3.6524 ,0.48070 ,5.02474 ,49.30279 
21 ,3.8286 ,0.48236 ,5.01448 ,49.20205 
22 ,4.0049 ,0.48408 ,4.99394 ,49.00058 
23 ,4.1806 ,0.48588 ,4.98026 ,48.86627 
24 ,4.3567 ,0.48761 ,4.98026 ,48.86627 
25 ,4.5329 ,0.48937 ,4.96999 ,48.76554 
26 ,4.7089 ,0.49124 ,4.94261 ,48.49691 
27 ,4.8850 ,0.49292 ,4.91523 ,48.22828 
28 ,5.0611 ,0.49472 ,4.90497 ,48.12755 
29 ,5.2372 ,0.49647 ,4.90497 ,48.12755 
30 ,5.4129 ,0.49819 ,4.89128 ,47.99324 
31 ,5.5894 ,0.49997 ,4.86732 ,47.75819 
32 ,5.7649 ,0.50179 ,4.85364 ,47.62387 
33 ,5.9415 ,0.50345 ,4.81599 ,47.25451 
34 ,6.1655 ,0.50557 ,4.81257 ,47.22093 
35 ,6.3576 ,0.50773 ,4.80915 ,47.18736 
36 ,6.5336 ,0.50944 ,4.79888 ,47.08662 
37 ,6.7098 ,0.51112 ,4.76466 ,46.75084 
38 ,6.8854 ,0.51290 ,4.75097 ,46.61653 
39 ,7.0779 ,0.51482 ,4.73386 ,46.44863 
40 ,7.2538 ,0.51656 ,4.72702 ,46.38148 
41 ,7.4301 ,0.51835 ,4.70990 ,46.21359 
42 ,7.6063 ,0.52014 ,4.68595 ,45.97854 
43 ,7.7822 ,0.52186 ,4.65515 ,45.67633 
44 ,7.9583 ,0.52361 ,4.65173 ,45.64275 
45 ,8.1664 ,0.52570 ,4.61408 ,45.27339 
46 ,8.3425 ,0.52750 ,4.61066 ,45.23981 
47 ,8.5185 ,0.52927 ,4.59697 ,45.10550 
48 ,8.7106 ,0.53116 ,4.58328 ,44.97119 
49 ,8.9024 ,0.53306 ,4.55591 ,44.70256 
50 ,9.0787 ,0.53484 ,4.53537 ,44.50109 
51 ,9.2707 ,0.53664 ,4.53880 ,44.53467 
52 ,9.4469 ,0.53852 ,4.51142 ,44.26604 
53 ,9.6390 ,0.54042 ,4.50457 ,44.19889 
54 ,9.8150 ,0.54220 ,4.49089 ,44.06457 
55 ,10.0069 ,0.54406 ,4.46009 ,43.76237 
56 ,10.1832 ,0.54585 ,4.43955 ,43.56090 
57 ,10.3753 ,0.54782 ,4.43955 ,43.56090 
58 ,10.5513 ,0.54957 ,4.43955 ,43.56090 
59 ,10.7273 ,0.55131 ,4.40533 ,43.22512 
60 ,10.9038 ,0.55307 ,4.38138 ,42.99007 
61 ,11.0954 ,0.55504 ,4.37453 ,42.92291 
62 ,11.2715 ,0.55676 ,4.37795 ,42.95649 
63 ,11.4477 ,0.55854 ,4.34373 ,42.62071 
64 ,11.6236 ,0.56030 ,4.32662 ,42.45282 
65 ,11.8000 ,0.56200 ,4.30609 ,42.25135 
66 ,11.9759 ,0.56380 ,4.30951 ,42.28492 
67 ,12.1519 ,0.56558 ,4.27187 ,41.91556 
68 ,12.3438 ,0.56743 ,4.26845 ,41.88198 
69 ,12.5361 ,0.56932 ,4.26160 ,41.81483 
70 ,12.6964 ,0.57109 ,4.24791 ,41.68051 
71 ,12.8724 ,0.57273 ,4.23080 ,41.51262 
72 ,13.0642 ,0.57463 ,4.19658 ,41.17684 
73 ,13.2405 ,0.57643 ,4.18631 ,41.07611 
74 ,13.4164 ,0.57820 ,4.18631 ,41.07611 
75 ,13.5927 ,0.57999 ,4.16920 ,40.90821 
76 ,13.7686 ,0.58171 ,4.14867 ,40.70674 
77 ,13.9445 ,0.58353 ,4.13498 ,40.57243 
78 ,14.1208 ,0.58522 ,4.11103 ,40.33738 
79 ,14.2969 ,0.58713 ,4.11103 ,40.33738 
80 ,14.4890 ,0.58879 ,4.09734 ,40.20307 
81 ,14.6807 ,0.59083 ,4.06312 ,39.86729 
82 ,14.8568 ,0.59258 ,4.05285 ,39.76655 
83 ,15.0331 ,0.59433 ,4.04600 ,39.69940 
84 ,15.2092 ,0.59621 ,4.01863 ,39.43077 
85 ,15.3852 ,0.59786 ,4.01178 ,39.36361 
86 ,15.5613 ,0.59962 ,3.97756 ,39.02783 
87 ,15.7373 ,0.60142 ,3.96729 ,38.92709 
88 ,15.9135 ,0.60312 ,3.97072 ,38.96067 
89 ,16.0896 ,0.60489 ,3.94676 ,38.72562 
90 ,16.2815 ,0.60680 ,3.92623 ,38.52415 
91 ,16.4736 ,0.60869 ,3.91938 ,38.45700 
92 ,16.6500 ,0.61053 ,3.90570 ,38.32268 
93 ,16.8420 ,0.61242 ,3.86805 ,37.95332 
94 ,17.0500 ,0.61445 ,3.85094 ,37.78543 
95 ,17.2419 ,0.61640 ,3.83725 ,37.65112 
96 ,17.4181 ,0.61818 ,3.83041 ,37.58396 
97 ,17.5942 ,0.61999 ,3.81672 ,37.44965 
98 ,17.7703 ,0.62175 ,3.79961 ,37.28176 
99 ,17.9462 ,0.62344 ,3.77223 ,37.01313 
100 ,18.1385 ,0.62536 ,3.77565 ,37.04671 
101 ,18.3144 ,0.62726 ,3.73459 ,36.64377 
102 ,18.4903 ,0.62889 ,3.73117 ,36.61019 
103 ,18.6665 ,0.63063 ,3.70379 ,36.34157 
104 ,18.8587 ,0.63249 ,3.69694 ,36.27441 
105 ,19.0508 ,0.63450 ,3.68668 ,36.17367 
106 ,19.2267 ,0.63625 ,3.66614 ,35.97220 
107 ,19.4349 ,0.63826 ,3.64561 ,35.77073 
108 ,19.6107 ,0.64019 ,3.63192 ,35.63642 
109 ,19.7870 ,0.64185 ,3.62508 ,35.56926 
110 ,19.9631 ,0.64361 ,3.59086 ,35.23348 
111 ,20.1392 ,0.64539 ,3.59086 ,35.23348 
112 ,20.3152 ,0.64715 ,3.58401 ,35.16632 
113 ,20.4912 ,0.64893 ,3.56006 ,34.93128 
114 ,20.6834 ,0.65084 ,3.54295 ,34.76338 
115 ,20.8754 ,0.65274 ,3.53268 ,34.66265 
116 ,21.0517 ,0.65452 ,3.51557 ,34.49476 
117 ,21.2437 ,0.65640 ,3.49161 ,34.25971 
118 ,21.4198 ,0.65820 ,3.49161 ,34.25971 
119 ,21.6116 ,0.66007 ,3.46081 ,33.95751 
120 ,21.7880 ,0.66189 ,3.45739 ,33.92393 
121 ,21.9800 ,0.66377 ,3.44370 ,33.78961 
122 ,22.1561 ,0.66555 ,3.43344 ,33.68888 
123 ,22.3638 ,0.66758 ,3.39921 ,33.35310 
124 ,22.5403 ,0.66940 ,3.38553 ,33.21878 
125 ,22.7324 ,0.67128 ,3.36499 ,33.01731 
126 ,22.9086 ,0.67306 ,3.35130 ,32.88300 
127 ,23.0843 ,0.67486 ,3.33077 ,32.68153 
128 ,23.2767 ,0.67677 ,3.34104 ,32.78227 
129 ,23.4526 ,0.67858 ,3.30339 ,32.41290 
130 ,23.6288 ,0.68029 ,3.29313 ,32.31217 
131 ,23.8206 ,0.68215 ,3.27602 ,32.14428 
132 ,23.9970 ,0.68397 ,3.28286 ,32.21143 
133 ,24.1730 ,0.68569 ,3.26917 ,32.07712 
134 ,24.3490 ,0.68753 ,3.24864 ,31.87565 
135 ,24.5412 ,0.68944 ,3.21442 ,31.53987 
136 ,24.7331 ,0.69125 ,3.21784 ,31.57345 
137 ,24.9093 ,0.69301 ,3.19731 ,31.37198 
138 ,25.1174 ,0.69508 ,3.19388 ,31.33840 
139 ,25.2932 ,0.69694 ,3.17677 ,31.17051 
140 ,25.4854 ,0.69887 ,3.14597 ,30.86830 
141 ,25.6616 ,0.70056 ,3.13913 ,30.80115 
142 ,25.8532 ,0.70257 ,3.12202 ,30.63325 
143 ,26.0298 ,0.70431 ,3.12544 ,30.66683 
144 ,26.2059 ,0.70605 ,3.09464 ,30.36463 
145 ,26.3979 ,0.70788 ,3.09464 ,30.36463 
146 ,26.5737 ,0.70976 ,3.08438 ,30.26389 
147 ,26.7498 ,0.71145 ,3.04331 ,29.86095 
148 ,26.9420 ,0.71340 ,3.05015 ,29.92811 
149 ,27.1179 ,0.71514 ,3.04331 ,29.86095 
150 ,27.2941 ,0.71694 ,3.02620 ,29.69306 
151 ,27.4704 ,0.71869 ,3.00567 ,29.49159 
152 ,27.6464 ,0.72047 ,2.97487 ,29.18939 
153 ,27.8225 ,0.72223 ,2.97144 ,29.15581 
154 ,27.9981 ,0.72398 ,2.95433 ,28.98792 
155 ,28.1745 ,0.72569 ,2.95776 ,29.02150 
156 ,28.3667 ,0.72760 ,2.91327 ,28.58498 
157 ,28.5428 ,0.72942 ,2.90300 ,28.48424 
158 ,28.7503 ,0.73143 ,2.90642 ,28.51782 
159 ,28.9104 ,0.73317 ,2.88589 ,28.31635 
160 ,29.0866 ,0.73489 ,2.86878 ,28.14846 
161 ,29.3431 ,0.73729 ,2.85167 ,27.98057 
162 ,29.5353 ,0.73933 ,2.85851 ,28.04772 
163 ,29.7109 ,0.74108 ,2.83456 ,27.81268 
164 ,29.8872 ,0.74283 ,2.80034 ,27.47689 
165 ,30.0791 ,0.74469 ,2.79691 ,27.44332 
166 ,30.2875 ,0.74671 ,2.77980 ,27.27542 
167 ,30.4796 ,0.74873 ,2.76611 ,27.14111 
168 ,30.6717 ,0.75064 ,2.75585 ,27.04038 
169 ,30.8797 ,0.75259 ,2.72505 ,26.73817 
170 ,31.0719 ,0.75465 ,2.71820 ,26.67101 
171 ,31.2478 ,0.75644 ,2.71136 ,26.60386 
172 ,31.4236 ,0.75821 ,2.69083 ,26.40239 
173 ,31.6002 ,0.75997 ,2.68740 ,26.36881 
174 ,31.7761 ,0.76175 ,2.66687 ,26.16734 
175 ,31.9522 ,0.76350 ,2.66345 ,26.13376 
176 ,32.1438 ,0.76539 ,2.62238 ,25.73082 
177 ,32.3203 ,0.76716 ,2.62238 ,25.73082 
178 ,32.4964 ,0.76895 ,2.60527 ,25.56293 
179 ,32.6883 ,0.77073 ,2.59843 ,25.49577 
180 ,32.8646 ,0.77261 ,2.56421 ,25.15999 
181 ,33.0727 ,0.77453 ,2.57789 ,25.29430 
182 ,33.2485 ,0.77648 ,2.54367 ,24.95852 
183 ,33.4568 ,0.77839 ,2.53341 ,24.85779 
184 ,33.6644 ,0.78059 ,2.50603 ,24.58916 
185 ,33.8569 ,0.78242 ,2.49234 ,24.45485 
186 ,34.0490 ,0.78447 ,2.48550 ,24.38769 
187 ,34.2251 ,0.78621 ,2.46496 ,24.18622 
188 ,34.4007 ,0.78806 ,2.46154 ,24.15264 
189 ,34.5769 ,0.78970 ,2.44101 ,23.95117 
190 ,34.7529 ,0.79145 ,2.43759 ,23.91759 
191 ,34.9290 ,0.79322 ,2.41705 ,23.71612 
192 ,35.0890 ,0.79497 ,2.37941 ,23.34676 
193 ,35.2491 ,0.79655 ,2.37941 ,23.34676 
194 ,35.4252 ,0.79820 ,2.37599 ,23.31318 
195 ,35.6013 ,0.79995 ,2.35203 ,23.07814 
196 ,35.7773 ,0.80171 ,2.35203 ,23.07814 
197 ,35.9534 ,0.80345 ,2.33834 ,22.94382 
198 ,36.1295 ,0.80521 ,2.32465 ,22.80951 
199 ,36.2895 ,0.80693 ,2.30070 ,22.57446 
200 ,36.4655 ,0.80855 ,2.28701 ,22.44015 
201 ,36.6416 ,0.81033 ,2.26990 ,22.27226 
202 ,36.8178 ,0.81211 ,2.26648 ,22.23868 
203 ,36.9937 ,0.81391 ,2.26990 ,22.27226 
204 ,37.1699 ,0.81562 ,2.23226 ,21.90290 
205 ,37.3300 ,0.81734 ,2.21172 ,21.70143 
206 ,37.5060 ,0.81899 ,2.21515 ,21.73500 
207 ,37.6821 ,0.82078 ,2.18435 ,21.43280 
208 ,37.8582 ,0.82253 ,2.18092 ,21.39922 
209 ,38.0343 ,0.82423 ,2.18092 ,21.39922 
210 ,38.2101 ,0.82603 ,2.15697 ,21.16417 
211 ,38.3862 ,0.82782 ,2.13301 ,20.92912 
212 ,38.5624 ,0.82954 ,2.12275 ,20.82839 
213 ,38.7384 ,0.83132 ,2.09879 ,20.59334 
214 ,38.8985 ,0.83304 ,2.11248 ,20.72766 
215 ,39.0746 ,0.83471 ,2.09195 ,20.52619 
216 ,39.2671 ,0.83651 ,2.07484 ,20.35829 
217 ,39.4591 ,0.83856 ,2.07484 ,20.35829 
218 ,39.6349 ,0.84025 ,2.05430 ,20.15682 
219 ,39.8114 ,0.84204 ,2.03377 ,19.95535 
220 ,40.0034 ,0.84397 ,1.99613 ,19.58599 
221 ,40.1795 ,0.84572 ,2.00639 ,19.68673 
222 ,40.3716 ,0.84766 ,1.98928 ,19.51884 
223 ,40.5477 ,0.84942 ,1.97217 ,19.35094 
224 ,40.7552 ,0.85143 ,1.94479 ,19.08232 
225 ,40.9317 ,0.85324 ,1.94479 ,19.08232 
226 ,41.1081 ,0.85497 ,1.92084 ,18.84727 
227 ,41.3001 ,0.85693 ,1.90373 ,18.67938 
228 ,41.4920 ,0.85878 ,1.90715 ,18.71296 
229 ,41.6839 ,0.86073 ,1.86951 ,18.34360 
230 ,41.8600 ,0.86249 ,1.86951 ,18.34360 
231 ,42.0363 ,0.86429 ,1.85924 ,18.24286 
232 ,42.2124 ,0.86617 ,1.84213 ,18.07497 
233 ,42.4044 ,0.86789 ,1.84213 ,18.07497 
234 ,42.5965 ,0.86993 ,1.81817 ,17.83992 
235 ,42.7723 ,0.87165 ,1.81133 ,17.77276 
236 ,42.9487 ,0.87340 ,1.79080 ,17.57129 
237 ,43.1404 ,0.87534 ,1.75657 ,17.23551 
238 ,43.3168 ,0.87710 ,1.76684 ,17.33625 
239 ,43.5090 ,0.87895 ,1.72578 ,16.93331 
240 ,43.7012 ,0.88095 ,1.71209 ,16.79899 
241 ,43.8769 ,0.88264 ,1.71893 ,16.86615 
242 ,44.0691 ,0.88453 ,1.71551 ,16.83257 
243 ,44.2611 ,0.88646 ,1.69498 ,16.63110 
244 ,44.4372 ,0.88825 ,1.67102 ,16.39605 
245 ,44.6133 ,0.89003 ,1.66760 ,16.36248 
246 ,44.7890 ,0.89186 ,1.62311 ,15.92596 
247 ,44.9653 ,0.89353 ,1.63338 ,16.02669 
248 ,45.1415 ,0.89536 ,1.63338 ,16.02669 
249 ,45.3176 ,0.89708 ,1.61284 ,15.82522 
250 ,45.5256 ,0.89914 ,1.58204 ,15.52302 
251 ,45.7018 ,0.90092 ,1.56836 ,15.38871 
252 ,45.9101 ,0.90282 ,1.55809 ,15.28797 
253 ,46.0855 ,0.90488 ,1.54098 ,15.12008 
254 ,46.2781 ,0.90656 ,1.53071 ,15.01934 
255 ,46.4541 ,0.90847 ,1.52729 ,14.98577 
256 ,46.6621 ,0.91042 ,1.48965 ,14.61640 
257 ,46.8543 ,0.91240 ,1.49307 ,14.64998 
258 ,47.0302 ,0.91421 ,1.48622 ,14.58283 
259 ,47.2224 ,0.91609 ,1.45885 ,14.31420 
260 ,47.4142 ,0.91804 ,1.45542 ,14.28062 
261 ,47.5906 ,0.91982 ,1.44174 ,14.14631 
262 ,47.7823 ,0.92170 ,1.40751 ,13.81053 
263 ,47.9587 ,0.92349 ,1.41094 ,13.84410 
264 ,48.1188 ,0.92521 ,1.41094 ,13.84410 
265 ,48.2949 ,0.92680 ,1.38698 ,13.60906 
266 ,48.4869 ,0.92880 ,1.36645 ,13.40759 
267 ,48.6789 ,0.93071 ,1.35276 ,13.27327 
268 ,48.8550 ,0.93240 ,1.35618 ,13.30685 
269 ,49.0311 ,0.93428 ,1.33907 ,13.13896 
270 ,49.2230 ,0.93606 ,1.30827 ,12.83675 
271 ,49.3996 ,0.93789 ,1.30143 ,12.76960 
272 ,49.5915 ,0.93983 ,1.29458 ,12.70244 
273 ,49.7836 ,0.94164 ,1.27747 ,12.53455 
274 ,49.9755 ,0.94359 ,1.27063 ,12.46739 
275 ,50.1838 ,0.94568 ,1.24325 ,12.19877 
276 ,50.3597 ,0.94754 ,1.24325 ,12.19877 
277 ,50.5519 ,0.94936 ,1.23641 ,12.13161 
278 ,50.7279 ,0.95113 ,1.20218 ,11.79583 
279 ,50.9042 ,0.95289 ,1.19876 ,11.76225 
280 ,51.0797 ,0.95468 ,1.18165 ,11.59436 
281 ,51.2720 ,0.95662 ,1.17823 ,11.56078 
282 ,51.4641 ,0.95849 ,1.15085 ,11.29215 
283 ,51.6561 ,0.96037 ,1.14401 ,11.22500 
284 ,51.8482 ,0.96241 ,1.13032 ,11.09068 
285 ,52.0242 ,0.96413 ,1.10979 ,10.88921 
286 ,52.2165 ,0.96604 ,1.09952 ,10.78848 
287 ,52.3922 ,0.96782 ,1.09952 ,10.78848 
288 ,52.5686 ,0.96960 ,1.08583 ,10.65416 
289 ,52.7445 ,0.97127 ,1.06187 ,10.41912 
290 ,52.9204 ,0.97306 ,1.05161 ,10.31838 
291 ,53.0969 ,0.97484 ,1.03450 ,10.15049 
292 ,53.2887 ,0.97671 ,1.03450 ,10.15049 
293 ,53.4805 ,0.97873 ,1.00370 ,9.84829 
294 ,53.6570 ,0.98045 ,1.00028 ,9.81471 
295 ,53.8488 ,0.98225 ,0.99343 ,9.74755 
296 ,54.0412 ,0.98429 ,0.97290 ,9.54608 
297 ,54.2173 ,0.98608 ,0.95237 ,9.34461 
298 ,54.4253 ,0.98799 ,0.95921 ,9.41177 
299 ,54.6014 ,0.98988 ,0.93183 ,9.14314 
300 ,54.7775 ,0.99166 ,0.92499 ,9.07598 
301 ,54.9535 ,0.99337 ,0.91472 ,8.97525 
302 ,55.1455 ,0.99525 ,0.90788 ,8.90809 
303 ,55.3218 ,0.99708 ,0.89761 ,8.80736 
304 ,55.5138 ,0.99902 ,0.88392 ,8.67305 
305 ,55.6897 ,1.00074 ,0.88050 ,8.63947 
306 ,55.8817 ,1.00267 ,0.84628 ,8.30368 
307 ,56.0580 ,1.00443 ,0.83601 ,8.20295 
308 ,56.2343 ,1.00619 ,0.84628 ,8.30368 
309 ,56.4103 ,1.00799 ,0.82917 ,8.13579 
310 ,56.6023 ,1.00985 ,0.79152 ,7.76643 
311 ,56.7783 ,1.01165 ,0.79495 ,7.80001 
312 ,56.9864 ,1.01366 ,0.77784 ,7.63212 
313 ,57.1784 ,1.01558 ,0.78468 ,7.69927 
314 ,57.3545 ,1.01737 ,0.76415 ,7.49780 
315 ,57.5307 ,1.01920 ,0.77441 ,7.59854 
316 ,57.7225 ,1.02103 ,0.73335 ,7.19560 
317 ,57.9145 ,1.02303 ,0.71624 ,7.02771 
318 ,58.1069 ,1.02494 ,0.71281 ,6.99413 
319 ,58.2990 ,1.02685 ,0.69228 ,6.79266 
320 ,58.4749 ,1.02861 ,0.68886 ,6.75908 
321 ,58.6670 ,1.03055 ,0.68886 ,6.75908 
322 ,58.8427 ,1.03226 ,0.65806 ,6.45688 
323 ,59.0192 ,1.03400 ,0.64779 ,6.35614 
324 ,59.1953 ,1.03577 ,0.64437 ,6.32256 
325 ,59.3711 ,1.03758 ,0.63753 ,6.25541 
326 ,59.5474 ,1.03937 ,0.63410 ,6.22183 
327 ,59.7393 ,1.04125 ,0.59988 ,5.88605 
328 ,59.8993 ,1.04293 ,0.59988 ,5.88605 
329 ,60.0757 ,1.04462 ,0.58962 ,5.78531 
330 ,60.2516 ,1.04647 ,0.57935 ,5.68458 
331 ,60.4278 ,1.04816 ,0.57593 ,5.65100 
332 ,60.6041 ,1.04991 ,0.54171 ,5.31522 
333 ,60.7959 ,1.05179 ,0.53144 ,5.21448 
334 ,60.9718 ,1.05355 ,0.54171 ,5.31522 
335 ,61.1481 ,1.05531 ,0.52459 ,5.14732 
336 ,61.3241 ,1.05708 ,0.51091 ,5.01301 
337 ,61.5161 ,1.05894 ,0.51091 ,5.01301 
338 ,61.7084 ,1.06087 ,0.49037 ,4.81154 
339 ,61.9004 ,1.06285 ,0.47326 ,4.64365 
340 ,62.0602 ,1.06453 ,0.46300 ,4.54291 
341 ,62.2522 ,1.06632 ,0.46300 ,4.54291 
342 ,62.4285 ,1.06810 ,0.45615 ,4.47576 
343 ,62.6207 ,1.07005 ,0.42877 ,4.20713 
344 ,62.8127 ,1.07190 ,0.43220 ,4.24071 
345 ,63.0048 ,1.07387 ,0.39797 ,3.90493 
346 ,63.1805 ,1.07562 ,0.40482 ,3.97208 
347 ,63.3728 ,1.07751 ,0.39797 ,3.90493 
348 ,63.5651 ,1.07944 ,0.36718 ,3.60272 
349 ,63.7412 ,1.08127 ,0.36033 ,3.53557 
350 ,63.9171 ,1.08304 ,0.34322 ,3.36767 
351 ,64.0931 ,1.08476 ,0.33980 ,3.33410 
352 ,64.2854 ,1.08664 ,0.32269 ,3.16620 
353 ,64.4774 ,1.08860 ,0.31242 ,3.06547 
354 ,64.6535 ,1.09035 ,0.31926 ,3.13263 
355 ,64.8456 ,1.09223 ,0.29189 ,2.86400 
356 ,65.0376 ,1.09416 ,0.28847 ,2.83042 
357 ,65.2133 ,1.09592 ,0.27820 ,2.72969 
358 ,65.3898 ,1.09771 ,0.27820 ,2.72969 
359 ,65.5979 ,1.09974 ,0.24398 ,2.39390 
360 ,65.8058 ,1.10184 ,0.24398 ,2.39390 
361 ,65.9821 ,1.10362 ,0.23029 ,2.25959 
362 ,66.1738 ,1.10553 ,0.23371 ,2.29317 
363 ,66.3500 ,1.10731 ,0.22344 ,2.19243 
364 ,66.5262 ,1.10911 ,0.19949 ,1.95738 
365 ,66.7183 ,1.11105 ,0.17896 ,1.75592 
366 ,66.8943 ,1.11277 ,0.17896 ,1.75592 
367 ,67.0862 ,1.11459 ,0.16527 ,1.62160 
368 ,67.2784 ,1.11653 ,0.15842 ,1.55445 
369 ,67.4543 ,1.11841 ,0.12762 ,1.25224 
370 ,67.6465 ,1.12023 ,0.13447 ,1.31940 
371 ,67.8226 ,1.12204 ,0.11393 ,1.11793 
372 ,67.9989 ,1.12379 ,0.09682 ,0.95004 
373 ,68.1908 ,1.12569 ,0.11051 ,1.08435 
374 ,68.3668 ,1.12751 ,0.09682 ,0.95004 
375 ,68.5430 ,1.12930 ,0.06945 ,0.68141 
376 ,68.7191 ,1.13102 ,0.06260 ,0.61425 
377 ,68.9111 ,1.13283 ,0.07287 ,0.71499 
378 ,69.0872 ,1.13471 ,0.07287 ,0.71499 
379 ,69.2634 ,1.13646 ,0.03180 ,0.31205 
380 ,69.4551 ,1.13838 ,0.02838 ,0.27847 
381 ,69.6313 ,1.14009 ,0.03180 ,0.31205 
382 ,69.8236 ,1.14202 ,0.01127 ,0.11058 
383 ,70.0317 ,1.14399 ,0.01127 ,0.11058 
384 ,70.2237 ,1.14603 ,-0.01269 ,-0.12447 
385 ,70.4158 ,1.14787 ,-0.01953 ,-0.19163 
386 ,70.5920 ,1.14975 ,-0.02980 ,-0.29236 
387 ,70.7679 ,1.15161 ,-0.03664 ,-0.35952 
388 ,70.9438 ,1.15323 ,-0.05375 ,-0.52741 
389 ,71.1360 ,1.15513 ,-0.05717 ,-0.56099 
390 ,71.3278 ,1.15708 ,-0.07428 ,-0.72888 
391 ,71.5042 ,1.15883 ,-0.07771 ,-0.76246 
392 ,71.6802 ,1.16074 ,-0.10851 ,-1.06466 
393 ,71.8724 ,1.16252 ,-0.08113 ,-0.79604 
394 ,72.0644 ,1.16441 ,-0.11877 ,-1.16540 
395 ,72.2566 ,1.16629 ,-0.11193 ,-1.09824 
396 ,72.4485 ,1.16833 ,-0.12904 ,-1.26613 
397 ,72.6246 ,1.17008 ,-0.12562 ,-1.23255 
398 ,72.8167 ,1.17195 ,-0.16326 ,-1.60191 
399 ,73.0249 ,1.17393 ,-0.14957 ,-1.46760 
400 ,73.2169 ,1.17593 ,-0.18722 ,-1.83696 
401 ,73.4089 ,1.17782 ,-0.17353 ,-1.70265 
402 ,73.5849 ,1.17960 ,-0.19406 ,-1.90412 
403 ,73.7608 ,1.18139 ,-0.20775 ,-2.03843 
404 ,73.9373 ,1.18319 ,-0.21802 ,-2.13917 
405 ,74.1292 ,1.18507 ,-0.21117 ,-2.07201 
406 ,74.3052 ,1.18683 ,-0.22486 ,-2.20632 
407 ,74.4810 ,1.18858 ,-0.25566 ,-2.50853 
408 ,74.6410 ,1.19031 ,-0.26250 ,-2.57569 
409 ,74.8332 ,1.19206 ,-0.27277 ,-2.67642 
410 ,75.0093 ,1.19391 ,-0.26935 ,-2.64284 
411 ,75.1694 ,1.19562 ,-0.27619 ,-2.71000 
412 ,75.3458 ,1.19722 ,-0.27961 ,-2.74358 
413 ,75.5378 ,1.19912 ,-0.31726 ,-3.11294 
414 ,75.7138 ,1.20092 ,-0.31041 ,-3.04578 
415 ,75.8896 ,1.20275 ,-0.30699 ,-3.01220 
416 ,76.0660 ,1.20444 ,-0.32068 ,-3.14652 
417 ,76.2421 ,1.20620 ,-0.33437 ,-3.28083 
418 ,76.4182 ,1.20798 ,-0.35832 ,-3.51588 
419 ,76.5942 ,1.20974 ,-0.35832 ,-3.51588 
420 ,76.7703 ,1.21148 ,-0.35148 ,-3.44872 
421 ,76.9461 ,1.21323 ,-0.36175 ,-3.54946 
422 ,77.1226 ,1.21503 ,-0.36517 ,-3.58303 
423 ,77.3144 ,1.21688 ,-0.40281 ,-3.95240 
424 ,77.4906 ,1.21868 ,-0.39597 ,-3.88524 
425 ,77.6507 ,1.22043 ,-0.39939 ,-3.91882 
426 ,77.8269 ,1.22200 ,-0.39597 ,-3.88524 
427 ,78.0186 ,1.22392 ,-0.44046 ,-4.32176 
428 ,78.1790 ,1.22569 ,-0.44388 ,-4.35534 
429 ,78.3551 ,1.22732 ,-0.45072 ,-4.42249 
430 ,78.5312 ,1.22910 ,-0.45072 ,-4.42249 
431 ,78.7392 ,1.23102 ,-0.46099 ,-4.52323 
432 ,78.9153 ,1.23289 ,-0.47810 ,-4.69112 
433 ,79.0910 ,1.23472 ,-0.47810 ,-4.69112 
434 ,79.2671 ,1.23643 ,-0.48494 ,-4.75828 
435 ,79.4435 ,1.23818 ,-0.50890 ,-4.99332 
436 ,79.6196 ,1.24002 ,-0.51917 ,-5.09406 
437 ,79.8114 ,1.24181 ,-0.51574 ,-5.06048 
438 ,79.9874 ,1.24363 ,-0.52601 ,-5.16121 
439 ,80.1635 ,1.24536 ,-0.53285 ,-5.22837 
440 ,80.3399 ,1.24719 ,-0.53970 ,-5.29553 
441 ,80.5479 ,1.24924 ,-0.54312 ,-5.32911 
442 ,80.7237 ,1.25095 ,-0.57392 ,-5.63131 
443 ,80.9002 ,1.25283 ,-0.56365 ,-5.53058 
444 ,81.1082 ,1.25474 ,-0.57734 ,-5.66489 
445 ,81.2842 ,1.25659 ,-0.57734 ,-5.66489 
446 ,81.4603 ,1.25840 ,-0.60814 ,-5.96709 
447 ,81.6363 ,1.26012 ,-0.62525 ,-6.13499 
448 ,81.8125 ,1.26191 ,-0.63210 ,-6.20214 
449 ,82.0044 ,1.26382 ,-0.61841 ,-6.06783 
450 ,82.1965 ,1.26565 ,-0.63894 ,-6.26930 
451 ,82.3727 ,1.26748 ,-0.65605 ,-6.43719 
452 ,82.5647 ,1.26940 ,-0.64236 ,-6.30288 
453 ,82.7568 ,1.27134 ,-0.67659 ,-6.63866 
454 ,82.9329 ,1.27306 ,-0.66632 ,-6.53793 
455 ,83.1091 ,1.27485 ,-0.68001 ,-6.67224 
456 ,83.3008 ,1.27683 ,-0.70396 ,-6.90729 
457 ,83.4769 ,1.27854 ,-0.70739 ,-6.94086 
458 ,83.6691 ,1.28039 ,-0.70739 ,-6.94086 
459 ,83.8611 ,1.28226 ,-0.71423 ,-7.00802 
460 ,84.0532 ,1.28422 ,-0.73476 ,-7.20949 
461 ,84.2294 ,1.28605 ,-0.73476 ,-7.20949 
462 ,84.4212 ,1.28791 ,-0.75530 ,-7.41096 
463 ,84.5977 ,1.28975 ,-0.76214 ,-7.47812 
