Data stamp = , 06-04-2022 08:38:10 370

Calibration Values: 
Slope = , 26.54 , g/V 
Offset Voltage at no contact = , -0.501760 , V 

No , Time , Stage Position ,   Mass , Force 
   ,  (s) ,      (mm)      ,   (g)  , (mN)  

1 ,0.0000 ,0.44934 ,5.24376 ,51.45180 
2 ,0.2243 ,0.44942 ,5.23692 ,51.38464 
3 ,0.4646 ,0.45008 ,5.26087 ,51.61969 
4 ,0.6727 ,0.45124 ,5.27114 ,51.72043 
5 ,0.8489 ,0.45266 ,5.24718 ,51.48538 
6 ,1.0250 ,0.45435 ,5.23350 ,51.35107 
7 ,1.2170 ,0.45619 ,5.26087 ,51.61969 
8 ,1.3929 ,0.45791 ,5.25403 ,51.55254 
9 ,1.5690 ,0.45974 ,5.24034 ,51.41822 
10 ,1.7451 ,0.46151 ,5.21296 ,51.14960 
11 ,1.9371 ,0.46346 ,5.21296 ,51.14960 
12 ,2.1294 ,0.46538 ,5.19585 ,50.98170 
13 ,2.3215 ,0.46732 ,5.16848 ,50.71308 
14 ,2.5138 ,0.46923 ,5.16505 ,50.67950 
15 ,2.6896 ,0.47097 ,5.13425 ,50.37729 
16 ,2.8657 ,0.47276 ,5.12399 ,50.27656 
17 ,3.0416 ,0.47448 ,5.12056 ,50.24298 
18 ,3.2178 ,0.47626 ,5.10688 ,50.10867 
19 ,3.3938 ,0.47801 ,5.09661 ,50.00793 
20 ,3.5860 ,0.47991 ,5.05897 ,49.63857 
21 ,3.7777 ,0.48185 ,5.05554 ,49.60499 
22 ,3.9543 ,0.48360 ,5.04528 ,49.50426 
23 ,4.1301 ,0.48537 ,5.02132 ,49.26921 
24 ,4.2902 ,0.48706 ,5.00079 ,49.06774 
25 ,4.4664 ,0.48872 ,4.98710 ,48.93343 
26 ,4.6585 ,0.49057 ,4.98710 ,48.93343 
27 ,4.8505 ,0.49264 ,4.95972 ,48.66480 
28 ,5.0266 ,0.49443 ,4.93919 ,48.46333 
29 ,5.2187 ,0.49621 ,4.92550 ,48.32902 
30 ,5.4109 ,0.49808 ,4.90155 ,48.09397 
31 ,5.5869 ,0.49990 ,4.89470 ,48.02681 
32 ,5.7628 ,0.50163 ,4.87759 ,47.85892 
33 ,5.9710 ,0.50376 ,4.86048 ,47.69103 
34 ,6.1631 ,0.50558 ,4.83652 ,47.45598 
35 ,6.3391 ,0.50742 ,4.82968 ,47.38883 
36 ,6.5153 ,0.50920 ,4.81941 ,47.28809 
37 ,6.6911 ,0.51109 ,4.79204 ,47.01946 
38 ,6.8673 ,0.51274 ,4.78519 ,46.95231 
39 ,7.0434 ,0.51449 ,4.75782 ,46.68368 
40 ,7.2355 ,0.51641 ,4.74755 ,46.58295 
41 ,7.4117 ,0.51816 ,4.74755 ,46.58295 
42 ,7.6037 ,0.52004 ,4.71675 ,46.28074 
43 ,7.7955 ,0.52194 ,4.72017 ,46.31432 
44 ,7.9718 ,0.52373 ,4.69622 ,46.07927 
45 ,8.1639 ,0.52561 ,4.66199 ,45.74349 
46 ,8.3560 ,0.52764 ,4.66884 ,45.81065 
47 ,8.5321 ,0.52938 ,4.65857 ,45.70991 
48 ,8.7240 ,0.53118 ,4.63462 ,45.47486 
49 ,8.9161 ,0.53316 ,4.61066 ,45.23981 
50 ,9.0922 ,0.53494 ,4.61408 ,45.27339 
51 ,9.2684 ,0.53674 ,4.60040 ,45.13908 
52 ,9.4444 ,0.53851 ,4.56617 ,44.80330 
53 ,9.6366 ,0.54035 ,4.56617 ,44.80330 
54 ,9.8285 ,0.54230 ,4.54906 ,44.63541 
55 ,10.0042 ,0.54409 ,4.51142 ,44.26604 
56 ,10.1806 ,0.54584 ,4.50115 ,44.16531 
57 ,10.3567 ,0.54762 ,4.50115 ,44.16531 
58 ,10.5329 ,0.54932 ,4.48746 ,44.03100 
59 ,10.7090 ,0.55113 ,4.47035 ,43.86310 
60 ,10.8846 ,0.55297 ,4.43271 ,43.49374 
61 ,11.0610 ,0.55463 ,4.41560 ,43.32585 
62 ,11.2531 ,0.55661 ,4.41902 ,43.35943 
63 ,11.4294 ,0.55833 ,4.39849 ,43.15796 
64 ,11.6210 ,0.56026 ,4.37111 ,42.88933 
65 ,11.7974 ,0.56200 ,4.36769 ,42.85576 
66 ,11.9891 ,0.56383 ,4.35742 ,42.75502 
67 ,12.1656 ,0.56569 ,4.33347 ,42.51997 
68 ,12.3576 ,0.56756 ,4.31978 ,42.38566 
69 ,12.5337 ,0.56932 ,4.33004 ,42.48639 
70 ,12.7097 ,0.57109 ,4.30267 ,42.21777 
71 ,12.8858 ,0.57289 ,4.27871 ,41.98272 
72 ,13.0777 ,0.57480 ,4.26160 ,41.81483 
73 ,13.2541 ,0.57659 ,4.24791 ,41.68051 
74 ,13.4300 ,0.57833 ,4.24449 ,41.64694 
75 ,13.6062 ,0.58005 ,4.21027 ,41.31115 
76 ,13.7823 ,0.58181 ,4.19316 ,41.14326 
77 ,13.9583 ,0.58359 ,4.17605 ,40.97537 
78 ,14.1501 ,0.58557 ,4.15894 ,40.80748 
79 ,14.3426 ,0.58741 ,4.14525 ,40.67317 
80 ,14.5186 ,0.58922 ,4.13156 ,40.53885 
81 ,14.7107 ,0.59111 ,4.13156 ,40.53885 
82 ,14.9028 ,0.59308 ,4.09049 ,40.13591 
83 ,15.0786 ,0.59478 ,4.08365 ,40.06876 
84 ,15.2550 ,0.59656 ,4.08023 ,40.03518 
85 ,15.4631 ,0.59859 ,4.07680 ,40.00160 
86 ,15.6391 ,0.60040 ,4.02889 ,39.53150 
87 ,15.8311 ,0.60229 ,4.03916 ,39.63224 
88 ,16.0073 ,0.60410 ,4.01178 ,39.36361 
89 ,16.1991 ,0.60592 ,3.99467 ,39.19572 
90 ,16.3753 ,0.60774 ,3.99467 ,39.19572 
91 ,16.5514 ,0.60955 ,3.97414 ,38.99425 
92 ,16.7756 ,0.61161 ,3.94334 ,38.69205 
93 ,16.9514 ,0.61357 ,3.93992 ,38.65847 
94 ,17.1595 ,0.61556 ,3.91254 ,38.38984 
95 ,17.3355 ,0.61735 ,3.91254 ,38.38984 
96 ,17.5599 ,0.61946 ,3.88858 ,38.15479 
97 ,17.7358 ,0.62137 ,3.86463 ,37.91975 
98 ,17.9120 ,0.62312 ,3.86463 ,37.91975 
99 ,18.1199 ,0.62515 ,3.84067 ,37.68470 
100 ,18.3117 ,0.62713 ,3.83725 ,37.65112 
101 ,18.4880 ,0.62888 ,3.82356 ,37.51681 
102 ,18.6803 ,0.63079 ,3.77565 ,37.04671 
103 ,18.8723 ,0.63265 ,3.76539 ,36.94597 
104 ,19.0645 ,0.63468 ,3.76539 ,36.94597 
105 ,19.2563 ,0.63651 ,3.73117 ,36.61019 
106 ,19.4325 ,0.63826 ,3.73117 ,36.61019 
107 ,19.6245 ,0.64022 ,3.71748 ,36.47588 
108 ,19.8004 ,0.64198 ,3.69010 ,36.20725 
109 ,19.9767 ,0.64377 ,3.67641 ,36.07294 
110 ,20.1689 ,0.64573 ,3.67299 ,36.03936 
111 ,20.3766 ,0.64769 ,3.64561 ,35.77073 
112 ,20.5530 ,0.64950 ,3.64219 ,35.73716 
113 ,20.7448 ,0.65144 ,3.62166 ,35.53569 
114 ,20.9212 ,0.65319 ,3.60112 ,35.33422 
115 ,21.0978 ,0.65497 ,3.57032 ,35.03201 
116 ,21.2734 ,0.65672 ,3.58401 ,35.16632 
117 ,21.4490 ,0.65854 ,3.55663 ,34.89770 
118 ,21.6255 ,0.66027 ,3.55663 ,34.89770 
119 ,21.8175 ,0.66217 ,3.52241 ,34.56192 
120 ,21.9935 ,0.66390 ,3.52584 ,34.59549 
121 ,22.1694 ,0.66567 ,3.50872 ,34.42760 
122 ,22.3616 ,0.66752 ,3.47108 ,34.05824 
123 ,22.5376 ,0.66944 ,3.48135 ,34.15898 
124 ,22.7139 ,0.67113 ,3.45739 ,33.92393 
125 ,22.9059 ,0.67307 ,3.44713 ,33.82319 
126 ,23.0819 ,0.67491 ,3.42317 ,33.58814 
127 ,23.2580 ,0.67658 ,3.39237 ,33.28594 
128 ,23.4342 ,0.67833 ,3.39579 ,33.31952 
129 ,23.6099 ,0.68005 ,3.38553 ,33.21878 
130 ,23.7864 ,0.68184 ,3.37868 ,33.15163 
131 ,23.9784 ,0.68368 ,3.35473 ,32.91658 
132 ,24.1544 ,0.68552 ,3.33419 ,32.71511 
133 ,24.3466 ,0.68744 ,3.33077 ,32.68153 
134 ,24.5227 ,0.68919 ,3.32051 ,32.58080 
135 ,24.7145 ,0.69119 ,3.32051 ,32.58080 
136 ,24.8908 ,0.69285 ,3.28628 ,32.24501 
137 ,25.0988 ,0.69479 ,3.26575 ,32.04354 
138 ,25.2747 ,0.69674 ,3.25891 ,31.97639 
139 ,25.4508 ,0.69848 ,3.25891 ,31.97639 
140 ,25.6269 ,0.70024 ,3.24180 ,31.80849 
141 ,25.8030 ,0.70206 ,3.22811 ,31.67418 
142 ,25.9947 ,0.70390 ,3.20073 ,31.40555 
143 ,26.2031 ,0.70592 ,3.18362 ,31.23766 
144 ,26.3953 ,0.70795 ,3.15624 ,30.96904 
145 ,26.5713 ,0.70967 ,3.15966 ,31.00262 
146 ,26.7473 ,0.71143 ,3.14255 ,30.83472 
147 ,26.9555 ,0.71339 ,3.11175 ,30.53252 
148 ,27.1637 ,0.71551 ,3.11860 ,30.59968 
149 ,27.3396 ,0.71738 ,3.08780 ,30.29747 
150 ,27.5318 ,0.71926 ,3.08095 ,30.23031 
151 ,27.7239 ,0.72113 ,3.05015 ,29.92811 
152 ,27.9000 ,0.72299 ,3.04331 ,29.86095 
153 ,28.0759 ,0.72471 ,3.03647 ,29.79380 
154 ,28.2521 ,0.72645 ,3.02278 ,29.65948 
155 ,28.4441 ,0.72833 ,2.99882 ,29.42444 
156 ,28.6198 ,0.73016 ,2.98513 ,29.29012 
157 ,28.7960 ,0.73188 ,2.97487 ,29.18939 
158 ,28.9881 ,0.73375 ,2.96460 ,29.08865 
159 ,29.1804 ,0.73575 ,2.94064 ,28.85360 
160 ,29.3564 ,0.73755 ,2.91669 ,28.61856 
161 ,29.5327 ,0.73926 ,2.93038 ,28.75287 
162 ,29.7243 ,0.74121 ,2.91669 ,28.61856 
163 ,29.8842 ,0.74292 ,2.88931 ,28.34993 
164 ,30.0606 ,0.74453 ,2.86536 ,28.11488 
165 ,30.2530 ,0.74652 ,2.86878 ,28.14846 
166 ,30.4449 ,0.74829 ,2.85509 ,28.01415 
167 ,30.6211 ,0.75015 ,2.82429 ,27.71194 
168 ,30.8289 ,0.75219 ,2.83114 ,27.77910 
169 ,31.0052 ,0.75401 ,2.81402 ,27.61121 
170 ,31.1811 ,0.75577 ,2.80034 ,27.47689 
171 ,31.3734 ,0.75765 ,2.78322 ,27.30900 
172 ,31.5496 ,0.75944 ,2.77296 ,27.20827 
173 ,31.7415 ,0.76130 ,2.74558 ,26.93964 
174 ,31.9336 ,0.76329 ,2.73531 ,26.83891 
175 ,32.1257 ,0.76522 ,2.72163 ,26.70459 
176 ,32.3017 ,0.76694 ,2.69425 ,26.43597 
177 ,32.4938 ,0.76885 ,2.69083 ,26.40239 
178 ,32.6697 ,0.77068 ,2.68740 ,26.36881 
179 ,32.8619 ,0.77243 ,2.64634 ,25.96587 
180 ,33.0380 ,0.77433 ,2.62581 ,25.76440 
181 ,33.2300 ,0.77621 ,2.64634 ,25.96587 
182 ,33.4059 ,0.77799 ,2.62581 ,25.76440 
183 ,33.5818 ,0.77976 ,2.59501 ,25.46220 
184 ,33.7579 ,0.78153 ,2.57789 ,25.29430 
185 ,33.9343 ,0.78331 ,2.56763 ,25.19357 
186 ,34.1265 ,0.78521 ,2.56421 ,25.15999 
187 ,34.2865 ,0.78689 ,2.53683 ,24.89136 
188 ,34.4785 ,0.78868 ,2.51287 ,24.65632 
189 ,34.6549 ,0.79048 ,2.50945 ,24.62274 
190 ,34.8309 ,0.79225 ,2.50261 ,24.55558 
191 ,35.0390 ,0.79422 ,2.47523 ,24.28696 
192 ,35.2152 ,0.79609 ,2.46839 ,24.21980 
193 ,35.4072 ,0.79804 ,2.45470 ,24.08549 
194 ,35.5992 ,0.79995 ,2.43074 ,23.85044 
195 ,35.7912 ,0.80176 ,2.41705 ,23.71612 
196 ,35.9993 ,0.80387 ,2.39652 ,23.51465 
197 ,36.1755 ,0.80566 ,2.38625 ,23.41392 
198 ,36.3351 ,0.80738 ,2.39652 ,23.51465 
199 ,36.5115 ,0.80903 ,2.37599 ,23.31318 
200 ,36.6876 ,0.81079 ,2.35888 ,23.14529 
201 ,36.8796 ,0.81279 ,2.33492 ,22.91024 
202 ,37.0558 ,0.81448 ,2.31097 ,22.67520 
203 ,37.2319 ,0.81623 ,2.31097 ,22.67520 
204 ,37.4235 ,0.81817 ,2.30412 ,22.60804 
205 ,37.5999 ,0.81993 ,2.28359 ,22.40657 
206 ,37.8079 ,0.82196 ,2.26990 ,22.27226 
207 ,37.9842 ,0.82378 ,2.24937 ,22.07079 
208 ,38.1921 ,0.82576 ,2.24937 ,22.07079 
209 ,38.3843 ,0.82786 ,2.20830 ,21.66785 
210 ,38.5601 ,0.82950 ,2.20146 ,21.60069 
211 ,38.7365 ,0.83132 ,2.19119 ,21.49996 
212 ,38.9284 ,0.83317 ,2.18435 ,21.43280 
213 ,39.1047 ,0.83495 ,2.15697 ,21.16417 
214 ,39.2809 ,0.83674 ,2.14670 ,21.06344 
215 ,39.4568 ,0.83858 ,2.14670 ,21.06344 
216 ,39.6330 ,0.84025 ,2.13301 ,20.92912 
217 ,39.8570 ,0.84238 ,2.10221 ,20.62692 
218 ,40.0332 ,0.84429 ,2.09879 ,20.59334 
219 ,40.2252 ,0.84618 ,2.06799 ,20.29114 
220 ,40.4174 ,0.84808 ,2.06115 ,20.22398 
221 ,40.5930 ,0.84987 ,2.05430 ,20.15682 
222 ,40.7698 ,0.85162 ,2.04061 ,20.02251 
223 ,40.9615 ,0.85353 ,2.02350 ,19.85462 
224 ,41.1536 ,0.85537 ,2.00297 ,19.65315 
225 ,41.3296 ,0.85723 ,1.99955 ,19.61957 
226 ,41.5215 ,0.85910 ,1.97217 ,19.35094 
227 ,41.6973 ,0.86092 ,1.96875 ,19.31737 
228 ,41.8739 ,0.86265 ,1.94822 ,19.11590 
229 ,42.0660 ,0.86453 ,1.95506 ,19.18305 
230 ,42.2420 ,0.86636 ,1.92426 ,18.88085 
231 ,42.4180 ,0.86808 ,1.90031 ,18.64580 
232 ,42.5941 ,0.86990 ,1.88662 ,18.51149 
233 ,42.7698 ,0.87156 ,1.88662 ,18.51149 
234 ,42.9463 ,0.87335 ,1.87293 ,18.37717 
235 ,43.1384 ,0.87525 ,1.84555 ,18.10855 
236 ,43.3146 ,0.87706 ,1.84213 ,18.07497 
237 ,43.4903 ,0.87888 ,1.83186 ,17.97423 
238 ,43.6827 ,0.88066 ,1.80449 ,17.70561 
239 ,43.8748 ,0.88256 ,1.80449 ,17.70561 
240 ,44.0668 ,0.88449 ,1.77369 ,17.40340 
241 ,44.2429 ,0.88634 ,1.76000 ,17.26909 
242 ,44.4350 ,0.88821 ,1.76342 ,17.30267 
243 ,44.6110 ,0.89003 ,1.73604 ,17.03404 
244 ,44.7871 ,0.89181 ,1.73946 ,17.06762 
245 ,44.9953 ,0.89380 ,1.70866 ,16.76542 
246 ,45.1873 ,0.89577 ,1.69840 ,16.66468 
247 ,45.3793 ,0.89769 ,1.66760 ,16.36248 
248 ,45.5554 ,0.89946 ,1.66075 ,16.29532 
249 ,45.7635 ,0.90144 ,1.64707 ,16.16101 
250 ,45.9392 ,0.90329 ,1.62653 ,15.95954 
251 ,46.1158 ,0.90504 ,1.62653 ,15.95954 
252 ,46.3077 ,0.90696 ,1.62311 ,15.92596 
253 ,46.4834 ,0.90870 ,1.59916 ,15.69091 
254 ,46.6755 ,0.91052 ,1.57520 ,15.45586 
255 ,46.8519 ,0.91239 ,1.57178 ,15.42228 
256 ,47.0439 ,0.91422 ,1.56836 ,15.38871 
257 ,47.2202 ,0.91607 ,1.52729 ,14.98577 
258 ,47.3962 ,0.91790 ,1.52387 ,14.95219 
259 ,47.5883 ,0.91972 ,1.51702 ,14.88503 
260 ,47.7800 ,0.92160 ,1.49307 ,14.64998 
261 ,47.9564 ,0.92345 ,1.48622 ,14.58283 
262 ,48.1485 ,0.92536 ,1.48280 ,14.54925 
263 ,48.3246 ,0.92712 ,1.45885 ,14.31420 
264 ,48.5006 ,0.92886 ,1.44516 ,14.17989 
265 ,48.6767 ,0.93068 ,1.43831 ,14.11273 
266 ,48.8529 ,0.93243 ,1.42805 ,14.01199 
267 ,49.0449 ,0.93434 ,1.40409 ,13.77695 
268 ,49.2530 ,0.93633 ,1.40751 ,13.81053 
269 ,49.4291 ,0.93820 ,1.38014 ,13.54190 
270 ,49.6048 ,0.94002 ,1.35618 ,13.30685 
271 ,49.7808 ,0.94160 ,1.34249 ,13.17254 
272 ,49.9572 ,0.94342 ,1.33907 ,13.13896 
273 ,50.1331 ,0.94524 ,1.32196 ,12.97107 
274 ,50.3255 ,0.94715 ,1.33223 ,13.07180 
275 ,50.5335 ,0.94913 ,1.30827 ,12.83675 
276 ,50.7255 ,0.95113 ,1.29800 ,12.73602 
277 ,50.9012 ,0.95283 ,1.27063 ,12.46739 
278 ,51.0777 ,0.95463 ,1.25694 ,12.33308 
279 ,51.2694 ,0.95649 ,1.24667 ,12.23235 
280 ,51.4459 ,0.95834 ,1.24325 ,12.19877 
281 ,51.6220 ,0.96012 ,1.22614 ,12.03088 
282 ,51.8141 ,0.96202 ,1.20561 ,11.82941 
283 ,51.9901 ,0.96377 ,1.20561 ,11.82941 
284 ,52.1821 ,0.96567 ,1.18850 ,11.66151 
285 ,52.3582 ,0.96741 ,1.15427 ,11.32573 
286 ,52.5342 ,0.96920 ,1.16796 ,11.46004 
287 ,52.7104 ,0.97095 ,1.14743 ,11.25857 
288 ,52.8864 ,0.97276 ,1.13716 ,11.15784 
289 ,53.1903 ,0.97519 ,1.10979 ,10.88921 
290 ,53.3665 ,0.97754 ,1.09952 ,10.78848 
291 ,53.5588 ,0.97942 ,1.07899 ,10.58701 
292 ,53.7349 ,0.98120 ,1.06872 ,10.48627 
293 ,53.9265 ,0.98315 ,1.05161 ,10.31838 
294 ,54.1031 ,0.98486 ,1.03792 ,10.18407 
295 ,54.3110 ,0.98682 ,1.02765 ,10.08333 
296 ,54.4868 ,0.98872 ,1.02423 ,10.04976 
297 ,54.6633 ,0.99047 ,0.99685 ,9.78113 
298 ,54.8554 ,0.99235 ,0.98317 ,9.64682 
299 ,55.0313 ,0.99420 ,0.97632 ,9.57966 
300 ,55.2235 ,0.99604 ,0.95579 ,9.37819 
301 ,55.3996 ,0.99786 ,0.93868 ,9.21030 
302 ,55.5915 ,0.99968 ,0.93868 ,9.21030 
303 ,55.7676 ,1.00150 ,0.92841 ,9.10956 
304 ,55.9437 ,1.00326 ,0.92157 ,9.04241 
305 ,56.1358 ,1.00519 ,0.88734 ,8.70662 
306 ,56.3118 ,1.00700 ,0.87366 ,8.57231 
307 ,56.4879 ,1.00876 ,0.88050 ,8.63947 
308 ,56.6799 ,1.01060 ,0.84286 ,8.27011 
309 ,56.8720 ,1.01256 ,0.84286 ,8.27011 
310 ,57.0642 ,1.01443 ,0.82232 ,8.06864 
311 ,57.2721 ,1.01650 ,0.82232 ,8.06864 
312 ,57.4483 ,1.01835 ,0.80521 ,7.90074 
313 ,57.6401 ,1.02027 ,0.78126 ,7.66570 
314 ,57.8166 ,1.02204 ,0.76757 ,7.53138 
315 ,58.0086 ,1.02392 ,0.77099 ,7.56496 
316 ,58.2005 ,1.02580 ,0.73677 ,7.22918 
317 ,58.3768 ,1.02764 ,0.72650 ,7.12844 
318 ,58.5528 ,1.02936 ,0.71624 ,7.02771 
319 ,58.7284 ,1.03115 ,0.71624 ,7.02771 
320 ,58.9050 ,1.03291 ,0.70255 ,6.89340 
321 ,59.0809 ,1.03479 ,0.68201 ,6.69193 
322 ,59.2571 ,1.03642 ,0.66833 ,6.55761 
323 ,59.4331 ,1.03820 ,0.65806 ,6.45688 
324 ,59.6091 ,1.03989 ,0.66148 ,6.49046 
325 ,59.7850 ,1.04173 ,0.66148 ,6.49046 
326 ,59.9610 ,1.04345 ,0.64437 ,6.32256 
327 ,60.1374 ,1.04521 ,0.60330 ,5.91962 
328 ,60.3135 ,1.04698 ,0.58962 ,5.78531 
329 ,60.4894 ,1.04871 ,0.59988 ,5.88605 
330 ,60.6657 ,1.05049 ,0.58962 ,5.78531 
331 ,60.8415 ,1.05222 ,0.57593 ,5.65100 
332 ,61.0180 ,1.05405 ,0.56566 ,5.55026 
333 ,61.2259 ,1.05604 ,0.55197 ,5.41595 
334 ,61.4020 ,1.05782 ,0.53486 ,5.24806 
335 ,61.6105 ,1.05988 ,0.53486 ,5.24806 
336 ,61.8021 ,1.06177 ,0.50748 ,4.97943 
337 ,61.9782 ,1.06356 ,0.50406 ,4.94585 
338 ,62.1543 ,1.06537 ,0.49037 ,4.81154 
339 ,62.3465 ,1.06730 ,0.49037 ,4.81154 
340 ,62.5545 ,1.06928 ,0.45957 ,4.50934 
341 ,62.7306 ,1.07114 ,0.44246 ,4.34144 
342 ,62.9226 ,1.07298 ,0.44246 ,4.34144 
343 ,63.1149 ,1.07493 ,0.42193 ,4.13997 
344 ,63.2907 ,1.07683 ,0.42535 ,4.17355 
345 ,63.4668 ,1.07846 ,0.40824 ,4.00566 
346 ,63.6428 ,1.08024 ,0.40824 ,4.00566 
347 ,63.8349 ,1.08205 ,0.39113 ,3.83777 
348 ,64.0109 ,1.08391 ,0.36033 ,3.53557 
349 ,64.1872 ,1.08573 ,0.36033 ,3.53557 
350 ,64.3792 ,1.08761 ,0.36375 ,3.56914 
351 ,64.5553 ,1.08939 ,0.32953 ,3.23336 
352 ,64.7634 ,1.09142 ,0.32953 ,3.23336 
353 ,64.9555 ,1.09325 ,0.31242 ,3.06547 
354 ,65.1314 ,1.09513 ,0.30215 ,2.96473 
355 ,65.3077 ,1.09690 ,0.30215 ,2.96473 
356 ,65.4998 ,1.09879 ,0.27820 ,2.72969 
357 ,65.6756 ,1.10054 ,0.27478 ,2.69611 
358 ,65.8518 ,1.10239 ,0.25767 ,2.52822 
359 ,66.0279 ,1.10411 ,0.23713 ,2.32675 
360 ,66.2039 ,1.10583 ,0.24055 ,2.36032 
361 ,66.3799 ,1.10757 ,0.23029 ,2.25959 
362 ,66.5562 ,1.10938 ,0.22344 ,2.19243 
363 ,66.7321 ,1.11115 ,0.18922 ,1.85665 
364 ,66.8923 ,1.11284 ,0.19949 ,1.95738 
365 ,67.0684 ,1.11449 ,0.19264 ,1.89023 
366 ,67.2444 ,1.11628 ,0.18238 ,1.78949 
367 ,67.4205 ,1.11799 ,0.17553 ,1.72234 
368 ,67.6286 ,1.12002 ,0.16869 ,1.65518 
369 ,67.8045 ,1.12185 ,0.15158 ,1.48729 
370 ,67.9806 ,1.12357 ,0.14473 ,1.42013 
371 ,68.1568 ,1.12536 ,0.11736 ,1.15151 
372 ,68.3325 ,1.12713 ,0.11051 ,1.08435 
373 ,68.5090 ,1.12891 ,0.09682 ,0.95004 
374 ,68.6849 ,1.13068 ,0.09682 ,0.95004 
375 ,68.8768 ,1.13256 ,0.07287 ,0.71499 
376 ,69.0531 ,1.13431 ,0.06260 ,0.61425 
377 ,69.2293 ,1.13612 ,0.04891 ,0.47994 
378 ,69.4054 ,1.13791 ,0.04549 ,0.44636 
379 ,69.5813 ,1.13958 ,0.05576 ,0.54710 
380 ,69.7575 ,1.14135 ,0.04891 ,0.47994 
381 ,69.9336 ,1.14316 ,0.00785 ,0.07700 
382 ,70.1256 ,1.14509 ,0.01469 ,0.14416 
383 ,70.3178 ,1.14698 ,0.00443 ,0.04342 
384 ,70.4938 ,1.14874 ,-0.02295 ,-0.22520 
385 ,70.6857 ,1.15052 ,-0.02637 ,-0.25878 
386 ,70.8618 ,1.15239 ,-0.02637 ,-0.25878 
387 ,71.0379 ,1.15415 ,-0.03664 ,-0.35952 
388 ,71.2298 ,1.15609 ,-0.07086 ,-0.69530 
389 ,71.4221 ,1.15796 ,-0.05033 ,-0.49383 
390 ,71.5982 ,1.15975 ,-0.06744 ,-0.66172 
391 ,71.7741 ,1.16157 ,-0.08455 ,-0.82961 
392 ,71.9502 ,1.16329 ,-0.09824 ,-0.96393 
393 ,72.1262 ,1.16505 ,-0.09824 ,-0.96393 
394 ,72.3185 ,1.16698 ,-0.10166 ,-0.99751 
395 ,72.4946 ,1.16876 ,-0.12904 ,-1.26613 
396 ,72.6866 ,1.17067 ,-0.14273 ,-1.40045 
397 ,72.8947 ,1.17263 ,-0.14957 ,-1.46760 
398 ,73.0707 ,1.17444 ,-0.15642 ,-1.53476 
399 ,73.2468 ,1.17623 ,-0.16326 ,-1.60191 
400 ,73.4230 ,1.17800 ,-0.15984 ,-1.56834 
401 ,73.6307 ,1.18007 ,-0.18722 ,-1.83696 
402 ,73.8069 ,1.18187 ,-0.19064 ,-1.87054 
403 ,73.9828 ,1.18362 ,-0.19406 ,-1.90412 
404 ,74.1589 ,1.18530 ,-0.19406 ,-1.90412 
405 ,74.3349 ,1.18712 ,-0.21802 ,-2.13917 
406 ,74.4950 ,1.18886 ,-0.23855 ,-2.34064 
407 ,74.6711 ,1.19049 ,-0.25566 ,-2.50853 
408 ,74.8471 ,1.19231 ,-0.24539 ,-2.40779 
409 ,75.0232 ,1.19400 ,-0.24539 ,-2.40779 
410 ,75.1993 ,1.19579 ,-0.25566 ,-2.50853 
411 ,75.3754 ,1.19750 ,-0.26935 ,-2.64284 
412 ,75.5354 ,1.19925 ,-0.27961 ,-2.74358 
413 ,75.7116 ,1.20089 ,-0.29330 ,-2.87789 
414 ,75.8876 ,1.20267 ,-0.30699 ,-3.01220 
415 ,76.0476 ,1.20435 ,-0.30015 ,-2.94505 
416 ,76.2237 ,1.20600 ,-0.31041 ,-3.04578 
417 ,76.3998 ,1.20776 ,-0.32410 ,-3.18010 
418 ,76.5759 ,1.20951 ,-0.32068 ,-3.14652 
419 ,76.7360 ,1.21124 ,-0.34121 ,-3.34799 
420 ,76.9122 ,1.21291 ,-0.35832 ,-3.51588 
421 ,77.0881 ,1.21464 ,-0.37201 ,-3.65019 
422 ,77.2641 ,1.21640 ,-0.37544 ,-3.68377 
423 ,77.4402 ,1.21815 ,-0.37544 ,-3.68377 
424 ,77.6164 ,1.21992 ,-0.38912 ,-3.81808 
425 ,77.7925 ,1.22171 ,-0.38912 ,-3.81808 
426 ,77.9685 ,1.22341 ,-0.42677 ,-4.18744 
427 ,78.1446 ,1.22518 ,-0.41992 ,-4.12029 
428 ,78.3207 ,1.22696 ,-0.41650 ,-4.08671 
429 ,78.5132 ,1.22894 ,-0.43361 ,-4.25460 
430 ,78.7049 ,1.23083 ,-0.44046 ,-4.32176 
431 ,78.8808 ,1.23257 ,-0.45072 ,-4.42249 
432 ,79.0572 ,1.23430 ,-0.43703 ,-4.28818 
433 ,79.2654 ,1.23631 ,-0.46099 ,-4.52323 
434 ,79.4574 ,1.23834 ,-0.48837 ,-4.79185 
435 ,79.6496 ,1.24026 ,-0.49863 ,-4.89259 
436 ,79.8256 ,1.24204 ,-0.51574 ,-5.06048 
437 ,80.0013 ,1.24379 ,-0.50206 ,-4.92617 
438 ,80.1778 ,1.24555 ,-0.51232 ,-5.02690 
439 ,80.3860 ,1.24755 ,-0.51574 ,-5.06048 
440 ,80.5618 ,1.24943 ,-0.52943 ,-5.19479 
441 ,80.7539 ,1.25121 ,-0.54997 ,-5.39626 
442 ,80.9298 ,1.25303 ,-0.56708 ,-5.56415 
443 ,81.0896 ,1.25477 ,-0.56023 ,-5.49700 
444 ,81.2663 ,1.25641 ,-0.57050 ,-5.59773 
445 ,81.4423 ,1.25822 ,-0.58077 ,-5.69847 
446 ,81.6343 ,1.26010 ,-0.59445 ,-5.83278 
447 ,81.8103 ,1.26184 ,-0.59788 ,-5.86636 
448 ,82.0185 ,1.26391 ,-0.60130 ,-5.89994 
449 ,82.1942 ,1.26567 ,-0.61156 ,-6.00067 
450 ,82.3544 ,1.26742 ,-0.62868 ,-6.16856 
451 ,82.5465 ,1.26915 ,-0.63552 ,-6.23572 
452 ,82.7228 ,1.27100 ,-0.63210 ,-6.20214 
453 ,82.9149 ,1.27291 ,-0.65605 ,-6.43719 
454 ,83.0908 ,1.27460 ,-0.66974 ,-6.57150 
455 ,83.2669 ,1.27640 ,-0.66632 ,-6.53793 
456 ,83.4591 ,1.27828 ,-0.66290 ,-6.50435 
457 ,83.6351 ,1.28004 ,-0.68685 ,-6.73940 
458 ,83.7952 ,1.28182 ,-0.70739 ,-6.94086 
459 ,83.9712 ,1.28342 ,-0.70396 ,-6.90729 
460 ,84.1473 ,1.28521 ,-0.70739 ,-6.94086 
461 ,84.3234 ,1.28699 ,-0.71081 ,-6.97444 
462 ,84.5315 ,1.28889 ,-0.74503 ,-7.31023 
463 ,84.7076 ,1.29084 ,-0.74161 ,-7.27665 
