Data stamp = , 05-04-2022 23:24:37 330

Calibration Values: 
Slope = , 26.54 , g/V 
Offset Voltage at no contact = , -0.501760 , V 

No , Time , Stage Position ,   Mass , Force 
   ,  (s) ,      (mm)      ,   (g)  , (mN)  

1 ,0.0000 ,0.44936 ,5.14452 ,50.47803 
2 ,0.2367 ,0.44947 ,5.15136 ,50.54519 
3 ,0.7172 ,0.45097 ,5.12741 ,50.31014 
4 ,0.9092 ,0.45318 ,5.13425 ,50.37729 
5 ,1.1014 ,0.45501 ,5.13768 ,50.41087 
6 ,1.2773 ,0.45689 ,5.14794 ,50.51161 
7 ,1.4695 ,0.45879 ,5.13425 ,50.37729 
8 ,1.6453 ,0.46066 ,5.14452 ,50.47803 
9 ,1.8216 ,0.46231 ,5.13768 ,50.41087 
10 ,2.0133 ,0.46420 ,5.11714 ,50.20940 
11 ,2.1898 ,0.46607 ,5.09661 ,50.00793 
12 ,2.3818 ,0.46795 ,5.11372 ,50.17583 
13 ,2.5578 ,0.46976 ,5.11372 ,50.17583 
14 ,2.7660 ,0.47177 ,5.09319 ,49.97436 
15 ,2.9582 ,0.47372 ,5.08634 ,49.90720 
16 ,3.1660 ,0.47567 ,5.07265 ,49.77289 
17 ,3.3582 ,0.47755 ,5.07608 ,49.80646 
18 ,3.5343 ,0.47943 ,5.04185 ,49.47068 
19 ,3.7263 ,0.48136 ,5.01790 ,49.23563 
20 ,3.9024 ,0.48311 ,5.02132 ,49.26921 
21 ,4.0945 ,0.48503 ,4.99394 ,49.00058 
22 ,4.2706 ,0.48682 ,4.98710 ,48.93343 
23 ,4.4466 ,0.48857 ,4.96315 ,48.69838 
24 ,4.6228 ,0.49041 ,4.95288 ,48.59764 
25 ,4.7987 ,0.49209 ,4.93919 ,48.46333 
26 ,4.9749 ,0.49386 ,4.92550 ,48.32902 
27 ,5.1671 ,0.49580 ,4.89812 ,48.06039 
28 ,5.3592 ,0.49764 ,4.88786 ,47.95966 
29 ,5.5351 ,0.49948 ,4.87759 ,47.85892 
30 ,5.7113 ,0.50125 ,4.85364 ,47.62387 
31 ,5.9353 ,0.50334 ,4.83310 ,47.42240 
32 ,6.1435 ,0.50547 ,4.79888 ,47.08662 
33 ,6.3515 ,0.50762 ,4.80915 ,47.18736 
34 ,6.5435 ,0.50953 ,4.77835 ,46.88515 
35 ,6.7196 ,0.51131 ,4.78519 ,46.95231 
36 ,6.8954 ,0.51305 ,4.75782 ,46.68368 
37 ,7.0719 ,0.51482 ,4.75097 ,46.61653 
38 ,7.2479 ,0.51660 ,4.72017 ,46.31432 
39 ,7.4238 ,0.51834 ,4.69622 ,46.07927 
40 ,7.6160 ,0.52022 ,4.69964 ,46.11285 
41 ,7.8240 ,0.52221 ,4.67226 ,45.84422 
42 ,8.0160 ,0.52428 ,4.66542 ,45.77707 
43 ,8.2081 ,0.52610 ,4.64831 ,45.60918 
44 ,8.3840 ,0.52791 ,4.60724 ,45.20624 
45 ,8.5604 ,0.52972 ,4.61751 ,45.30697 
46 ,8.7685 ,0.53176 ,4.59355 ,45.07192 
47 ,8.9604 ,0.53360 ,4.57644 ,44.90403 
48 ,9.1367 ,0.53543 ,4.57986 ,44.93761 
49 ,9.3448 ,0.53746 ,4.53880 ,44.53467 
50 ,9.5208 ,0.53931 ,4.52853 ,44.43394 
51 ,9.6969 ,0.54109 ,4.51484 ,44.29962 
52 ,9.8889 ,0.54294 ,4.48746 ,44.03100 
53 ,10.0648 ,0.54476 ,4.46693 ,43.82953 
54 ,10.2411 ,0.54651 ,4.46351 ,43.79595 
55 ,10.4171 ,0.54826 ,4.46351 ,43.79595 
56 ,10.6091 ,0.55015 ,4.41902 ,43.35943 
57 ,10.8013 ,0.55206 ,4.40191 ,43.19154 
58 ,10.9774 ,0.55391 ,4.40875 ,43.25870 
59 ,11.1694 ,0.55577 ,4.38138 ,42.99007 
60 ,11.3775 ,0.55781 ,4.37453 ,42.92291 
61 ,11.5535 ,0.55966 ,4.36084 ,42.78860 
62 ,11.7295 ,0.56136 ,4.33347 ,42.51997 
63 ,11.9217 ,0.56330 ,4.31978 ,42.38566 
64 ,12.0978 ,0.56511 ,4.30951 ,42.28492 
65 ,12.2739 ,0.56681 ,4.30609 ,42.25135 
66 ,12.4658 ,0.56867 ,4.27187 ,41.91556 
67 ,12.6577 ,0.57071 ,4.26502 ,41.84841 
68 ,12.8340 ,0.57246 ,4.24791 ,41.68051 
69 ,13.0100 ,0.57420 ,4.22053 ,41.41189 
70 ,13.2021 ,0.57607 ,4.20342 ,41.24400 
71 ,13.3783 ,0.57789 ,4.20685 ,41.27758 
72 ,13.5703 ,0.57979 ,4.18974 ,41.10968 
73 ,13.7302 ,0.58152 ,4.14867 ,40.70674 
74 ,13.9065 ,0.58314 ,4.14183 ,40.63959 
75 ,14.0827 ,0.58495 ,4.12471 ,40.47170 
76 ,14.2743 ,0.58680 ,4.12471 ,40.47170 
77 ,14.4507 ,0.58859 ,4.10076 ,40.23665 
78 ,14.6428 ,0.59044 ,4.08023 ,40.03518 
79 ,14.8185 ,0.59228 ,4.07680 ,40.00160 
80 ,14.9950 ,0.59403 ,4.06312 ,39.86729 
81 ,15.1710 ,0.59582 ,4.04258 ,39.66582 
82 ,15.3632 ,0.59770 ,4.00494 ,39.29646 
83 ,15.5550 ,0.59957 ,4.01520 ,39.39719 
84 ,15.7473 ,0.60161 ,3.98098 ,39.06141 
85 ,15.9232 ,0.60330 ,3.95703 ,38.82636 
86 ,16.0994 ,0.60505 ,3.95361 ,38.79278 
87 ,16.2753 ,0.60680 ,3.95018 ,38.75920 
88 ,16.4514 ,0.60859 ,3.92281 ,38.49058 
89 ,16.6276 ,0.61035 ,3.91938 ,38.45700 
90 ,16.8198 ,0.61225 ,3.90227 ,38.28911 
91 ,17.0117 ,0.61417 ,3.88516 ,38.12122 
92 ,17.1877 ,0.61592 ,3.84752 ,37.75185 
93 ,17.3639 ,0.61768 ,3.84067 ,37.68470 
94 ,17.5402 ,0.61948 ,3.84067 ,37.68470 
95 ,17.7161 ,0.62139 ,3.83383 ,37.61754 
96 ,17.9082 ,0.62313 ,3.78934 ,37.18102 
97 ,18.0841 ,0.62487 ,3.76881 ,36.97955 
98 ,18.2761 ,0.62681 ,3.78934 ,37.18102 
99 ,18.4844 ,0.62886 ,3.74485 ,36.74450 
100 ,18.6604 ,0.63068 ,3.73117 ,36.61019 
101 ,18.8366 ,0.63245 ,3.72432 ,36.54303 
102 ,19.0284 ,0.63430 ,3.69010 ,36.20725 
103 ,19.2207 ,0.63618 ,3.69694 ,36.27441 
104 ,19.4123 ,0.63818 ,3.68325 ,36.14010 
105 ,19.5888 ,0.63993 ,3.65246 ,35.83789 
106 ,19.7646 ,0.64169 ,3.62166 ,35.53569 
107 ,19.9409 ,0.64347 ,3.62508 ,35.56926 
108 ,20.1167 ,0.64519 ,3.61823 ,35.50211 
109 ,20.2932 ,0.64699 ,3.60112 ,35.33422 
110 ,20.4852 ,0.64892 ,3.57375 ,35.06559 
111 ,20.6613 ,0.65071 ,3.56006 ,34.93128 
112 ,20.8533 ,0.65258 ,3.56006 ,34.93128 
113 ,21.0295 ,0.65433 ,3.52241 ,34.56192 
114 ,21.2215 ,0.65621 ,3.51557 ,34.49476 
115 ,21.3975 ,0.65800 ,3.51557 ,34.49476 
116 ,21.6056 ,0.65997 ,3.48477 ,34.19255 
117 ,21.7977 ,0.66205 ,3.48135 ,34.15898 
118 ,22.0058 ,0.66396 ,3.45055 ,33.85677 
119 ,22.1979 ,0.66599 ,3.44370 ,33.78961 
120 ,22.4060 ,0.66804 ,3.39921 ,33.35310 
121 ,22.5817 ,0.66985 ,3.40264 ,33.38667 
122 ,22.7418 ,0.67160 ,3.39579 ,33.31952 
123 ,22.9181 ,0.67326 ,3.37868 ,33.15163 
124 ,23.1102 ,0.67520 ,3.36842 ,33.05089 
125 ,23.2860 ,0.67687 ,3.33762 ,32.74869 
126 ,23.4624 ,0.67868 ,3.33077 ,32.68153 
127 ,23.6381 ,0.68040 ,3.31024 ,32.48006 
128 ,23.8465 ,0.68244 ,3.28286 ,32.21143 
129 ,24.0225 ,0.68425 ,3.26917 ,32.07712 
130 ,24.2144 ,0.68617 ,3.28286 ,32.21143 
131 ,24.3903 ,0.68791 ,3.25206 ,31.90923 
132 ,24.5669 ,0.68970 ,3.23153 ,31.70776 
133 ,24.7589 ,0.69157 ,3.22468 ,31.64060 
134 ,24.9351 ,0.69339 ,3.21100 ,31.50629 
135 ,25.1112 ,0.69517 ,3.20415 ,31.43913 
136 ,25.2871 ,0.69696 ,3.16993 ,31.10335 
137 ,25.4631 ,0.69868 ,3.14597 ,30.86830 
138 ,25.6393 ,0.70044 ,3.14940 ,30.90188 
139 ,25.8152 ,0.70215 ,3.14940 ,30.90188 
140 ,26.0071 ,0.70404 ,3.09464 ,30.36463 
141 ,26.1835 ,0.70589 ,3.07753 ,30.19674 
142 ,26.3756 ,0.70777 ,3.08780 ,30.29747 
143 ,26.5516 ,0.70967 ,3.05015 ,29.92811 
144 ,26.9519 ,0.71240 ,3.04673 ,29.89453 
145 ,27.1278 ,0.71537 ,3.00909 ,29.52517 
146 ,27.3039 ,0.71707 ,2.99540 ,29.39086 
147 ,27.5118 ,0.71909 ,2.98513 ,29.29012 
148 ,27.6882 ,0.72094 ,2.98513 ,29.29012 
149 ,27.8640 ,0.72264 ,2.95091 ,28.95434 
150 ,28.0402 ,0.72443 ,2.93722 ,28.82003 
151 ,28.2003 ,0.72613 ,2.94064 ,28.85360 
152 ,28.3763 ,0.72779 ,2.92353 ,28.68571 
153 ,28.5685 ,0.72971 ,2.89273 ,28.38351 
154 ,28.7606 ,0.73159 ,2.88931 ,28.34993 
155 ,28.9526 ,0.73356 ,2.88247 ,28.28277 
156 ,29.1286 ,0.73528 ,2.85509 ,28.01415 
157 ,29.3046 ,0.73707 ,2.83456 ,27.81268 
158 ,29.4969 ,0.73894 ,2.83798 ,27.84625 
159 ,29.6726 ,0.74086 ,2.81745 ,27.64479 
160 ,29.8488 ,0.74252 ,2.80718 ,27.54405 
161 ,30.0413 ,0.74442 ,2.77296 ,27.20827 
162 ,30.2170 ,0.74618 ,2.77980 ,27.27542 
163 ,30.4095 ,0.74812 ,2.74216 ,26.90606 
164 ,30.5851 ,0.74990 ,2.74216 ,26.90606 
165 ,30.7614 ,0.75175 ,2.74216 ,26.90606 
166 ,30.9214 ,0.75335 ,2.71136 ,26.60386 
167 ,31.0976 ,0.75496 ,2.71136 ,26.60386 
168 ,31.3216 ,0.75707 ,2.69083 ,26.40239 
169 ,31.4972 ,0.75899 ,2.67029 ,26.20092 
170 ,31.6733 ,0.76079 ,2.64634 ,25.96587 
171 ,31.8495 ,0.76251 ,2.63949 ,25.89871 
172 ,32.0579 ,0.76453 ,2.63607 ,25.86514 
173 ,32.2819 ,0.76669 ,2.60185 ,25.52935 
174 ,32.4581 ,0.76855 ,2.59501 ,25.46220 
175 ,32.6661 ,0.77064 ,2.56421 ,25.15999 
176 ,32.8579 ,0.77246 ,2.55394 ,25.05926 
177 ,33.0504 ,0.77441 ,2.54710 ,24.99210 
178 ,33.2425 ,0.77645 ,2.51972 ,24.72347 
179 ,33.4186 ,0.77822 ,2.51287 ,24.65632 
180 ,33.5946 ,0.77995 ,2.51287 ,24.65632 
181 ,33.7707 ,0.78173 ,2.49576 ,24.48842 
182 ,33.9465 ,0.78360 ,2.46154 ,24.15264 
183 ,34.1228 ,0.78521 ,2.45127 ,24.05191 
184 ,34.2989 ,0.78696 ,2.43074 ,23.85044 
185 ,34.4909 ,0.78890 ,2.42048 ,23.74970 
186 ,34.6672 ,0.79065 ,2.39994 ,23.54823 
187 ,34.8590 ,0.79249 ,2.41021 ,23.64897 
188 ,35.0350 ,0.79435 ,2.39994 ,23.54823 
189 ,35.2111 ,0.79610 ,2.38283 ,23.38034 
190 ,35.3873 ,0.79787 ,2.33492 ,22.91024 
191 ,35.5633 ,0.79963 ,2.32465 ,22.80951 
192 ,35.7715 ,0.80164 ,2.33150 ,22.87667 
193 ,35.9475 ,0.80351 ,2.30754 ,22.64162 
194 ,36.1235 ,0.80527 ,2.29728 ,22.54088 
195 ,36.3316 ,0.80728 ,2.28701 ,22.44015 
196 ,36.5077 ,0.80905 ,2.24937 ,22.07079 
197 ,36.6838 ,0.81079 ,2.24252 ,22.00363 
198 ,36.8598 ,0.81262 ,2.21857 ,21.76858 
199 ,37.0358 ,0.81432 ,2.23568 ,21.93647 
200 ,37.2117 ,0.81616 ,2.20488 ,21.63427 
201 ,37.3881 ,0.81791 ,2.19461 ,21.53353 
202 ,37.5961 ,0.81988 ,2.17408 ,21.33206 
203 ,37.7721 ,0.82173 ,2.17750 ,21.36564 
204 ,37.9481 ,0.82350 ,2.15355 ,21.13059 
205 ,38.1241 ,0.82525 ,2.13644 ,20.96270 
206 ,38.3163 ,0.82713 ,2.12959 ,20.89555 
207 ,38.5085 ,0.82907 ,2.09879 ,20.59334 
208 ,38.7004 ,0.83094 ,2.09879 ,20.59334 
209 ,38.9087 ,0.83296 ,2.07141 ,20.32472 
210 ,39.0846 ,0.83480 ,2.05430 ,20.15682 
211 ,39.2768 ,0.83674 ,2.05773 ,20.19040 
212 ,39.4688 ,0.83869 ,2.04746 ,20.08967 
213 ,39.6609 ,0.84059 ,2.00982 ,19.72031 
214 ,39.8369 ,0.84237 ,2.01666 ,19.78746 
215 ,40.0129 ,0.84409 ,1.99955 ,19.61957 
216 ,40.1889 ,0.84588 ,1.98928 ,19.51884 
217 ,40.3651 ,0.84760 ,1.95848 ,19.21663 
218 ,40.5572 ,0.84954 ,1.94479 ,19.08232 
219 ,40.7333 ,0.85131 ,1.94479 ,19.08232 
220 ,40.9095 ,0.85309 ,1.93111 ,18.94801 
221 ,41.0855 ,0.85484 ,1.92084 ,18.84727 
222 ,41.2616 ,0.85665 ,1.89004 ,18.54507 
223 ,41.4378 ,0.85838 ,1.88319 ,18.47791 
224 ,41.6457 ,0.86032 ,1.86608 ,18.31002 
225 ,41.8219 ,0.86214 ,1.85582 ,18.20928 
226 ,42.0458 ,0.86426 ,1.83871 ,18.04139 
227 ,42.2220 ,0.86617 ,1.81817 ,17.83992 
228 ,42.3818 ,0.86789 ,1.81817 ,17.83992 
229 ,42.5578 ,0.86959 ,1.79422 ,17.60487 
230 ,42.7502 ,0.87143 ,1.79764 ,17.63845 
231 ,42.9582 ,0.87343 ,1.77026 ,17.36983 
232 ,43.1345 ,0.87531 ,1.76000 ,17.26909 
233 ,43.3424 ,0.87738 ,1.73262 ,17.00046 
234 ,43.5025 ,0.87908 ,1.72920 ,16.96689 
235 ,43.6944 ,0.88084 ,1.72920 ,16.96689 
236 ,43.8707 ,0.88270 ,1.71551 ,16.83257 
237 ,44.0467 ,0.88444 ,1.68129 ,16.49679 
238 ,44.2388 ,0.88634 ,1.67786 ,16.46321 
239 ,44.4147 ,0.88807 ,1.68471 ,16.53037 
240 ,44.5910 ,0.88987 ,1.65733 ,16.26174 
241 ,44.7989 ,0.89189 ,1.63338 ,16.02669 
242 ,44.9751 ,0.89369 ,1.63338 ,16.02669 
243 ,45.1672 ,0.89561 ,1.60600 ,15.75807 
244 ,45.3433 ,0.89740 ,1.58547 ,15.55660 
245 ,45.5194 ,0.89917 ,1.58204 ,15.52302 
246 ,45.7114 ,0.90105 ,1.57178 ,15.42228 
247 ,45.9192 ,0.90307 ,1.54782 ,15.18724 
248 ,46.1115 ,0.90501 ,1.54782 ,15.18724 
249 ,46.2875 ,0.90679 ,1.53413 ,15.05292 
250 ,46.4638 ,0.90857 ,1.50333 ,14.75072 
251 ,46.6718 ,0.91065 ,1.49307 ,14.64998 
252 ,46.8478 ,0.91240 ,1.48965 ,14.61640 
253 ,47.0239 ,0.91415 ,1.47253 ,14.44851 
254 ,47.1998 ,0.91590 ,1.45200 ,14.24704 
255 ,47.3760 ,0.91768 ,1.45542 ,14.28062 
256 ,47.5519 ,0.91948 ,1.45542 ,14.28062 
257 ,47.7443 ,0.92134 ,1.41094 ,13.84410 
258 ,47.9042 ,0.92308 ,1.39725 ,13.70979 
259 ,48.0804 ,0.92479 ,1.38698 ,13.60906 
260 ,48.2721 ,0.92664 ,1.38698 ,13.60906 
261 ,48.4485 ,0.92845 ,1.37671 ,13.50832 
262 ,48.6244 ,0.93018 ,1.37329 ,13.47474 
263 ,48.8006 ,0.93203 ,1.34934 ,13.23969 
264 ,48.9928 ,0.93389 ,1.34934 ,13.23969 
265 ,49.1848 ,0.93575 ,1.31512 ,12.90391 
266 ,49.3768 ,0.93767 ,1.31854 ,12.93749 
267 ,49.5531 ,0.93947 ,1.29800 ,12.73602 
268 ,49.7451 ,0.94132 ,1.28089 ,12.56813 
269 ,49.9212 ,0.94317 ,1.26378 ,12.40024 
270 ,50.1133 ,0.94508 ,1.26378 ,12.40024 
271 ,50.3052 ,0.94693 ,1.25009 ,12.26592 
272 ,50.4974 ,0.94896 ,1.23298 ,12.09803 
273 ,50.6734 ,0.95063 ,1.21929 ,11.96372 
274 ,50.8492 ,0.95244 ,1.22272 ,11.99730 
275 ,51.0415 ,0.95431 ,1.18165 ,11.59436 
276 ,51.2177 ,0.95610 ,1.18165 ,11.59436 
277 ,51.3934 ,0.95786 ,1.17481 ,11.52720 
278 ,51.5699 ,0.95963 ,1.16796 ,11.46004 
279 ,51.7460 ,0.96145 ,1.15427 ,11.32573 
280 ,51.9217 ,0.96323 ,1.13032 ,11.09068 
281 ,52.1140 ,0.96497 ,1.10979 ,10.88921 
282 ,52.2901 ,0.96684 ,1.11663 ,10.95637 
283 ,52.4502 ,0.96855 ,1.10294 ,10.82206 
284 ,52.6262 ,0.97018 ,1.09267 ,10.72132 
285 ,52.8183 ,0.97210 ,1.05161 ,10.31838 
286 ,52.9941 ,0.97384 ,1.06187 ,10.41912 
287 ,53.1704 ,0.97563 ,1.05503 ,10.35196 
288 ,53.3623 ,0.97755 ,1.03108 ,10.11691 
289 ,53.5389 ,0.97932 ,1.00028 ,9.81471 
290 ,53.7147 ,0.98112 ,1.01054 ,9.91544 
291 ,53.9067 ,0.98293 ,1.00028 ,9.81471 
292 ,54.0828 ,0.98468 ,0.99001 ,9.71397 
293 ,54.2587 ,0.98649 ,0.95579 ,9.37819 
294 ,54.4350 ,0.98827 ,0.94210 ,9.24388 
295 ,54.6433 ,0.99031 ,0.94210 ,9.24388 
296 ,54.8349 ,0.99230 ,0.93525 ,9.17672 
297 ,55.0111 ,0.99402 ,0.93183 ,9.14314 
298 ,55.2032 ,0.99590 ,0.90788 ,8.90809 
299 ,55.3794 ,0.99773 ,0.90446 ,8.87451 
300 ,55.5715 ,0.99958 ,0.90446 ,8.87451 
301 ,55.7634 ,1.00166 ,0.85312 ,8.37084 
302 ,55.9399 ,1.00335 ,0.85654 ,8.40442 
303 ,56.1314 ,1.00526 ,0.85312 ,8.37084 
304 ,56.3238 ,1.00705 ,0.84286 ,8.27011 
305 ,56.5158 ,1.00901 ,0.82575 ,8.10221 
306 ,56.6919 ,1.01080 ,0.81548 ,8.00148 
307 ,56.8681 ,1.01261 ,0.81548 ,8.00148 
308 ,57.0443 ,1.01439 ,0.80179 ,7.86717 
309 ,57.2198 ,1.01618 ,0.77784 ,7.63212 
310 ,57.3961 ,1.01786 ,0.76415 ,7.49780 
311 ,57.5883 ,1.01976 ,0.76072 ,7.46423 
312 ,57.7805 ,1.02160 ,0.75388 ,7.39707 
313 ,57.9723 ,1.02360 ,0.74361 ,7.29633 
314 ,58.1486 ,1.02542 ,0.72992 ,7.16202 
315 ,58.3245 ,1.02720 ,0.69570 ,6.82624 
316 ,58.5007 ,1.02893 ,0.69228 ,6.79266 
317 ,58.6768 ,1.03065 ,0.66833 ,6.55761 
318 ,58.8689 ,1.03261 ,0.68201 ,6.69193 
319 ,59.0446 ,1.03434 ,0.67175 ,6.59119 
320 ,59.2210 ,1.03612 ,0.64779 ,6.35614 
321 ,59.3810 ,1.03785 ,0.62726 ,6.15467 
322 ,59.5731 ,1.03959 ,0.63753 ,6.25541 
323 ,59.7493 ,1.04144 ,0.63068 ,6.18825 
324 ,59.9251 ,1.04319 ,0.63068 ,6.18825 
325 ,60.1174 ,1.04510 ,0.58619 ,5.75173 
326 ,60.3252 ,1.04712 ,0.58277 ,5.71815 
327 ,60.5336 ,1.04915 ,0.56908 ,5.58384 
328 ,60.7255 ,1.05107 ,0.56224 ,5.51668 
329 ,60.9017 ,1.05291 ,0.54513 ,5.34879 
330 ,61.0776 ,1.05466 ,0.52802 ,5.18090 
331 ,61.2698 ,1.05658 ,0.52802 ,5.18090 
332 ,61.4614 ,1.05854 ,0.52117 ,5.11375 
333 ,61.6381 ,1.06028 ,0.49037 ,4.81154 
334 ,61.8301 ,1.06215 ,0.48353 ,4.74438 
335 ,62.0061 ,1.06396 ,0.48011 ,4.71081 
336 ,62.1822 ,1.06571 ,0.46642 ,4.57649 
337 ,62.3743 ,1.06765 ,0.44931 ,4.40860 
338 ,62.5503 ,1.06938 ,0.44931 ,4.40860 
339 ,62.7263 ,1.07116 ,0.43562 ,4.27429 
340 ,62.9185 ,1.07311 ,0.42193 ,4.13997 
341 ,63.0944 ,1.07483 ,0.40482 ,3.97208 
342 ,63.2706 ,1.07659 ,0.39455 ,3.87135 
343 ,63.4466 ,1.07831 ,0.40482 ,3.97208 
344 ,63.6228 ,1.08008 ,0.38086 ,3.73703 
345 ,63.8147 ,1.08202 ,0.36033 ,3.53557 
346 ,64.0069 ,1.08397 ,0.36033 ,3.53557 
347 ,64.1989 ,1.08582 ,0.32953 ,3.23336 
348 ,64.4069 ,1.08780 ,0.33638 ,3.30052 
349 ,64.5991 ,1.08989 ,0.33295 ,3.26694 
350 ,64.7913 ,1.09171 ,0.31242 ,3.06547 
351 ,64.9833 ,1.09369 ,0.30215 ,2.96473 
352 ,65.1594 ,1.09547 ,0.28847 ,2.83042 
353 ,65.3516 ,1.09732 ,0.27478 ,2.69611 
354 ,65.5436 ,1.09925 ,0.27135 ,2.66253 
355 ,65.7194 ,1.10105 ,0.25082 ,2.46106 
356 ,65.8954 ,1.10285 ,0.23713 ,2.32675 
357 ,66.0877 ,1.10465 ,0.24055 ,2.36032 
358 ,66.2638 ,1.10652 ,0.23713 ,2.32675 
359 ,66.4399 ,1.10828 ,0.21318 ,2.09170 
360 ,66.6156 ,1.11006 ,0.19264 ,1.89023 
361 ,66.7920 ,1.11175 ,0.18922 ,1.85665 
362 ,66.9681 ,1.11350 ,0.18922 ,1.85665 
363 ,67.1603 ,1.11547 ,0.17553 ,1.72234 
364 ,67.3362 ,1.11723 ,0.16869 ,1.65518 
365 ,67.5283 ,1.11916 ,0.14131 ,1.38655 
366 ,67.7044 ,1.12093 ,0.15842 ,1.55445 
367 ,67.8805 ,1.12267 ,0.13789 ,1.35298 
368 ,68.0726 ,1.12455 ,0.11051 ,1.08435 
369 ,68.2807 ,1.12655 ,0.11393 ,1.11793 
370 ,68.4727 ,1.12854 ,0.07971 ,0.78214 
371 ,68.6486 ,1.13036 ,0.06945 ,0.68141 
372 ,68.8566 ,1.13242 ,0.07287 ,0.71499 
373 ,69.0490 ,1.13436 ,0.05234 ,0.51352 
374 ,69.2570 ,1.13635 ,0.03522 ,0.34563 
375 ,69.4332 ,1.13819 ,0.02838 ,0.27847 
376 ,69.6250 ,1.14003 ,0.03865 ,0.37920 
377 ,69.8173 ,1.14201 ,0.01127 ,0.11058 
378 ,70.0092 ,1.14398 ,0.00785 ,0.07700 
379 ,70.1854 ,1.14571 ,-0.01269 ,-0.12447 
380 ,70.3776 ,1.14764 ,-0.02637 ,-0.25878 
381 ,70.6013 ,1.14973 ,-0.01953 ,-0.19163 
382 ,70.7774 ,1.15166 ,-0.04006 ,-0.39310 
383 ,70.9533 ,1.15341 ,-0.05033 ,-0.49383 
384 ,71.1293 ,1.15522 ,-0.06402 ,-0.62814 
385 ,71.3055 ,1.15691 ,-0.07428 ,-0.72888 
386 ,71.4817 ,1.15870 ,-0.06744 ,-0.66172 
387 ,71.7056 ,1.16084 ,-0.09140 ,-0.89677 
388 ,71.8819 ,1.16265 ,-0.09140 ,-0.89677 
389 ,72.0580 ,1.16449 ,-0.10166 ,-0.99751 
390 ,72.2501 ,1.16635 ,-0.12904 ,-1.26613 
391 ,72.4426 ,1.16830 ,-0.11193 ,-1.09824 
392 ,72.6180 ,1.17008 ,-0.16326 ,-1.60191 
393 ,72.7945 ,1.17180 ,-0.14957 ,-1.46760 
394 ,72.9706 ,1.17359 ,-0.17011 ,-1.66907 
395 ,73.1625 ,1.17546 ,-0.15984 ,-1.56834 
396 ,73.3546 ,1.17741 ,-0.18037 ,-1.76981 
397 ,73.5467 ,1.17929 ,-0.20090 ,-1.97128 
398 ,73.7227 ,1.18103 ,-0.18722 ,-1.83696 
399 ,73.8990 ,1.18285 ,-0.20433 ,-2.00485 
400 ,74.0750 ,1.18458 ,-0.21802 ,-2.13917 
401 ,74.2667 ,1.18649 ,-0.23170 ,-2.27348 
402 ,74.4592 ,1.18835 ,-0.24539 ,-2.40779 
403 ,74.6350 ,1.19023 ,-0.25566 ,-2.50853 
404 ,74.8274 ,1.19212 ,-0.27277 ,-2.67642 
405 ,75.0194 ,1.19404 ,-0.26935 ,-2.64284 
406 ,75.2112 ,1.19595 ,-0.29673 ,-2.91147 
407 ,75.3713 ,1.19764 ,-0.29673 ,-2.91147 
408 ,75.5477 ,1.19928 ,-0.30699 ,-3.01220 
409 ,75.7236 ,1.20107 ,-0.31384 ,-3.07936 
410 ,75.8998 ,1.20286 ,-0.30699 ,-3.01220 
411 ,76.0756 ,1.20460 ,-0.32410 ,-3.18010 
412 ,76.2519 ,1.20638 ,-0.34464 ,-3.38156 
413 ,76.4440 ,1.20826 ,-0.34121 ,-3.34799 
414 ,76.6197 ,1.21003 ,-0.34806 ,-3.41514 
415 ,76.8121 ,1.21188 ,-0.37544 ,-3.68377 
416 ,76.9881 ,1.21377 ,-0.37886 ,-3.71735 
417 ,77.1802 ,1.21563 ,-0.38912 ,-3.81808 
418 ,77.3563 ,1.21739 ,-0.40281 ,-3.95240 
419 ,77.5642 ,1.21942 ,-0.41308 ,-4.05313 
420 ,77.7564 ,1.22139 ,-0.41650 ,-4.08671 
421 ,77.9325 ,1.22320 ,-0.43019 ,-4.22102 
422 ,78.0926 ,1.22487 ,-0.45414 ,-4.45607 
423 ,78.2845 ,1.22668 ,-0.45072 ,-4.42249 
424 ,78.4608 ,1.22844 ,-0.45414 ,-4.45607 
425 ,78.6528 ,1.23031 ,-0.46783 ,-4.59038 
426 ,78.8448 ,1.23220 ,-0.47468 ,-4.65754 
427 ,79.0209 ,1.23404 ,-0.48494 ,-4.75828 
428 ,79.1809 ,1.23573 ,-0.49521 ,-4.85901 
429 ,79.3571 ,1.23738 ,-0.49863 ,-4.89259 
430 ,79.5331 ,1.23920 ,-0.50890 ,-4.99332 
431 ,79.7092 ,1.24088 ,-0.54654 ,-5.36268 
432 ,79.9013 ,1.24286 ,-0.52259 ,-5.12764 
433 ,80.0934 ,1.24469 ,-0.55339 ,-5.42984 
434 ,80.2693 ,1.24653 ,-0.55339 ,-5.42984 
435 ,80.4616 ,1.24838 ,-0.56023 ,-5.49700 
436 ,80.6375 ,1.25023 ,-0.56023 ,-5.49700 
437 ,80.8135 ,1.25204 ,-0.59103 ,-5.79920 
438 ,81.0057 ,1.25386 ,-0.59788 ,-5.86636 
439 ,81.2137 ,1.25590 ,-0.59788 ,-5.86636 
440 ,81.4058 ,1.25786 ,-0.61499 ,-6.03425 
441 ,81.5979 ,1.25981 ,-0.60472 ,-5.93352 
442 ,81.7740 ,1.26150 ,-0.63210 ,-6.20214 
443 ,81.9501 ,1.26332 ,-0.64921 ,-6.37003 
444 ,82.1261 ,1.26511 ,-0.65263 ,-6.40361 
445 ,82.3021 ,1.26683 ,-0.64236 ,-6.30288 
446 ,82.5100 ,1.26889 ,-0.66632 ,-6.53793 
447 ,82.7020 ,1.27076 ,-0.66290 ,-6.50435 
448 ,82.8782 ,1.27258 ,-0.67316 ,-6.60508 
449 ,83.0543 ,1.27436 ,-0.68343 ,-6.70582 
450 ,83.2468 ,1.27628 ,-0.71081 ,-6.97444 
451 ,83.4387 ,1.27810 ,-0.69712 ,-6.84013 
452 ,83.6148 ,1.27995 ,-0.71081 ,-6.97444 
453 ,83.8066 ,1.28194 ,-0.73818 ,-7.24307 
454 ,83.9989 ,1.28376 ,-0.72792 ,-7.14233 
455 ,84.1907 ,1.28565 ,-0.75187 ,-7.37738 
456 ,84.3671 ,1.28743 ,-0.76214 ,-7.47812 
457 ,84.5592 ,1.28932 ,-0.75530 ,-7.41096 
458 ,84.7512 ,1.29123 ,-0.76556 ,-7.51170 
459 ,84.9434 ,1.29319 ,-0.77925 ,-7.64601 
460 ,85.1194 ,1.29498 ,-0.78267 ,-7.67959 
461 ,85.2953 ,1.29674 ,-0.78267 ,-7.67959 
462 ,85.4716 ,1.29854 ,-0.79636 ,-7.81390 
463 ,85.6635 ,1.30043 ,-0.82374 ,-8.08253 
