Data stamp = , 06-04-2022 00:41:42 520

Calibration Values: 
Slope = , 26.54 , g/V 
Offset Voltage at no contact = , -0.501760 , V 

No , Time , Stage Position ,   Mass , Force 
   ,  (s) ,      (mm)      ,   (g)  , (mN)  

1 ,0.0000 ,0.44934 ,5.20954 ,51.11602 
2 ,0.3042 ,0.44954 ,5.19585 ,50.98170 
3 ,0.7843 ,0.45136 ,5.19243 ,50.94813 
4 ,0.9604 ,0.45375 ,5.19585 ,50.98170 
5 ,1.1685 ,0.45575 ,5.19927 ,51.01528 
6 ,1.3447 ,0.45753 ,5.19585 ,50.98170 
7 ,1.5366 ,0.45935 ,5.20954 ,51.11602 
8 ,1.7127 ,0.46123 ,5.16848 ,50.71308 
9 ,1.9050 ,0.46317 ,5.17874 ,50.81381 
10 ,2.0967 ,0.46500 ,5.15821 ,50.61234 
11 ,2.2732 ,0.46686 ,5.15821 ,50.61234 
12 ,2.4651 ,0.46869 ,5.16505 ,50.67950 
13 ,2.6248 ,0.47044 ,5.14794 ,50.51161 
14 ,2.8014 ,0.47213 ,5.13425 ,50.37729 
15 ,2.9935 ,0.47404 ,5.12056 ,50.24298 
16 ,3.1695 ,0.47585 ,5.08977 ,49.94078 
17 ,3.3611 ,0.47764 ,5.09661 ,50.00793 
18 ,3.5210 ,0.47942 ,5.06923 ,49.73931 
19 ,3.6972 ,0.48105 ,5.06239 ,49.67215 
20 ,3.8736 ,0.48286 ,5.03843 ,49.43710 
21 ,4.0497 ,0.48459 ,5.01790 ,49.23563 
22 ,4.2258 ,0.48636 ,5.00421 ,49.10132 
23 ,4.4018 ,0.48812 ,5.00763 ,49.13490 
24 ,4.5779 ,0.48986 ,4.98368 ,48.89985 
25 ,4.7540 ,0.49162 ,4.96657 ,48.73196 
26 ,4.9301 ,0.49338 ,4.92892 ,48.36260 
27 ,5.1221 ,0.49529 ,4.92892 ,48.36260 
28 ,5.2983 ,0.49706 ,4.90839 ,48.16113 
29 ,5.4744 ,0.49886 ,4.88444 ,47.92608 
30 ,5.6505 ,0.50058 ,4.86048 ,47.69103 
31 ,5.8262 ,0.50236 ,4.85021 ,47.59030 
32 ,6.0026 ,0.50412 ,4.83995 ,47.48956 
33 ,6.2107 ,0.50614 ,4.82626 ,47.35525 
34 ,6.4347 ,0.50831 ,4.80915 ,47.18736 
35 ,6.6108 ,0.51022 ,4.77835 ,46.88515 
36 ,6.7865 ,0.51189 ,4.76466 ,46.75084 
37 ,6.9630 ,0.51369 ,4.75439 ,46.65010 
38 ,7.1390 ,0.51542 ,4.74070 ,46.51579 
39 ,7.3151 ,0.51727 ,4.72359 ,46.34790 
40 ,7.4910 ,0.51904 ,4.69964 ,46.11285 
41 ,7.6992 ,0.52099 ,4.68253 ,45.94496 
42 ,7.8910 ,0.52307 ,4.66542 ,45.77707 
43 ,8.0673 ,0.52472 ,4.64146 ,45.54202 
44 ,8.2433 ,0.52653 ,4.62777 ,45.40771 
45 ,8.4196 ,0.52828 ,4.63804 ,45.50844 
46 ,8.6276 ,0.53027 ,4.59697 ,45.10550 
47 ,8.8357 ,0.53240 ,4.60040 ,45.13908 
48 ,9.0116 ,0.53422 ,4.56960 ,44.83688 
49 ,9.2039 ,0.53612 ,4.54564 ,44.60183 
50 ,9.3959 ,0.53804 ,4.54906 ,44.63541 
51 ,9.5720 ,0.53976 ,4.52169 ,44.36678 
52 ,9.7797 ,0.54183 ,4.49773 ,44.13173 
53 ,9.9563 ,0.54358 ,4.48062 ,43.96384 
54 ,10.1319 ,0.54537 ,4.48062 ,43.96384 
55 ,10.3081 ,0.54711 ,4.44640 ,43.62806 
56 ,10.4845 ,0.54892 ,4.43613 ,43.52732 
57 ,10.6765 ,0.55080 ,4.43271 ,43.49374 
58 ,10.8685 ,0.55266 ,4.41902 ,43.35943 
59 ,11.0445 ,0.55461 ,4.39849 ,43.15796 
60 ,11.2366 ,0.55642 ,4.37453 ,42.92291 
61 ,11.4287 ,0.55830 ,4.35400 ,42.72144 
62 ,11.6048 ,0.56010 ,4.32662 ,42.45282 
63 ,11.7811 ,0.56192 ,4.32320 ,42.41924 
64 ,11.9569 ,0.56362 ,4.31293 ,42.31850 
65 ,12.1327 ,0.56544 ,4.30267 ,42.21777 
66 ,12.2930 ,0.56712 ,4.28213 ,42.01630 
67 ,12.4850 ,0.56885 ,4.25133 ,41.71409 
68 ,12.6612 ,0.57071 ,4.23765 ,41.57978 
69 ,12.8371 ,0.57243 ,4.23422 ,41.54620 
70 ,13.0134 ,0.57420 ,4.22738 ,41.47905 
71 ,13.1894 ,0.57598 ,4.21711 ,41.37831 
72 ,13.3655 ,0.57769 ,4.18289 ,41.04253 
73 ,13.5897 ,0.57980 ,4.15209 ,40.74032 
74 ,13.7657 ,0.58173 ,4.15894 ,40.80748 
75 ,13.9576 ,0.58365 ,4.13498 ,40.57243 
76 ,14.1337 ,0.58544 ,4.10760 ,40.30380 
77 ,14.3096 ,0.58712 ,4.11445 ,40.37096 
78 ,14.4861 ,0.58890 ,4.09391 ,40.16949 
79 ,14.6941 ,0.59094 ,4.08365 ,40.06876 
80 ,14.8862 ,0.59292 ,4.04943 ,39.73297 
81 ,15.0622 ,0.59467 ,4.02547 ,39.49793 
82 ,15.2383 ,0.59639 ,4.02547 ,39.49793 
83 ,15.4144 ,0.59821 ,4.01863 ,39.43077 
84 ,15.5902 ,0.59996 ,4.00836 ,39.33003 
85 ,15.7824 ,0.60184 ,3.97072 ,38.96067 
86 ,15.9585 ,0.60357 ,3.94334 ,38.69205 
87 ,16.1344 ,0.60537 ,3.96387 ,38.89352 
88 ,16.3267 ,0.60729 ,3.93307 ,38.59131 
89 ,16.5028 ,0.60907 ,3.90912 ,38.35626 
90 ,16.6789 ,0.61083 ,3.89543 ,38.22195 
91 ,16.8711 ,0.61277 ,3.90570 ,38.32268 
92 ,17.0470 ,0.61452 ,3.87490 ,38.02048 
93 ,17.2232 ,0.61627 ,3.84752 ,37.75185 
94 ,17.4148 ,0.61819 ,3.83725 ,37.65112 
95 ,17.5909 ,0.61996 ,3.83041 ,37.58396 
96 ,17.7670 ,0.62171 ,3.80645 ,37.34891 
97 ,17.9435 ,0.62344 ,3.79619 ,37.24818 
98 ,18.1353 ,0.62542 ,3.76881 ,36.97955 
99 ,18.3274 ,0.62735 ,3.77565 ,37.04671 
100 ,18.5195 ,0.62926 ,3.73459 ,36.64377 
101 ,18.6954 ,0.63103 ,3.74485 ,36.74450 
102 ,18.8718 ,0.63278 ,3.71405 ,36.44230 
103 ,19.0797 ,0.63474 ,3.70379 ,36.34157 
104 ,19.2720 ,0.63675 ,3.69352 ,36.24083 
105 ,19.4638 ,0.63866 ,3.65246 ,35.83789 
106 ,19.6560 ,0.64058 ,3.64219 ,35.73716 
107 ,19.8321 ,0.64236 ,3.63192 ,35.63642 
108 ,20.0243 ,0.64428 ,3.61823 ,35.50211 
109 ,20.2322 ,0.64621 ,3.58743 ,35.19990 
110 ,20.4245 ,0.64826 ,3.58059 ,35.13275 
111 ,20.6004 ,0.65008 ,3.56348 ,34.96485 
112 ,20.7927 ,0.65196 ,3.54295 ,34.76338 
113 ,20.9684 ,0.65376 ,3.55663 ,34.89770 
114 ,21.1607 ,0.65559 ,3.52584 ,34.59549 
115 ,21.3527 ,0.65752 ,3.52584 ,34.59549 
116 ,21.5448 ,0.65944 ,3.49846 ,34.32687 
117 ,21.7365 ,0.66123 ,3.48477 ,34.19255 
118 ,21.9288 ,0.66330 ,3.46766 ,34.02466 
119 ,22.1207 ,0.66527 ,3.45397 ,33.89035 
120 ,22.2970 ,0.66695 ,3.41975 ,33.55457 
121 ,22.4730 ,0.66878 ,3.40948 ,33.45383 
122 ,22.6492 ,0.67049 ,3.41633 ,33.52099 
123 ,22.8248 ,0.67227 ,3.39921 ,33.35310 
124 ,23.0012 ,0.67400 ,3.35815 ,32.95016 
125 ,23.2095 ,0.67604 ,3.36157 ,32.98374 
126 ,23.3860 ,0.67788 ,3.35130 ,32.88300 
127 ,23.5773 ,0.67983 ,3.31708 ,32.54722 
128 ,23.7697 ,0.68176 ,3.32051 ,32.58080 
129 ,23.9618 ,0.68359 ,3.29313 ,32.31217 
130 ,24.1538 ,0.68553 ,3.27602 ,32.14428 
131 ,24.3298 ,0.68733 ,3.26575 ,32.04354 
132 ,24.5059 ,0.68909 ,3.25206 ,31.90923 
133 ,24.6822 ,0.69087 ,3.24180 ,31.80849 
134 ,24.8579 ,0.69263 ,3.21100 ,31.50629 
135 ,25.0341 ,0.69435 ,3.19388 ,31.33840 
136 ,25.2102 ,0.69606 ,3.19388 ,31.33840 
137 ,25.3869 ,0.69788 ,3.18362 ,31.23766 
138 ,25.5623 ,0.69966 ,3.18020 ,31.20409 
139 ,25.7385 ,0.70138 ,3.14940 ,30.90188 
140 ,25.9145 ,0.70314 ,3.12202 ,30.63325 
141 ,26.0906 ,0.70490 ,3.10833 ,30.49894 
142 ,26.2986 ,0.70691 ,3.09122 ,30.33105 
143 ,26.4907 ,0.70878 ,3.07411 ,30.16316 
144 ,26.6668 ,0.71065 ,3.07753 ,30.19674 
145 ,26.8590 ,0.71261 ,3.05015 ,29.92811 
146 ,27.0507 ,0.71451 ,3.03989 ,29.82737 
147 ,27.2111 ,0.71624 ,3.03304 ,29.76022 
148 ,27.3876 ,0.71785 ,3.02278 ,29.65948 
149 ,27.5952 ,0.71983 ,2.97829 ,29.22297 
150 ,27.7713 ,0.72169 ,2.98171 ,29.25654 
151 ,27.9472 ,0.72343 ,2.96460 ,29.08865 
152 ,28.1234 ,0.72521 ,2.95776 ,29.02150 
153 ,28.2994 ,0.72696 ,2.94064 ,28.85360 
154 ,28.4757 ,0.72876 ,2.90300 ,28.48424 
155 ,28.6517 ,0.73050 ,2.89616 ,28.41709 
156 ,28.8277 ,0.73225 ,2.89616 ,28.41709 
157 ,29.0358 ,0.73424 ,2.86878 ,28.14846 
158 ,29.1960 ,0.73607 ,2.85509 ,28.01415 
159 ,29.3720 ,0.73776 ,2.84140 ,27.87983 
160 ,29.5641 ,0.73959 ,2.84482 ,27.91341 
161 ,29.7402 ,0.74140 ,2.83114 ,27.77910 
162 ,29.9643 ,0.74348 ,2.79349 ,27.40974 
163 ,30.1563 ,0.74545 ,2.77638 ,27.24185 
164 ,30.3645 ,0.74761 ,2.77638 ,27.24185 
165 ,30.5725 ,0.74968 ,2.74900 ,26.97322 
166 ,30.7484 ,0.75153 ,2.72847 ,26.77175 
167 ,30.9406 ,0.75340 ,2.72163 ,26.70459 
168 ,31.1326 ,0.75528 ,2.70452 ,26.53670 
169 ,31.2928 ,0.75704 ,2.68740 ,26.36881 
170 ,31.4688 ,0.75866 ,2.69083 ,26.40239 
171 ,31.6449 ,0.76041 ,2.67029 ,26.20092 
172 ,31.8209 ,0.76221 ,2.66345 ,26.13376 
173 ,31.9967 ,0.76396 ,2.64292 ,25.93229 
174 ,32.1731 ,0.76573 ,2.62923 ,25.79798 
175 ,32.3651 ,0.76755 ,2.61896 ,25.69724 
176 ,32.5411 ,0.76936 ,2.60527 ,25.56293 
177 ,32.7333 ,0.77132 ,2.56078 ,25.12641 
178 ,32.9095 ,0.77312 ,2.56078 ,25.12641 
179 ,33.1016 ,0.77500 ,2.56421 ,25.15999 
180 ,33.2777 ,0.77679 ,2.53683 ,24.89136 
181 ,33.4537 ,0.77863 ,2.50945 ,24.62274 
182 ,33.6297 ,0.78026 ,2.50603 ,24.58916 
183 ,33.8057 ,0.78202 ,2.49576 ,24.48842 
184 ,33.9821 ,0.78380 ,2.48550 ,24.38769 
185 ,34.1902 ,0.78571 ,2.48207 ,24.35411 
186 ,34.3820 ,0.78781 ,2.46154 ,24.15264 
187 ,34.5582 ,0.78959 ,2.44101 ,23.95117 
188 ,34.7501 ,0.79142 ,2.41021 ,23.64897 
189 ,34.9261 ,0.79320 ,2.39994 ,23.54823 
190 ,35.1024 ,0.79502 ,2.39652 ,23.51465 
191 ,35.2783 ,0.79676 ,2.38283 ,23.38034 
192 ,35.4545 ,0.79854 ,2.36914 ,23.24603 
193 ,35.6466 ,0.80040 ,2.35545 ,23.11171 
194 ,35.8386 ,0.80241 ,2.34177 ,22.97740 
195 ,36.0307 ,0.80426 ,2.30754 ,22.64162 
196 ,36.2067 ,0.80600 ,2.30754 ,22.64162 
197 ,36.3834 ,0.80782 ,2.29385 ,22.50731 
198 ,36.5586 ,0.80958 ,2.28359 ,22.40657 
199 ,36.7349 ,0.81135 ,2.26990 ,22.27226 
200 ,36.9432 ,0.81330 ,2.26306 ,22.20510 
201 ,37.1513 ,0.81533 ,2.23226 ,21.90290 
202 ,37.3433 ,0.81737 ,2.21515 ,21.73500 
203 ,37.5352 ,0.81923 ,2.19803 ,21.56711 
204 ,37.7114 ,0.82107 ,2.18435 ,21.43280 
205 ,37.9195 ,0.82315 ,2.16039 ,21.19775 
206 ,38.0957 ,0.82493 ,2.16039 ,21.19775 
207 ,38.2874 ,0.82684 ,2.12275 ,20.82839 
208 ,38.4638 ,0.82859 ,2.12617 ,20.86197 
209 ,38.6399 ,0.83040 ,2.12275 ,20.82839 
210 ,38.8319 ,0.83219 ,2.10221 ,20.62692 
211 ,39.0239 ,0.83423 ,2.07826 ,20.39187 
212 ,39.2000 ,0.83592 ,2.07484 ,20.35829 
213 ,39.3759 ,0.83772 ,2.06799 ,20.29114 
214 ,39.5681 ,0.83960 ,2.02350 ,19.85462 
215 ,39.7757 ,0.84164 ,2.02693 ,19.88820 
216 ,39.9525 ,0.84344 ,2.00982 ,19.72031 
217 ,40.1283 ,0.84521 ,1.99955 ,19.61957 
218 ,40.3044 ,0.84703 ,1.97902 ,19.41810 
219 ,40.4803 ,0.84888 ,1.98586 ,19.48526 
220 ,40.6563 ,0.85056 ,1.96875 ,19.31737 
221 ,40.8322 ,0.85228 ,1.95164 ,19.14948 
222 ,41.0082 ,0.85404 ,1.93111 ,18.94801 
223 ,41.1844 ,0.85577 ,1.90373 ,18.67938 
224 ,41.3767 ,0.85764 ,1.91399 ,18.78011 
225 ,41.5850 ,0.85974 ,1.89346 ,18.57864 
226 ,41.7771 ,0.86171 ,1.87977 ,18.44433 
227 ,41.9529 ,0.86347 ,1.85924 ,18.24286 
228 ,42.1290 ,0.86522 ,1.84213 ,18.07497 
229 ,42.3213 ,0.86710 ,1.83528 ,18.00781 
230 ,42.5134 ,0.86910 ,1.82844 ,17.94066 
231 ,42.7054 ,0.87093 ,1.79422 ,17.60487 
232 ,42.8654 ,0.87270 ,1.78053 ,17.47056 
233 ,43.0574 ,0.87445 ,1.79422 ,17.60487 
234 ,43.2496 ,0.87644 ,1.76342 ,17.30267 
235 ,43.4257 ,0.87822 ,1.73946 ,17.06762 
236 ,43.6017 ,0.87996 ,1.73604 ,17.03404 
237 ,43.7776 ,0.88175 ,1.72578 ,16.93331 
238 ,43.9699 ,0.88367 ,1.70524 ,16.73184 
239 ,44.1460 ,0.88538 ,1.68471 ,16.53037 
240 ,44.3220 ,0.88727 ,1.68813 ,16.56395 
241 ,44.4981 ,0.88895 ,1.67786 ,16.46321 
242 ,44.6742 ,0.89071 ,1.66075 ,16.29532 
243 ,44.8828 ,0.89271 ,1.64707 ,16.16101 
244 ,45.0739 ,0.89466 ,1.63338 ,16.02669 
245 ,45.2504 ,0.89648 ,1.61969 ,15.89238 
246 ,45.4265 ,0.89819 ,1.59231 ,15.62375 
247 ,45.6025 ,0.89998 ,1.58889 ,15.59018 
248 ,45.7781 ,0.90166 ,1.57862 ,15.48944 
249 ,45.9707 ,0.90360 ,1.55467 ,15.25439 
250 ,46.1786 ,0.90567 ,1.55467 ,15.25439 
251 ,46.3709 ,0.90752 ,1.53413 ,15.05292 
252 ,46.5789 ,0.90969 ,1.52387 ,14.95219 
253 ,46.7550 ,0.91145 ,1.51018 ,14.81787 
254 ,46.9469 ,0.91336 ,1.48622 ,14.58283 
255 ,47.1231 ,0.91516 ,1.46227 ,14.34778 
256 ,47.2831 ,0.91685 ,1.45542 ,14.28062 
257 ,47.4588 ,0.91849 ,1.45542 ,14.28062 
258 ,47.6351 ,0.92026 ,1.43831 ,14.11273 
259 ,47.8271 ,0.92230 ,1.41778 ,13.91126 
260 ,48.0032 ,0.92393 ,1.39725 ,13.70979 
261 ,48.1956 ,0.92588 ,1.39040 ,13.64263 
262 ,48.3715 ,0.92766 ,1.39725 ,13.70979 
263 ,48.5798 ,0.92961 ,1.38698 ,13.60906 
264 ,48.7558 ,0.93147 ,1.35618 ,13.30685 
265 ,48.9478 ,0.93333 ,1.34934 ,13.23969 
266 ,49.1559 ,0.93540 ,1.33223 ,13.07180 
267 ,49.3317 ,0.93721 ,1.32880 ,13.03822 
268 ,49.4917 ,0.93897 ,1.30827 ,12.83675 
269 ,49.6518 ,0.94055 ,1.29800 ,12.73602 
270 ,49.8279 ,0.94215 ,1.28774 ,12.63528 
271 ,50.0040 ,0.94393 ,1.26378 ,12.40024 
272 ,50.1800 ,0.94574 ,1.25352 ,12.29950 
273 ,50.3401 ,0.94741 ,1.25009 ,12.26592 
274 ,50.5161 ,0.94906 ,1.22272 ,11.99730 
275 ,50.6923 ,0.95085 ,1.23983 ,12.16519 
276 ,50.8683 ,0.95259 ,1.21245 ,11.89656 
277 ,51.0444 ,0.95433 ,1.18850 ,11.66151 
278 ,51.2205 ,0.95610 ,1.17823 ,11.56078 
279 ,51.3806 ,0.95783 ,1.16796 ,11.46004 
280 ,51.5406 ,0.95942 ,1.14743 ,11.25857 
281 ,51.7166 ,0.96102 ,1.13716 ,11.15784 
282 ,51.8928 ,0.96283 ,1.14401 ,11.22500 
283 ,52.0689 ,0.96458 ,1.12690 ,11.05710 
284 ,52.2450 ,0.96632 ,1.11321 ,10.92279 
285 ,52.4210 ,0.96812 ,1.10294 ,10.82206 
286 ,52.5810 ,0.96984 ,1.07899 ,10.58701 
287 ,52.7411 ,0.97143 ,1.07899 ,10.58701 
288 ,52.9012 ,0.97304 ,1.04819 ,10.28480 
289 ,53.0773 ,0.97468 ,1.03450 ,10.15049 
290 ,53.2533 ,0.97640 ,1.03108 ,10.11691 
291 ,53.4134 ,0.97812 ,1.04134 ,10.21765 
292 ,53.5894 ,0.97978 ,1.02081 ,10.01618 
293 ,53.7658 ,0.98156 ,1.02081 ,10.01618 
294 ,53.9578 ,0.98347 ,0.97632 ,9.57966 
295 ,54.1338 ,0.98522 ,0.98659 ,9.68039 
296 ,54.3100 ,0.98695 ,0.98317 ,9.64682 
297 ,54.4862 ,0.98876 ,0.95579 ,9.37819 
298 ,54.6619 ,0.99060 ,0.93525 ,9.17672 
299 ,54.8219 ,0.99222 ,0.91814 ,9.00883 
300 ,54.9984 ,0.99383 ,0.91130 ,8.94167 
301 ,55.1906 ,0.99582 ,0.92157 ,9.04241 
302 ,55.3831 ,0.99767 ,0.90103 ,8.84094 
303 ,55.5745 ,0.99964 ,0.88392 ,8.67305 
304 ,55.7343 ,1.00133 ,0.88050 ,8.63947 
305 ,55.9108 ,1.00302 ,0.88050 ,8.63947 
306 ,56.1026 ,1.00496 ,0.84970 ,8.33726 
307 ,56.2949 ,1.00682 ,0.83601 ,8.20295 
308 ,56.4710 ,1.00860 ,0.83943 ,8.23653 
309 ,56.6631 ,1.01057 ,0.81890 ,8.03506 
310 ,56.8550 ,1.01239 ,0.80179 ,7.86717 
311 ,57.0311 ,1.01412 ,0.79152 ,7.76643 
312 ,57.2072 ,1.01593 ,0.79152 ,7.76643 
313 ,57.3838 ,1.01775 ,0.77784 ,7.63212 
314 ,57.5755 ,1.01963 ,0.76072 ,7.46423 
315 ,57.7515 ,1.02147 ,0.74361 ,7.29633 
316 ,57.9274 ,1.02320 ,0.75046 ,7.36349 
317 ,58.1195 ,1.02507 ,0.72308 ,7.09486 
318 ,58.2955 ,1.02683 ,0.69913 ,6.85982 
319 ,58.4878 ,1.02876 ,0.70939 ,6.96055 
320 ,58.6798 ,1.03065 ,0.68544 ,6.72550 
321 ,58.8555 ,1.03243 ,0.67859 ,6.65835 
322 ,59.0319 ,1.03418 ,0.65806 ,6.45688 
323 ,59.2079 ,1.03594 ,0.66148 ,6.49046 
324 ,59.4001 ,1.03781 ,0.63753 ,6.25541 
325 ,59.5760 ,1.03967 ,0.63068 ,6.18825 
326 ,59.7683 ,1.04147 ,0.61015 ,5.98678 
327 ,59.9599 ,1.04342 ,0.59646 ,5.85247 
328 ,60.1363 ,1.04524 ,0.58277 ,5.71815 
329 ,60.3443 ,1.04725 ,0.59304 ,5.81889 
330 ,60.5205 ,1.04908 ,0.56908 ,5.58384 
331 ,60.7126 ,1.05100 ,0.55197 ,5.41595 
332 ,60.9047 ,1.05287 ,0.54855 ,5.38237 
333 ,61.0966 ,1.05473 ,0.51775 ,5.08017 
334 ,61.2890 ,1.05667 ,0.51091 ,5.01301 
335 ,61.4649 ,1.05855 ,0.52802 ,5.18090 
336 ,61.6411 ,1.06024 ,0.50064 ,4.91228 
337 ,61.8650 ,1.06238 ,0.48695 ,4.77796 
338 ,62.0248 ,1.06422 ,0.47668 ,4.67723 
339 ,62.2172 ,1.06601 ,0.46300 ,4.54291 
340 ,62.4093 ,1.06797 ,0.45273 ,4.44218 
341 ,62.5853 ,1.06974 ,0.44931 ,4.40860 
342 ,62.7774 ,1.07157 ,0.44931 ,4.40860 
343 ,62.9696 ,1.07356 ,0.42877 ,4.20713 
344 ,63.1452 ,1.07531 ,0.41166 ,4.03924 
345 ,63.3374 ,1.07716 ,0.41166 ,4.03924 
346 ,63.5296 ,1.07910 ,0.37744 ,3.70346 
347 ,63.7215 ,1.08105 ,0.37744 ,3.70346 
348 ,63.8815 ,1.08282 ,0.36718 ,3.60272 
349 ,64.0575 ,1.08441 ,0.35349 ,3.46841 
350 ,64.2336 ,1.08620 ,0.32953 ,3.23336 
351 ,64.4261 ,1.08811 ,0.33295 ,3.26694 
352 ,64.6180 ,1.09008 ,0.32611 ,3.19978 
353 ,64.7943 ,1.09178 ,0.30900 ,3.03189 
354 ,64.9863 ,1.09363 ,0.30215 ,2.96473 
355 ,65.1784 ,1.09563 ,0.28504 ,2.79684 
356 ,65.3544 ,1.09736 ,0.26109 ,2.56179 
357 ,65.5306 ,1.09916 ,0.25424 ,2.49464 
358 ,65.7226 ,1.10111 ,0.25082 ,2.46106 
359 ,65.8988 ,1.10289 ,0.25424 ,2.49464 
360 ,66.0908 ,1.10475 ,0.21660 ,2.12528 
361 ,66.2668 ,1.10650 ,0.22002 ,2.15885 
362 ,66.4591 ,1.10837 ,0.20291 ,1.99096 
363 ,66.6510 ,1.11040 ,0.18580 ,1.82307 
364 ,66.8268 ,1.11210 ,0.18238 ,1.78949 
365 ,67.0193 ,1.11402 ,0.17211 ,1.68876 
366 ,67.2114 ,1.11596 ,0.14473 ,1.42013 
367 ,67.3877 ,1.11771 ,0.13789 ,1.35298 
368 ,67.5635 ,1.11950 ,0.13105 ,1.28582 
369 ,67.7555 ,1.12140 ,0.11393 ,1.11793 
370 ,67.9315 ,1.12315 ,0.10709 ,1.05077 
371 ,68.1397 ,1.12515 ,0.11736 ,1.15151 
372 ,68.3318 ,1.12719 ,0.08998 ,0.88288 
373 ,68.5075 ,1.12888 ,0.07971 ,0.78214 
374 ,68.6839 ,1.13067 ,0.07629 ,0.74857 
375 ,68.8598 ,1.13242 ,0.06260 ,0.61425 
376 ,69.0361 ,1.13418 ,0.05576 ,0.54710 
377 ,69.2121 ,1.13598 ,0.04207 ,0.41278 
378 ,69.4043 ,1.13794 ,0.04207 ,0.41278 
379 ,69.5964 ,1.13978 ,0.04207 ,0.41278 
380 ,69.7885 ,1.14170 ,0.01469 ,0.14416 
381 ,69.9963 ,1.14374 ,-0.00584 ,-0.05731 
382 ,70.1725 ,1.14555 ,-0.01953 ,-0.19163 
383 ,70.3486 ,1.14732 ,-0.02980 ,-0.29236 
384 ,70.5246 ,1.14906 ,-0.03322 ,-0.32594 
385 ,70.7008 ,1.15083 ,-0.02980 ,-0.29236 
386 ,70.9088 ,1.15284 ,-0.05033 ,-0.49383 
387 ,71.1009 ,1.15475 ,-0.06402 ,-0.62814 
388 ,71.2930 ,1.15666 ,-0.06060 ,-0.59457 
389 ,71.4691 ,1.15857 ,-0.09482 ,-0.93035 
390 ,71.6448 ,1.16026 ,-0.10508 ,-1.03108 
391 ,71.8372 ,1.16214 ,-0.09824 ,-0.96393 
392 ,72.0293 ,1.16414 ,-0.12219 ,-1.19898 
393 ,72.2055 ,1.16591 ,-0.13588 ,-1.33329 
394 ,72.3973 ,1.16778 ,-0.12219 ,-1.19898 
395 ,72.5736 ,1.16959 ,-0.14273 ,-1.40045 
396 ,72.7493 ,1.17131 ,-0.16326 ,-1.60191 
397 ,72.9256 ,1.17310 ,-0.17353 ,-1.70265 
398 ,73.1176 ,1.17502 ,-0.16326 ,-1.60191 
399 ,73.3258 ,1.17693 ,-0.18722 ,-1.83696 
400 ,73.5179 ,1.17900 ,-0.18379 ,-1.80338 
401 ,73.6941 ,1.18078 ,-0.20775 ,-2.03843 
402 ,73.8858 ,1.18265 ,-0.22828 ,-2.23990 
403 ,74.0780 ,1.18457 ,-0.22828 ,-2.23990 
404 ,74.2540 ,1.18638 ,-0.23170 ,-2.27348 
405 ,74.4464 ,1.18829 ,-0.25908 ,-2.54211 
406 ,74.6383 ,1.19015 ,-0.25566 ,-2.50853 
407 ,74.8145 ,1.19197 ,-0.26935 ,-2.64284 
408 ,75.0064 ,1.19381 ,-0.28988 ,-2.84431 
409 ,75.2306 ,1.19595 ,-0.29673 ,-2.91147 
410 ,75.4064 ,1.19786 ,-0.31041 ,-3.04578 
411 ,75.6148 ,1.19990 ,-0.31726 ,-3.11294 
412 ,75.7909 ,1.20175 ,-0.32068 ,-3.14652 
413 ,75.9989 ,1.20378 ,-0.31384 ,-3.07936 
414 ,76.1907 ,1.20572 ,-0.34464 ,-3.38156 
415 ,76.3507 ,1.20742 ,-0.35832 ,-3.51588 
416 ,76.5269 ,1.20904 ,-0.36859 ,-3.61661 
417 ,76.7032 ,1.21085 ,-0.37886 ,-3.71735 
418 ,76.8951 ,1.21274 ,-0.36517 ,-3.58303 
419 ,77.0713 ,1.21449 ,-0.38570 ,-3.78450 
420 ,77.2634 ,1.21646 ,-0.40623 ,-3.98597 
421 ,77.4551 ,1.21828 ,-0.40623 ,-3.98597 
422 ,77.6312 ,1.22011 ,-0.41308 ,-4.05313 
423 ,77.8075 ,1.22184 ,-0.42335 ,-4.15387 
424 ,77.9998 ,1.22381 ,-0.43019 ,-4.22102 
425 ,78.1919 ,1.22573 ,-0.44730 ,-4.38891 
426 ,78.3844 ,1.22767 ,-0.46783 ,-4.59038 
427 ,78.5599 ,1.22945 ,-0.46099 ,-4.52323 
428 ,78.7359 ,1.23114 ,-0.47468 ,-4.65754 
429 ,78.9120 ,1.23290 ,-0.47468 ,-4.65754 
430 ,79.0880 ,1.23471 ,-0.48837 ,-4.79185 
431 ,79.2800 ,1.23652 ,-0.49521 ,-4.85901 
432 ,79.4723 ,1.23850 ,-0.51917 ,-5.09406 
433 ,79.6640 ,1.24038 ,-0.53285 ,-5.22837 
434 ,79.8405 ,1.24219 ,-0.53285 ,-5.22837 
435 ,80.0324 ,1.24405 ,-0.53628 ,-5.26195 
436 ,80.2081 ,1.24588 ,-0.55681 ,-5.46342 
437 ,80.3844 ,1.24767 ,-0.57734 ,-5.66489 
438 ,80.5607 ,1.24942 ,-0.58761 ,-5.76562 
439 ,80.7366 ,1.25115 ,-0.57734 ,-5.66489 
440 ,80.9129 ,1.25296 ,-0.58419 ,-5.73205 
441 ,81.1208 ,1.25501 ,-0.60814 ,-5.96709 
442 ,81.2809 ,1.25670 ,-0.61156 ,-6.00067 
443 ,81.4570 ,1.25831 ,-0.62183 ,-6.10141 
444 ,81.6490 ,1.26017 ,-0.61156 ,-6.00067 
445 ,81.8249 ,1.26202 ,-0.64921 ,-6.37003 
446 ,82.0332 ,1.26407 ,-0.64236 ,-6.30288 
447 ,82.2093 ,1.26583 ,-0.65605 ,-6.43719 
448 ,82.3854 ,1.26759 ,-0.66974 ,-6.57150 
449 ,82.5613 ,1.26940 ,-0.68001 ,-6.67224 
450 ,82.7374 ,1.27116 ,-0.68001 ,-6.67224 
451 ,82.9293 ,1.27310 ,-0.68001 ,-6.67224 
452 ,83.1056 ,1.27485 ,-0.70396 ,-6.90729 
453 ,83.2977 ,1.27675 ,-0.69712 ,-6.84013 
454 ,83.4738 ,1.27851 ,-0.71081 ,-6.97444 
455 ,83.6660 ,1.28049 ,-0.73134 ,-7.17591 
456 ,83.8419 ,1.28218 ,-0.73134 ,-7.17591 
457 ,84.0179 ,1.28393 ,-0.75187 ,-7.37738 
458 ,84.2420 ,1.28603 ,-0.74845 ,-7.34380 
459 ,84.4179 ,1.28790 ,-0.75872 ,-7.44454 
460 ,84.5943 ,1.28972 ,-0.78267 ,-7.67959 
461 ,84.7862 ,1.29166 ,-0.78952 ,-7.74674 
462 ,85.1385 ,1.29431 ,-0.80321 ,-7.88106 
463 ,85.3145 ,1.29705 ,-0.80321 ,-7.88106 
