Data stamp = , 06-04-2022 08:03:07 387

Calibration Values: 
Slope = , 26.54 , g/V 
Offset Voltage at no contact = , -0.501760 , V 

No , Time , Stage Position ,   Mass , Force 
   ,  (s) ,      (mm)      ,   (g)  , (mN)  

1 ,0.0000 ,0.44939 ,5.17190 ,50.74666 
2 ,0.2171 ,0.44947 ,5.19243 ,50.94813 
3 ,0.5376 ,0.45033 ,5.17190 ,50.74666 
4 ,0.7296 ,0.45170 ,5.17532 ,50.78023 
5 ,0.9376 ,0.45352 ,5.18559 ,50.88097 
6 ,1.1140 ,0.45537 ,5.16848 ,50.71308 
7 ,1.2898 ,0.45700 ,5.16505 ,50.67950 
8 ,1.4819 ,0.45898 ,5.18559 ,50.88097 
9 ,1.6580 ,0.46075 ,5.17532 ,50.78023 
10 ,1.8339 ,0.46245 ,5.15479 ,50.57876 
11 ,2.0258 ,0.46435 ,5.15821 ,50.61234 
12 ,2.2021 ,0.46617 ,5.15479 ,50.57876 
13 ,2.3944 ,0.46808 ,5.13425 ,50.37729 
14 ,2.5702 ,0.46987 ,5.11030 ,50.14225 
15 ,2.7624 ,0.47175 ,5.12399 ,50.27656 
16 ,2.9704 ,0.47371 ,5.08634 ,49.90720 
17 ,3.1466 ,0.47560 ,5.08634 ,49.90720 
18 ,3.3386 ,0.47744 ,5.08634 ,49.90720 
19 ,3.5148 ,0.47929 ,5.06239 ,49.67215 
20 ,3.6908 ,0.48107 ,5.04528 ,49.50426 
21 ,3.8669 ,0.48279 ,5.01448 ,49.20205 
22 ,4.0590 ,0.48472 ,5.02132 ,49.26921 
23 ,4.2350 ,0.48655 ,4.98710 ,48.93343 
24 ,4.4141 ,0.48825 ,4.96657 ,48.73196 
25 ,4.6032 ,0.49018 ,4.96999 ,48.76554 
26 ,4.7951 ,0.49207 ,4.94261 ,48.49691 
27 ,4.9873 ,0.49395 ,4.91523 ,48.22828 
28 ,5.1633 ,0.49579 ,4.90497 ,48.12755 
29 ,5.3714 ,0.49783 ,4.87075 ,47.79177 
30 ,5.5476 ,0.49961 ,4.87417 ,47.82534 
31 ,5.7237 ,0.50144 ,4.86048 ,47.69103 
32 ,5.8997 ,0.50312 ,4.85364 ,47.62387 
33 ,6.0757 ,0.50485 ,4.83310 ,47.42240 
34 ,6.2679 ,0.50672 ,4.80915 ,47.18736 
35 ,6.4761 ,0.50888 ,4.80573 ,47.15378 
36 ,6.6520 ,0.51068 ,4.79546 ,47.05304 
37 ,6.8280 ,0.51245 ,4.75097 ,46.61653 
38 ,7.0203 ,0.51437 ,4.75097 ,46.61653 
39 ,7.1963 ,0.51614 ,4.74413 ,46.54937 
40 ,7.3884 ,0.51793 ,4.72702 ,46.38148 
41 ,7.5804 ,0.51997 ,4.70306 ,46.14643 
42 ,7.7725 ,0.52186 ,4.68595 ,45.97854 
43 ,7.9643 ,0.52370 ,4.66199 ,45.74349 
44 ,8.1405 ,0.52554 ,4.64831 ,45.60918 
45 ,8.3327 ,0.52742 ,4.63804 ,45.50844 
46 ,8.5249 ,0.52934 ,4.61066 ,45.23981 
47 ,8.7009 ,0.53116 ,4.60040 ,45.13908 
48 ,8.8769 ,0.53288 ,4.59013 ,45.03835 
49 ,9.0530 ,0.53468 ,4.57986 ,44.93761 
50 ,9.2291 ,0.53642 ,4.54564 ,44.60183 
51 ,9.4371 ,0.53842 ,4.54222 ,44.56825 
52 ,9.6132 ,0.54026 ,4.51484 ,44.29962 
53 ,9.7892 ,0.54199 ,4.50115 ,44.16531 
54 ,9.9651 ,0.54370 ,4.48746 ,44.03100 
55 ,10.1415 ,0.54555 ,4.47720 ,43.93026 
56 ,10.3173 ,0.54730 ,4.46009 ,43.76237 
57 ,10.5096 ,0.54922 ,4.43271 ,43.49374 
58 ,10.7018 ,0.55115 ,4.42586 ,43.42659 
59 ,10.8778 ,0.55292 ,4.42586 ,43.42659 
60 ,11.0697 ,0.55472 ,4.39507 ,43.12438 
61 ,11.2777 ,0.55682 ,4.38480 ,43.02365 
62 ,11.4539 ,0.55862 ,4.36769 ,42.85576 
63 ,11.6299 ,0.56040 ,4.35400 ,42.72144 
64 ,11.8061 ,0.56216 ,4.33004 ,42.48639 
65 ,11.9823 ,0.56396 ,4.31293 ,42.31850 
66 ,12.1742 ,0.56585 ,4.30951 ,42.28492 
67 ,12.3504 ,0.56759 ,4.28898 ,42.08345 
68 ,12.5585 ,0.56966 ,4.25818 ,41.78125 
69 ,12.7505 ,0.57164 ,4.25476 ,41.74767 
70 ,12.9265 ,0.57334 ,4.22738 ,41.47905 
71 ,13.1188 ,0.57518 ,4.20685 ,41.27758 
72 ,13.2946 ,0.57703 ,4.21369 ,41.34473 
73 ,13.4708 ,0.57877 ,4.20342 ,41.24400 
74 ,13.6468 ,0.58056 ,4.16920 ,40.90821 
75 ,13.8389 ,0.58251 ,4.16236 ,40.84106 
76 ,14.0149 ,0.58425 ,4.15551 ,40.77390 
77 ,14.2071 ,0.58621 ,4.12471 ,40.47170 
78 ,14.3832 ,0.58793 ,4.10760 ,40.30380 
79 ,14.5748 ,0.58980 ,4.11103 ,40.33738 
80 ,14.7513 ,0.59162 ,4.10076 ,40.23665 
81 ,14.9432 ,0.59347 ,4.06312 ,39.86729 
82 ,15.1195 ,0.59534 ,4.04943 ,39.73297 
83 ,15.2953 ,0.59707 ,4.04600 ,39.69940 
84 ,15.4715 ,0.59879 ,4.04258 ,39.66582 
85 ,15.6313 ,0.60053 ,4.00836 ,39.33003 
86 ,15.8078 ,0.60219 ,4.00152 ,39.26288 
87 ,16.0003 ,0.60413 ,3.96729 ,38.92709 
88 ,16.2078 ,0.60608 ,3.95361 ,38.79278 
89 ,16.3840 ,0.60789 ,3.94676 ,38.72562 
90 ,16.6081 ,0.61010 ,3.92281 ,38.49058 
91 ,16.7680 ,0.61191 ,3.90912 ,38.35626 
92 ,16.9440 ,0.61351 ,3.88516 ,38.12122 
93 ,17.1363 ,0.61539 ,3.89201 ,38.18837 
94 ,17.3123 ,0.61730 ,3.85779 ,37.85259 
95 ,17.4885 ,0.61898 ,3.85779 ,37.85259 
96 ,17.6642 ,0.62071 ,3.83041 ,37.58396 
97 ,17.8405 ,0.62249 ,3.83041 ,37.58396 
98 ,18.0165 ,0.62423 ,3.80987 ,37.38249 
99 ,18.1928 ,0.62601 ,3.80645 ,37.34891 
100 ,18.3848 ,0.62793 ,3.77908 ,37.08029 
101 ,18.5764 ,0.62985 ,3.76539 ,36.94597 
102 ,18.7524 ,0.63160 ,3.76881 ,36.97955 
103 ,18.9286 ,0.63341 ,3.74828 ,36.77808 
104 ,19.1371 ,0.63547 ,3.71748 ,36.47588 
105 ,19.3292 ,0.63740 ,3.71063 ,36.40872 
106 ,19.5050 ,0.63917 ,3.68325 ,36.14010 
107 ,19.6974 ,0.64097 ,3.67641 ,36.07294 
108 ,19.8731 ,0.64280 ,3.67299 ,36.03936 
109 ,20.0496 ,0.64460 ,3.64219 ,35.73716 
110 ,20.2416 ,0.64650 ,3.60112 ,35.33422 
111 ,20.4337 ,0.64839 ,3.61823 ,35.50211 
112 ,20.6098 ,0.65022 ,3.60797 ,35.40137 
113 ,20.7857 ,0.65198 ,3.59086 ,35.23348 
114 ,20.9615 ,0.65368 ,3.53952 ,34.72981 
115 ,21.1538 ,0.65549 ,3.53952 ,34.72981 
116 ,21.3296 ,0.65737 ,3.55321 ,34.86412 
117 ,21.5058 ,0.65909 ,3.51899 ,34.52834 
118 ,21.6821 ,0.66087 ,3.50872 ,34.42760 
119 ,21.8582 ,0.66263 ,3.47792 ,34.12540 
120 ,22.0340 ,0.66440 ,3.47450 ,34.09182 
121 ,22.2104 ,0.66618 ,3.47450 ,34.09182 
122 ,22.4025 ,0.66809 ,3.43686 ,33.72246 
123 ,22.6105 ,0.67020 ,3.44713 ,33.82319 
124 ,22.7868 ,0.67199 ,3.43001 ,33.65530 
125 ,22.9787 ,0.67387 ,3.39237 ,33.28594 
126 ,23.1548 ,0.67559 ,3.38210 ,33.18520 
127 ,23.3310 ,0.67740 ,3.38553 ,33.21878 
128 ,23.5070 ,0.67918 ,3.35815 ,32.95016 
129 ,23.7150 ,0.68115 ,3.34788 ,32.84942 
130 ,23.8912 ,0.68300 ,3.32735 ,32.64795 
131 ,24.0671 ,0.68477 ,3.31708 ,32.54722 
132 ,24.2593 ,0.68655 ,3.29313 ,32.31217 
133 ,24.4513 ,0.68859 ,3.28628 ,32.24501 
134 ,24.6274 ,0.69030 ,3.27259 ,32.11070 
135 ,24.8035 ,0.69209 ,3.25548 ,31.94281 
136 ,24.9794 ,0.69384 ,3.22468 ,31.64060 
137 ,25.1713 ,0.69582 ,3.22126 ,31.60702 
138 ,25.3476 ,0.69753 ,3.21442 ,31.53987 
139 ,25.5398 ,0.69942 ,3.19731 ,31.37198 
140 ,25.7317 ,0.70138 ,3.18362 ,31.23766 
141 ,25.9079 ,0.70311 ,3.16309 ,31.03619 
142 ,26.0839 ,0.70490 ,3.14597 ,30.86830 
143 ,26.2597 ,0.70665 ,3.11175 ,30.53252 
144 ,26.4362 ,0.70837 ,3.11518 ,30.56610 
145 ,26.6442 ,0.71041 ,3.09806 ,30.39821 
146 ,26.8201 ,0.71223 ,3.08095 ,30.23031 
147 ,26.9963 ,0.71401 ,3.06042 ,30.02884 
148 ,27.1721 ,0.71576 ,3.07411 ,30.16316 
149 ,27.3325 ,0.71747 ,3.05358 ,29.96169 
150 ,27.5087 ,0.71914 ,3.03989 ,29.82737 
151 ,27.7007 ,0.72105 ,2.99882 ,29.42444 
152 ,27.8768 ,0.72287 ,2.98855 ,29.32370 
153 ,28.0528 ,0.72457 ,2.98855 ,29.32370 
154 ,28.2610 ,0.72648 ,2.97829 ,29.22297 
155 ,28.5807 ,0.72927 ,2.95776 ,29.02150 
156 ,28.7731 ,0.73166 ,2.93038 ,28.75287 
157 ,28.9492 ,0.73356 ,2.92353 ,28.68571 
158 ,29.1253 ,0.73532 ,2.90642 ,28.51782 
159 ,29.3174 ,0.73723 ,2.87220 ,28.18204 
160 ,29.4934 ,0.73895 ,2.86536 ,28.11488 
161 ,29.6695 ,0.74073 ,2.86536 ,28.11488 
162 ,29.8296 ,0.74244 ,2.84140 ,27.87983 
163 ,30.0054 ,0.74407 ,2.84825 ,27.94699 
164 ,30.1980 ,0.74596 ,2.80718 ,27.54405 
165 ,30.3736 ,0.74776 ,2.78665 ,27.34258 
166 ,30.5499 ,0.74952 ,2.79349 ,27.40974 
167 ,30.7419 ,0.75140 ,2.77638 ,27.24185 
168 ,30.9181 ,0.75326 ,2.74216 ,26.90606 
169 ,31.1102 ,0.75519 ,2.74558 ,26.93964 
170 ,31.2862 ,0.75695 ,2.74900 ,26.97322 
171 ,31.4623 ,0.75867 ,2.70452 ,26.53670 
172 ,31.6382 ,0.76044 ,2.69425 ,26.43597 
173 ,31.8625 ,0.76249 ,2.67372 ,26.23450 
174 ,32.0385 ,0.76437 ,2.65318 ,26.03303 
175 ,32.2147 ,0.76616 ,2.64292 ,25.93229 
176 ,32.3744 ,0.76794 ,2.63607 ,25.86514 
177 ,32.5507 ,0.76955 ,2.63265 ,25.83156 
178 ,32.7430 ,0.77141 ,2.61896 ,25.69724 
179 ,32.9190 ,0.77323 ,2.59501 ,25.46220 
180 ,33.1271 ,0.77529 ,2.57789 ,25.29430 
181 ,33.3191 ,0.77715 ,2.55394 ,25.05926 
182 ,33.4959 ,0.77899 ,2.54710 ,24.99210 
183 ,33.6709 ,0.78080 ,2.53683 ,24.89136 
184 ,33.8472 ,0.78249 ,2.54025 ,24.92494 
185 ,34.0395 ,0.78440 ,2.49576 ,24.48842 
186 ,34.2153 ,0.78622 ,2.48892 ,24.42127 
187 ,34.4235 ,0.78817 ,2.47865 ,24.32053 
188 ,34.6155 ,0.79014 ,2.45470 ,24.08549 
189 ,34.7757 ,0.79188 ,2.44101 ,23.95117 
190 ,34.9516 ,0.79355 ,2.42732 ,23.81686 
191 ,35.1279 ,0.79527 ,2.43074 ,23.85044 
192 ,35.3199 ,0.79714 ,2.41363 ,23.68255 
193 ,35.5120 ,0.79913 ,2.38968 ,23.44750 
194 ,35.6882 ,0.80093 ,2.37256 ,23.27961 
195 ,35.8641 ,0.80266 ,2.37256 ,23.27961 
196 ,36.0403 ,0.80443 ,2.35545 ,23.11171 
197 ,36.2323 ,0.80632 ,2.32465 ,22.80951 
198 ,36.4081 ,0.80810 ,2.32465 ,22.80951 
199 ,36.5844 ,0.80992 ,2.29728 ,22.54088 
200 ,36.7602 ,0.81160 ,2.29043 ,22.47373 
201 ,36.9364 ,0.81336 ,2.26990 ,22.27226 
202 ,37.1127 ,0.81518 ,2.26306 ,22.20510 
203 ,37.3046 ,0.81709 ,2.25279 ,22.10437 
204 ,37.4807 ,0.81891 ,2.22199 ,21.80216 
205 ,37.6568 ,0.82055 ,2.22199 ,21.80216 
206 ,37.8489 ,0.82253 ,2.20488 ,21.63427 
207 ,38.0249 ,0.82422 ,2.20488 ,21.63427 
208 ,38.2491 ,0.82638 ,2.16723 ,21.26491 
209 ,38.4251 ,0.82827 ,2.16381 ,21.23133 
210 ,38.6011 ,0.83012 ,2.13986 ,20.99628 
211 ,38.7773 ,0.83174 ,2.12959 ,20.89555 
212 ,38.9690 ,0.83365 ,2.12275 ,20.82839 
213 ,39.1455 ,0.83549 ,2.10564 ,20.66050 
214 ,39.3376 ,0.83737 ,2.09195 ,20.52619 
215 ,39.5135 ,0.83917 ,2.07484 ,20.35829 
216 ,39.7056 ,0.84104 ,2.06457 ,20.25756 
217 ,39.8818 ,0.84279 ,2.04746 ,20.08967 
218 ,40.0734 ,0.84477 ,2.02693 ,19.88820 
219 ,40.2499 ,0.84652 ,2.01324 ,19.75388 
220 ,40.4257 ,0.84830 ,2.00639 ,19.68673 
221 ,40.6501 ,0.85034 ,1.97902 ,19.41810 
222 ,40.8421 ,0.85242 ,1.98586 ,19.48526 
223 ,41.0183 ,0.85417 ,1.97217 ,19.35094 
224 ,41.1940 ,0.85598 ,1.94479 ,19.08232 
225 ,41.3864 ,0.85784 ,1.94479 ,19.08232 
226 ,41.5781 ,0.85981 ,1.92426 ,18.88085 
227 ,41.7702 ,0.86166 ,1.90031 ,18.64580 
228 ,41.9464 ,0.86344 ,1.88662 ,18.51149 
229 ,42.1544 ,0.86547 ,1.86266 ,18.27644 
230 ,42.3465 ,0.86736 ,1.86266 ,18.27644 
231 ,42.5388 ,0.86939 ,1.85240 ,18.17570 
232 ,42.7147 ,0.87117 ,1.82844 ,17.94066 
233 ,42.9071 ,0.87308 ,1.81133 ,17.77276 
234 ,43.1150 ,0.87510 ,1.79422 ,17.60487 
235 ,43.2911 ,0.87691 ,1.77711 ,17.43698 
236 ,43.4668 ,0.87866 ,1.77369 ,17.40340 
237 ,43.6433 ,0.88041 ,1.76342 ,17.30267 
238 ,43.8194 ,0.88220 ,1.76000 ,17.26909 
239 ,44.0115 ,0.88411 ,1.71893 ,16.86615 
240 ,44.2035 ,0.88602 ,1.71893 ,16.86615 
241 ,44.3792 ,0.88775 ,1.71209 ,16.79899 
242 ,44.5876 ,0.88974 ,1.67786 ,16.46321 
243 ,44.7637 ,0.89165 ,1.67444 ,16.42963 
244 ,44.9399 ,0.89339 ,1.67102 ,16.39605 
245 ,45.1160 ,0.89511 ,1.66418 ,16.32890 
246 ,45.3077 ,0.89698 ,1.64022 ,16.09385 
247 ,45.5004 ,0.89887 ,1.61627 ,15.85880 
248 ,45.6923 ,0.90093 ,1.59573 ,15.65733 
249 ,45.8683 ,0.90271 ,1.57862 ,15.48944 
250 ,46.0440 ,0.90443 ,1.58204 ,15.52302 
251 ,46.2201 ,0.90615 ,1.57862 ,15.48944 
252 ,46.3801 ,0.90788 ,1.55809 ,15.28797 
253 ,46.5400 ,0.90951 ,1.53756 ,15.08650 
254 ,46.7003 ,0.91110 ,1.53756 ,15.08650 
255 ,46.8764 ,0.91269 ,1.52387 ,14.95219 
256 ,47.0524 ,0.91447 ,1.49649 ,14.68356 
257 ,47.2284 ,0.91625 ,1.47596 ,14.48209 
258 ,47.4046 ,0.91798 ,1.46569 ,14.38136 
259 ,47.5806 ,0.91973 ,1.46569 ,14.38136 
260 ,47.7407 ,0.92150 ,1.45542 ,14.28062 
261 ,47.9168 ,0.92310 ,1.44174 ,14.14631 
262 ,48.0929 ,0.92489 ,1.42462 ,13.97842 
263 ,48.2688 ,0.92666 ,1.41094 ,13.84410 
264 ,48.4450 ,0.92838 ,1.39383 ,13.67621 
265 ,48.6211 ,0.93014 ,1.39383 ,13.67621 
266 ,48.7971 ,0.93198 ,1.38356 ,13.57548 
267 ,48.9731 ,0.93368 ,1.36645 ,13.40759 
268 ,49.1493 ,0.93540 ,1.34591 ,13.20612 
269 ,49.3091 ,0.93716 ,1.32538 ,13.00465 
270 ,49.4694 ,0.93878 ,1.31512 ,12.90391 
271 ,49.6614 ,0.94055 ,1.31169 ,12.87033 
272 ,49.8374 ,0.94235 ,1.31169 ,12.87033 
273 ,50.0136 ,0.94406 ,1.29116 ,12.66886 
274 ,50.1735 ,0.94578 ,1.27063 ,12.46739 
275 ,50.3497 ,0.94744 ,1.26036 ,12.36666 
276 ,50.5097 ,0.94916 ,1.24325 ,12.19877 
277 ,50.6859 ,0.95087 ,1.22272 ,11.99730 
278 ,50.8779 ,0.95267 ,1.23641 ,12.13161 
279 ,51.0704 ,0.95464 ,1.21587 ,11.93014 
280 ,51.2465 ,0.95646 ,1.18165 ,11.59436 
281 ,51.4226 ,0.95821 ,1.18165 ,11.59436 
282 ,51.5985 ,0.95998 ,1.17138 ,11.49362 
283 ,51.7742 ,0.96167 ,1.17481 ,11.52720 
284 ,51.9507 ,0.96346 ,1.13374 ,11.12426 
285 ,52.1268 ,0.96525 ,1.13374 ,11.12426 
286 ,52.3028 ,0.96696 ,1.11321 ,10.92279 
287 ,52.4788 ,0.96875 ,1.12005 ,10.98995 
288 ,52.6707 ,0.97064 ,1.10636 ,10.85563 
289 ,52.8468 ,0.97239 ,1.06530 ,10.45270 
290 ,53.0230 ,0.97413 ,1.07214 ,10.51985 
291 ,53.1994 ,0.97594 ,1.05845 ,10.38554 
292 ,53.3750 ,0.97774 ,1.05503 ,10.35196 
293 ,53.5674 ,0.97951 ,1.04476 ,10.25123 
294 ,53.7594 ,0.98156 ,1.01739 ,9.98260 
295 ,53.9353 ,0.98324 ,1.02423 ,10.04976 
296 ,54.1118 ,0.98507 ,0.99685 ,9.78113 
297 ,54.3037 ,0.98700 ,0.97632 ,9.57966 
298 ,54.4961 ,0.98882 ,0.97632 ,9.57966 
299 ,54.6878 ,0.99083 ,0.94210 ,9.24388 
300 ,54.8639 ,0.99257 ,0.94894 ,9.31103 
301 ,55.0401 ,0.99432 ,0.93525 ,9.17672 
302 ,55.2161 ,0.99606 ,0.92499 ,9.07598 
303 ,55.4082 ,0.99792 ,0.89761 ,8.80736 
304 ,55.6001 ,0.99988 ,0.89761 ,8.80736 
305 ,55.7924 ,1.00178 ,0.88050 ,8.63947 
306 ,55.9681 ,1.00361 ,0.86339 ,8.47158 
307 ,56.1442 ,1.00541 ,0.85997 ,8.43800 
308 ,56.3205 ,1.00713 ,0.84970 ,8.33726 
309 ,56.4967 ,1.00893 ,0.83601 ,8.20295 
310 ,56.6727 ,1.01067 ,0.83259 ,8.16937 
311 ,56.8489 ,1.01240 ,0.80521 ,7.90074 
312 ,57.0406 ,1.01437 ,0.79837 ,7.83359 
313 ,57.2170 ,1.01614 ,0.78468 ,7.69927 
314 ,57.4089 ,1.01804 ,0.77441 ,7.59854 
315 ,57.5851 ,1.01975 ,0.75730 ,7.43065 
316 ,57.7771 ,1.02170 ,0.75730 ,7.43065 
317 ,57.9534 ,1.02347 ,0.75730 ,7.43065 
318 ,58.1453 ,1.02542 ,0.72650 ,7.12844 
319 ,58.3215 ,1.02715 ,0.71281 ,6.99413 
320 ,58.4971 ,1.02893 ,0.69913 ,6.85982 
321 ,58.6896 ,1.03081 ,0.67859 ,6.65835 
322 ,58.8657 ,1.03256 ,0.67517 ,6.62477 
323 ,59.0736 ,1.03460 ,0.67175 ,6.59119 
324 ,59.2499 ,1.03641 ,0.65464 ,6.42330 
325 ,59.4259 ,1.03817 ,0.65121 ,6.38972 
326 ,59.6180 ,1.04010 ,0.63753 ,6.25541 
327 ,59.8102 ,1.04192 ,0.62384 ,6.12109 
328 ,59.9862 ,1.04383 ,0.60673 ,5.95320 
329 ,60.1781 ,1.04564 ,0.59646 ,5.85247 
330 ,60.3703 ,1.04760 ,0.57935 ,5.68458 
331 ,60.5623 ,1.04954 ,0.56908 ,5.58384 
332 ,60.7384 ,1.05132 ,0.56566 ,5.55026 
333 ,60.9147 ,1.05306 ,0.56224 ,5.51668 
334 ,61.1063 ,1.05495 ,0.54171 ,5.31522 
335 ,61.2825 ,1.05673 ,0.52802 ,5.18090 
336 ,61.4588 ,1.05854 ,0.50406 ,4.94585 
337 ,61.6347 ,1.06026 ,0.52117 ,5.11375 
338 ,61.8427 ,1.06228 ,0.47668 ,4.67723 
339 ,62.0187 ,1.06410 ,0.47668 ,4.67723 
340 ,62.1948 ,1.06585 ,0.47326 ,4.64365 
341 ,62.3708 ,1.06762 ,0.45957 ,4.50934 
342 ,62.5628 ,1.06947 ,0.42535 ,4.17355 
343 ,62.7389 ,1.07130 ,0.42535 ,4.17355 
344 ,62.9309 ,1.07314 ,0.43220 ,4.24071 
345 ,63.1069 ,1.07496 ,0.42535 ,4.17355 
346 ,63.2831 ,1.07673 ,0.39455 ,3.87135 
347 ,63.4593 ,1.07850 ,0.38429 ,3.77061 
348 ,63.6352 ,1.08025 ,0.38771 ,3.80419 
349 ,63.8112 ,1.08202 ,0.38771 ,3.80419 
350 ,63.9713 ,1.08375 ,0.37060 ,3.63630 
351 ,64.1314 ,1.08534 ,0.36718 ,3.60272 
352 ,64.3235 ,1.08705 ,0.33638 ,3.30052 
353 ,64.5001 ,1.08891 ,0.31584 ,3.09905 
354 ,64.6916 ,1.09083 ,0.32269 ,3.16620 
355 ,64.8677 ,1.09260 ,0.31242 ,3.06547 
356 ,65.0438 ,1.09430 ,0.29873 ,2.93116 
357 ,65.2199 ,1.09610 ,0.28162 ,2.76326 
358 ,65.3961 ,1.09787 ,0.27478 ,2.69611 
359 ,65.5721 ,1.09959 ,0.27478 ,2.69611 
360 ,65.7644 ,1.10148 ,0.25767 ,2.52822 
361 ,65.9402 ,1.10330 ,0.23371 ,2.29317 
362 ,66.1164 ,1.10505 ,0.22687 ,2.22601 
363 ,66.2925 ,1.10684 ,0.24398 ,2.39390 
364 ,66.4684 ,1.10862 ,0.22344 ,2.19243 
365 ,66.6446 ,1.11034 ,0.21660 ,2.12528 
366 ,66.8206 ,1.11220 ,0.19264 ,1.89023 
367 ,66.9967 ,1.11386 ,0.18238 ,1.78949 
368 ,67.1728 ,1.11564 ,0.17211 ,1.68876 
369 ,67.3489 ,1.11736 ,0.17553 ,1.72234 
370 ,67.5096 ,1.11910 ,0.15158 ,1.48729 
371 ,67.7010 ,1.12085 ,0.13105 ,1.28582 
372 ,67.8932 ,1.12280 ,0.13105 ,1.28582 
373 ,68.0693 ,1.12456 ,0.13447 ,1.31940 
374 ,68.2453 ,1.12631 ,0.11393 ,1.11793 
375 ,68.4214 ,1.12808 ,0.08656 ,0.84930 
376 ,68.5975 ,1.12987 ,0.08656 ,0.84930 
377 ,68.7735 ,1.13159 ,0.07629 ,0.74857 
378 ,68.9496 ,1.13344 ,0.06602 ,0.64783 
379 ,69.1256 ,1.13513 ,0.06602 ,0.64783 
380 ,69.3016 ,1.13691 ,0.05576 ,0.54710 
381 ,69.4617 ,1.13861 ,0.03865 ,0.37920 
382 ,69.6378 ,1.14026 ,0.02496 ,0.24489 
383 ,69.8139 ,1.14200 ,0.03180 ,0.31205 
384 ,69.9899 ,1.14376 ,0.03522 ,0.34563 
385 ,70.1660 ,1.14551 ,0.00785 ,0.07700 
386 ,70.3420 ,1.14732 ,0.01127 ,0.11058 
387 ,70.5180 ,1.14908 ,-0.02980 ,-0.29236 
388 ,70.6944 ,1.15086 ,-0.03322 ,-0.32594 
389 ,70.8704 ,1.15258 ,-0.02295 ,-0.22520 
390 ,71.0465 ,1.15433 ,-0.02295 ,-0.22520 
391 ,71.2226 ,1.15608 ,-0.05717 ,-0.56099 
392 ,71.3987 ,1.15785 ,-0.07086 ,-0.69530 
393 ,71.5746 ,1.15959 ,-0.08455 ,-0.82961 
394 ,71.7507 ,1.16140 ,-0.07086 ,-0.69530 
395 ,71.9268 ,1.16317 ,-0.08797 ,-0.86319 
396 ,72.1030 ,1.16488 ,-0.09824 ,-0.96393 
397 ,72.2789 ,1.16666 ,-0.11877 ,-1.16540 
398 ,72.4549 ,1.16846 ,-0.13931 ,-1.36687 
399 ,72.6310 ,1.17024 ,-0.12904 ,-1.26613 
400 ,72.8071 ,1.17195 ,-0.12562 ,-1.23255 
401 ,72.9671 ,1.17367 ,-0.15299 ,-1.50118 
402 ,73.1432 ,1.17531 ,-0.15299 ,-1.50118 
403 ,73.3193 ,1.17706 ,-0.18379 ,-1.80338 
404 ,73.5114 ,1.17890 ,-0.16326 ,-1.60191 
405 ,73.7036 ,1.18087 ,-0.18722 ,-1.83696 
406 ,73.8795 ,1.18269 ,-0.21117 ,-2.07201 
407 ,74.0558 ,1.18438 ,-0.22486 ,-2.20632 
408 ,74.2316 ,1.18617 ,-0.22486 ,-2.20632 
409 ,74.4078 ,1.18792 ,-0.21802 ,-2.13917 
410 ,74.5838 ,1.18969 ,-0.23170 ,-2.27348 
411 ,74.7600 ,1.19145 ,-0.25224 ,-2.47495 
412 ,74.9361 ,1.19324 ,-0.26250 ,-2.57569 
413 ,75.1122 ,1.19496 ,-0.25908 ,-2.54211 
414 ,75.2883 ,1.19676 ,-0.25908 ,-2.54211 
415 ,75.4642 ,1.19849 ,-0.26935 ,-2.64284 
416 ,75.6404 ,1.20022 ,-0.29673 ,-2.91147 
417 ,75.8163 ,1.20205 ,-0.31041 ,-3.04578 
418 ,75.9926 ,1.20385 ,-0.30357 ,-2.97863 
419 ,76.1684 ,1.20554 ,-0.30699 ,-3.01220 
420 ,76.3445 ,1.20735 ,-0.32752 ,-3.21367 
421 ,76.5205 ,1.20906 ,-0.35148 ,-3.44872 
422 ,76.7128 ,1.21098 ,-0.35490 ,-3.48230 
423 ,76.8887 ,1.21274 ,-0.34806 ,-3.41514 
424 ,77.0649 ,1.21446 ,-0.36175 ,-3.54946 
425 ,77.2410 ,1.21624 ,-0.37886 ,-3.71735 
426 ,77.4170 ,1.21802 ,-0.38570 ,-3.78450 
427 ,77.5771 ,1.21974 ,-0.39597 ,-3.88524 
428 ,77.7534 ,1.22136 ,-0.39939 ,-3.91882 
429 ,77.9293 ,1.22315 ,-0.40281 ,-3.95240 
430 ,78.1054 ,1.22490 ,-0.41308 ,-4.05313 
431 ,78.2814 ,1.22665 ,-0.42677 ,-4.18744 
432 ,78.4575 ,1.22843 ,-0.44388 ,-4.35534 
433 ,78.6335 ,1.23018 ,-0.45757 ,-4.48965 
434 ,78.8096 ,1.23194 ,-0.44730 ,-4.38891 
435 ,78.9695 ,1.23366 ,-0.44388 ,-4.35534 
436 ,79.1455 ,1.23529 ,-0.46441 ,-4.55681 
437 ,79.3216 ,1.23706 ,-0.48837 ,-4.79185 
438 ,79.4978 ,1.23885 ,-0.49179 ,-4.82543 
439 ,79.6739 ,1.24060 ,-0.49179 ,-4.82543 
440 ,79.8500 ,1.24233 ,-0.50206 ,-4.92617 
441 ,80.0261 ,1.24411 ,-0.50206 ,-4.92617 
442 ,80.2022 ,1.24585 ,-0.51574 ,-5.06048 
443 ,80.3783 ,1.24762 ,-0.52259 ,-5.12764 
444 ,80.5543 ,1.24936 ,-0.55681 ,-5.46342 
445 ,80.7304 ,1.25114 ,-0.54654 ,-5.36268 
446 ,80.9064 ,1.25289 ,-0.54654 ,-5.36268 
447 ,81.0826 ,1.25466 ,-0.55681 ,-5.46342 
448 ,81.2586 ,1.25643 ,-0.58761 ,-5.76562 
449 ,81.4347 ,1.25816 ,-0.60130 ,-5.89994 
450 ,81.6108 ,1.25996 ,-0.59788 ,-5.86636 
451 ,81.7707 ,1.26168 ,-0.58419 ,-5.73205 
452 ,81.9309 ,1.26326 ,-0.60472 ,-5.93352 
453 ,82.1070 ,1.26491 ,-0.60814 ,-5.96709 
454 ,82.2829 ,1.26669 ,-0.61156 ,-6.00067 
455 ,82.4591 ,1.26842 ,-0.64236 ,-6.30288 
456 ,82.6351 ,1.27013 ,-0.65263 ,-6.40361 
457 ,82.8113 ,1.27194 ,-0.65263 ,-6.40361 
458 ,82.9712 ,1.27364 ,-0.65605 ,-6.43719 
459 ,83.1473 ,1.27533 ,-0.65947 ,-6.47077 
460 ,83.3234 ,1.27705 ,-0.66290 ,-6.50435 
461 ,83.4996 ,1.27882 ,-0.68685 ,-6.73940 
462 ,83.6754 ,1.28058 ,-0.69712 ,-6.84013 
463 ,83.8517 ,1.28231 ,-0.70054 ,-6.87371 
