Data stamp = , 05-04-2022 23:38:37 620

Calibration Values: 
Slope = , 26.54 , g/V 
Offset Voltage at no contact = , -0.501760 , V 

No , Time , Stage Position ,   Mass , Force 
   ,  (s) ,      (mm)      ,   (g)  , (mN)  

1 ,0.0000 ,0.44945 ,5.23350 ,51.35107 
2 ,0.2191 ,0.44954 ,5.21639 ,51.18317 
3 ,0.5554 ,0.45044 ,5.23692 ,51.38464 
4 ,0.7312 ,0.45186 ,5.23007 ,51.31749 
5 ,0.9076 ,0.45331 ,5.20954 ,51.11602 
6 ,1.0836 ,0.45503 ,5.22323 ,51.25033 
7 ,1.2757 ,0.45691 ,5.23007 ,51.31749 
8 ,1.4678 ,0.45884 ,5.22665 ,51.28391 
9 ,1.6598 ,0.46079 ,5.19585 ,50.98170 
10 ,1.8680 ,0.46280 ,5.21296 ,51.14960 
11 ,2.0600 ,0.46474 ,5.18216 ,50.84739 
12 ,2.2521 ,0.46662 ,5.17190 ,50.74666 
13 ,2.4443 ,0.46860 ,5.13768 ,50.41087 
14 ,2.6200 ,0.47038 ,5.13425 ,50.37729 
15 ,2.7964 ,0.47215 ,5.11714 ,50.20940 
16 ,2.9881 ,0.47411 ,5.11030 ,50.14225 
17 ,3.1645 ,0.47585 ,5.06923 ,49.73931 
18 ,3.3563 ,0.47773 ,5.04528 ,49.50426 
19 ,3.5327 ,0.47951 ,5.05554 ,49.60499 
20 ,3.7244 ,0.48142 ,5.01790 ,49.23563 
21 ,3.9009 ,0.48321 ,4.99394 ,49.00058 
22 ,4.0767 ,0.48494 ,4.98368 ,48.89985 
23 ,4.2690 ,0.48677 ,4.98368 ,48.89985 
24 ,4.4611 ,0.48881 ,4.93577 ,48.42975 
25 ,4.6531 ,0.49072 ,4.94946 ,48.56407 
26 ,4.8291 ,0.49249 ,4.92208 ,48.29544 
27 ,5.0372 ,0.49451 ,4.90497 ,48.12755 
28 ,5.2133 ,0.49631 ,4.88786 ,47.95966 
29 ,5.3894 ,0.49811 ,4.88444 ,47.92608 
30 ,5.5654 ,0.49983 ,4.85364 ,47.62387 
31 ,5.7575 ,0.50169 ,4.81599 ,47.25451 
32 ,5.9337 ,0.50354 ,4.80915 ,47.18736 
33 ,6.1257 ,0.50544 ,4.79888 ,47.08662 
34 ,6.3015 ,0.50724 ,4.78177 ,46.91873 
35 ,6.4777 ,0.50898 ,4.76466 ,46.75084 
36 ,6.6700 ,0.51082 ,4.75439 ,46.65010 
37 ,6.8618 ,0.51280 ,4.74413 ,46.54937 
38 ,7.0382 ,0.51460 ,4.70648 ,46.18001 
39 ,7.2302 ,0.51648 ,4.70990 ,46.21359 
40 ,7.3902 ,0.51819 ,4.68253 ,45.94496 
41 ,7.5664 ,0.51981 ,4.67911 ,45.91138 
42 ,7.7745 ,0.52186 ,4.66199 ,45.74349 
43 ,7.9501 ,0.52376 ,4.63462 ,45.47486 
44 ,8.1265 ,0.52541 ,4.62777 ,45.40771 
45 ,8.3188 ,0.52737 ,4.60040 ,45.13908 
46 ,8.4945 ,0.52912 ,4.59355 ,45.07192 
47 ,8.6709 ,0.53087 ,4.58328 ,44.97119 
48 ,8.8470 ,0.53263 ,4.55933 ,44.73614 
49 ,9.0390 ,0.53459 ,4.53195 ,44.46751 
50 ,9.2150 ,0.53634 ,4.52511 ,44.40036 
51 ,9.3912 ,0.53809 ,4.51484 ,44.29962 
52 ,9.5829 ,0.53995 ,4.49089 ,44.06457 
53 ,9.7752 ,0.54193 ,4.47378 ,43.89668 
54 ,9.9675 ,0.54378 ,4.46009 ,43.76237 
55 ,10.1431 ,0.54559 ,4.44982 ,43.66163 
56 ,10.3515 ,0.54759 ,4.42244 ,43.39301 
57 ,10.5432 ,0.54960 ,4.41560 ,43.32585 
58 ,10.7196 ,0.55134 ,4.39164 ,43.09080 
59 ,10.9277 ,0.55335 ,4.38138 ,42.99007 
60 ,11.1195 ,0.55526 ,4.35742 ,42.75502 
61 ,11.2959 ,0.55714 ,4.34373 ,42.62071 
62 ,11.4881 ,0.55909 ,4.32662 ,42.45282 
63 ,11.6642 ,0.56082 ,4.32662 ,42.45282 
64 ,11.8558 ,0.56269 ,4.29240 ,42.11703 
65 ,12.0318 ,0.56450 ,4.29240 ,42.11703 
66 ,12.2080 ,0.56628 ,4.28213 ,42.01630 
67 ,12.4005 ,0.56814 ,4.24791 ,41.68051 
68 ,12.5924 ,0.57011 ,4.24791 ,41.68051 
69 ,12.7684 ,0.57184 ,4.22738 ,41.47905 
70 ,12.9606 ,0.57374 ,4.18974 ,41.10968 
71 ,13.1366 ,0.57555 ,4.17262 ,40.94179 
72 ,13.3123 ,0.57725 ,4.19658 ,41.17684 
73 ,13.4889 ,0.57900 ,4.15209 ,40.74032 
74 ,13.6809 ,0.58097 ,4.13498 ,40.57243 
75 ,13.8570 ,0.58276 ,4.11787 ,40.40454 
76 ,14.0331 ,0.58448 ,4.10418 ,40.27023 
77 ,14.2252 ,0.58637 ,4.09049 ,40.13591 
78 ,14.4012 ,0.58818 ,4.07680 ,40.00160 
79 ,14.5774 ,0.58989 ,4.06654 ,39.90087 
80 ,14.7695 ,0.59178 ,4.06654 ,39.90087 
81 ,14.9616 ,0.59378 ,4.02889 ,39.53150 
82 ,15.1373 ,0.59556 ,3.99809 ,39.22930 
83 ,15.3293 ,0.59735 ,4.00494 ,39.29646 
84 ,15.4896 ,0.59914 ,3.99467 ,39.19572 
85 ,15.6657 ,0.60079 ,3.98441 ,39.09499 
86 ,15.8578 ,0.60264 ,3.96045 ,38.85994 
87 ,16.0499 ,0.60468 ,3.94334 ,38.69205 
88 ,16.2259 ,0.60639 ,3.92623 ,38.52415 
89 ,16.4021 ,0.60819 ,3.91254 ,38.38984 
90 ,16.6103 ,0.61021 ,3.89201 ,38.18837 
91 ,16.7859 ,0.61198 ,3.89885 ,38.25553 
92 ,16.9622 ,0.61373 ,3.85094 ,37.78543 
93 ,17.1543 ,0.61567 ,3.84067 ,37.68470 
94 ,17.3304 ,0.61744 ,3.84752 ,37.75185 
95 ,17.5064 ,0.61924 ,3.82356 ,37.51681 
96 ,17.6986 ,0.62112 ,3.79276 ,37.21460 
97 ,17.8746 ,0.62289 ,3.77565 ,37.04671 
98 ,18.0668 ,0.62469 ,3.78592 ,37.14744 
99 ,18.2428 ,0.62659 ,3.76539 ,36.94597 
100 ,18.4026 ,0.62826 ,3.73117 ,36.61019 
101 ,18.5788 ,0.62996 ,3.72432 ,36.54303 
102 ,18.7709 ,0.63187 ,3.71405 ,36.44230 
103 ,18.9631 ,0.63376 ,3.69694 ,36.27441 
104 ,19.1551 ,0.63573 ,3.67641 ,36.07294 
105 ,19.3313 ,0.63746 ,3.66272 ,35.93863 
106 ,19.5235 ,0.63930 ,3.64561 ,35.77073 
107 ,19.7311 ,0.64135 ,3.64219 ,35.73716 
108 ,19.9074 ,0.64319 ,3.62508 ,35.56926 
109 ,20.0996 ,0.64510 ,3.59086 ,35.23348 
110 ,20.2757 ,0.64694 ,3.57032 ,35.03201 
111 ,20.4677 ,0.64880 ,3.57032 ,35.03201 
112 ,20.6438 ,0.65055 ,3.55663 ,34.89770 
113 ,20.8196 ,0.65234 ,3.53952 ,34.72981 
114 ,20.9958 ,0.65406 ,3.51899 ,34.52834 
115 ,21.1881 ,0.65593 ,3.51557 ,34.49476 
116 ,21.3641 ,0.65782 ,3.47792 ,34.12540 
117 ,21.5403 ,0.65951 ,3.47450 ,34.09182 
118 ,21.7164 ,0.66132 ,3.45397 ,33.89035 
119 ,21.8921 ,0.66304 ,3.44370 ,33.78961 
120 ,22.0843 ,0.66494 ,3.43344 ,33.68888 
121 ,22.2601 ,0.66669 ,3.41975 ,33.55457 
122 ,22.4362 ,0.66845 ,3.39237 ,33.28594 
123 ,22.6124 ,0.67021 ,3.38895 ,33.25236 
124 ,22.7887 ,0.67202 ,3.39579 ,33.31952 
125 ,22.9646 ,0.67371 ,3.37868 ,33.15163 
126 ,23.1568 ,0.67562 ,3.34446 ,32.81584 
127 ,23.3330 ,0.67747 ,3.33419 ,32.71511 
128 ,23.5089 ,0.67924 ,3.33077 ,32.68153 
129 ,23.6847 ,0.68094 ,3.31024 ,32.48006 
130 ,23.8611 ,0.68270 ,3.29313 ,32.31217 
131 ,24.0372 ,0.68445 ,3.26575 ,32.04354 
132 ,24.2292 ,0.68642 ,3.25891 ,31.97639 
133 ,24.4052 ,0.68814 ,3.25206 ,31.90923 
134 ,24.5813 ,0.68995 ,3.23153 ,31.70776 
135 ,24.7572 ,0.69173 ,3.22468 ,31.64060 
136 ,24.9335 ,0.69343 ,3.19731 ,31.37198 
137 ,25.1097 ,0.69521 ,3.19388 ,31.33840 
138 ,25.3017 ,0.69712 ,3.17335 ,31.13693 
139 ,25.4779 ,0.69885 ,3.14940 ,30.90188 
140 ,25.6700 ,0.70076 ,3.15624 ,30.96904 
141 ,25.8459 ,0.70257 ,3.13571 ,30.76757 
142 ,26.0219 ,0.70431 ,3.12544 ,30.66683 
143 ,26.1981 ,0.70611 ,3.10491 ,30.46536 
144 ,26.3741 ,0.70780 ,3.09806 ,30.39821 
145 ,26.5503 ,0.70963 ,3.07069 ,30.12958 
146 ,26.7264 ,0.71136 ,3.07069 ,30.12958 
147 ,26.9186 ,0.71323 ,3.03304 ,29.76022 
148 ,27.1103 ,0.71519 ,3.04331 ,29.86095 
149 ,27.2864 ,0.71703 ,3.02278 ,29.65948 
150 ,27.4948 ,0.71897 ,2.99540 ,29.39086 
151 ,27.6864 ,0.72097 ,2.98855 ,29.32370 
152 ,27.8630 ,0.72271 ,2.98513 ,29.29012 
153 ,28.0708 ,0.72474 ,2.95776 ,29.02150 
154 ,28.2469 ,0.72653 ,2.94407 ,28.88718 
155 ,28.4230 ,0.72833 ,2.93038 ,28.75287 
156 ,28.5992 ,0.73009 ,2.90985 ,28.55140 
157 ,28.7913 ,0.73198 ,2.89273 ,28.38351 
158 ,28.9671 ,0.73376 ,2.88247 ,28.28277 
159 ,29.1434 ,0.73556 ,2.87220 ,28.18204 
160 ,29.3035 ,0.73723 ,2.84825 ,27.94699 
161 ,29.4795 ,0.73891 ,2.83456 ,27.81268 
162 ,29.6556 ,0.74063 ,2.81402 ,27.61121 
163 ,29.8638 ,0.74257 ,2.81745 ,27.64479 
164 ,30.0399 ,0.74452 ,2.80376 ,27.51047 
165 ,30.2319 ,0.74641 ,2.77296 ,27.20827 
166 ,30.3918 ,0.74811 ,2.77296 ,27.20827 
167 ,30.5680 ,0.74975 ,2.76269 ,27.10753 
168 ,30.7440 ,0.75155 ,2.75243 ,27.00680 
169 ,30.9362 ,0.75347 ,2.72163 ,26.70459 
170 ,31.1599 ,0.75552 ,2.70452 ,26.53670 
171 ,31.3363 ,0.75745 ,2.68740 ,26.36881 
172 ,31.5281 ,0.75928 ,2.69083 ,26.40239 
173 ,31.7207 ,0.76124 ,2.65660 ,26.06661 
174 ,31.8965 ,0.76310 ,2.64634 ,25.96587 
175 ,32.0727 ,0.76481 ,2.62923 ,25.79798 
176 ,32.2807 ,0.76686 ,2.62238 ,25.73082 
177 ,32.4564 ,0.76861 ,2.59843 ,25.49577 
178 ,32.6329 ,0.77041 ,2.57789 ,25.29430 
179 ,32.8249 ,0.77232 ,2.58132 ,25.32788 
180 ,33.0329 ,0.77425 ,2.54367 ,24.95852 
181 ,33.2092 ,0.77613 ,2.54367 ,24.95852 
182 ,33.3851 ,0.77793 ,2.53341 ,24.85779 
183 ,33.5613 ,0.77978 ,2.50261 ,24.55558 
184 ,33.7372 ,0.78147 ,2.50603 ,24.58916 
185 ,33.9295 ,0.78336 ,2.48892 ,24.42127 
186 ,34.1053 ,0.78513 ,2.47865 ,24.32053 
187 ,34.2976 ,0.78695 ,2.47181 ,24.25338 
188 ,34.4896 ,0.78887 ,2.43416 ,23.88402 
189 ,34.6656 ,0.79071 ,2.43074 ,23.85044 
190 ,34.8418 ,0.79255 ,2.41363 ,23.68255 
191 ,35.0176 ,0.79424 ,2.39994 ,23.54823 
192 ,35.1940 ,0.79599 ,2.37941 ,23.34676 
193 ,35.3699 ,0.79779 ,2.37256 ,23.27961 
194 ,35.5621 ,0.79973 ,2.37599 ,23.31318 
195 ,35.7540 ,0.80152 ,2.33492 ,22.91024 
196 ,35.9302 ,0.80338 ,2.32123 ,22.77593 
197 ,36.1222 ,0.80521 ,2.31097 ,22.67520 
198 ,36.2984 ,0.80703 ,2.30070 ,22.57446 
199 ,36.5063 ,0.80913 ,2.29385 ,22.50731 
200 ,36.6822 ,0.81090 ,2.26990 ,22.27226 
201 ,36.8586 ,0.81269 ,2.26306 ,22.20510 
202 ,37.0667 ,0.81466 ,2.23226 ,21.90290 
203 ,37.2427 ,0.81652 ,2.21515 ,21.73500 
204 ,37.4191 ,0.81827 ,2.20830 ,21.66785 
205 ,37.5949 ,0.82004 ,2.19461 ,21.53353 
206 ,37.7544 ,0.82174 ,2.16381 ,21.23133 
207 ,37.9466 ,0.82345 ,2.16723 ,21.26491 
208 ,38.1227 ,0.82530 ,2.15697 ,21.16417 
209 ,38.2990 ,0.82708 ,2.14670 ,21.06344 
210 ,38.5232 ,0.82925 ,2.11932 ,20.79481 
211 ,38.6992 ,0.83101 ,2.10906 ,20.69408 
212 ,38.8751 ,0.83280 ,2.08852 ,20.49261 
213 ,39.0515 ,0.83455 ,2.06457 ,20.25756 
214 ,39.2273 ,0.83633 ,2.06115 ,20.22398 
215 ,39.4355 ,0.83833 ,2.06457 ,20.25756 
216 ,39.6275 ,0.84034 ,2.02693 ,19.88820 
217 ,39.8038 ,0.84207 ,2.02350 ,19.85462 
218 ,39.9958 ,0.84401 ,2.01324 ,19.75388 
219 ,40.1880 ,0.84585 ,1.98586 ,19.48526 
220 ,40.4116 ,0.84808 ,1.96533 ,19.28379 
221 ,40.5881 ,0.84989 ,1.95848 ,19.21663 
222 ,40.7960 ,0.85193 ,1.93111 ,18.94801 
223 ,40.9879 ,0.85395 ,1.92084 ,18.84727 
224 ,41.1641 ,0.85569 ,1.92426 ,18.88085 
225 ,41.3564 ,0.85758 ,1.88319 ,18.47791 
226 ,41.5483 ,0.85949 ,1.89004 ,18.54507 
227 ,41.7407 ,0.86136 ,1.86266 ,18.27644 
228 ,41.9325 ,0.86328 ,1.84897 ,18.14213 
229 ,42.1087 ,0.86515 ,1.83186 ,17.97423 
230 ,42.3170 ,0.86722 ,1.82844 ,17.94066 
231 ,42.5250 ,0.86927 ,1.81475 ,17.80634 
232 ,42.7008 ,0.87108 ,1.80106 ,17.67203 
233 ,42.8770 ,0.87277 ,1.77711 ,17.43698 
234 ,43.0528 ,0.87456 ,1.76342 ,17.30267 
235 ,43.2293 ,0.87636 ,1.75657 ,17.23551 
236 ,43.4212 ,0.87825 ,1.74289 ,17.10120 
237 ,43.5974 ,0.88003 ,1.72578 ,16.93331 
238 ,43.7734 ,0.88178 ,1.69840 ,16.66468 
239 ,43.9655 ,0.88369 ,1.69498 ,16.63110 
240 ,44.1571 ,0.88561 ,1.68813 ,16.56395 
241 ,44.3335 ,0.88736 ,1.66760 ,16.36248 
242 ,44.5258 ,0.88923 ,1.65391 ,16.22816 
243 ,44.7018 ,0.89105 ,1.64707 ,16.16101 
244 ,44.8779 ,0.89280 ,1.64022 ,16.09385 
245 ,45.0696 ,0.89468 ,1.60942 ,15.79164 
246 ,45.2457 ,0.89644 ,1.59573 ,15.65733 
247 ,45.4220 ,0.89826 ,1.59573 ,15.65733 
248 ,45.5979 ,0.90003 ,1.58204 ,15.52302 
249 ,45.7743 ,0.90175 ,1.55124 ,15.22081 
250 ,45.9664 ,0.90367 ,1.54440 ,15.15366 
251 ,46.1424 ,0.90546 ,1.54098 ,15.12008 
252 ,46.3186 ,0.90723 ,1.53413 ,15.05292 
253 ,46.5106 ,0.90905 ,1.51018 ,14.81787 
254 ,46.7026 ,0.91105 ,1.49649 ,14.68356 
255 ,46.8788 ,0.91282 ,1.48965 ,14.61640 
256 ,47.0708 ,0.91473 ,1.46569 ,14.38136 
257 ,47.2468 ,0.91647 ,1.44174 ,14.14631 
258 ,47.4229 ,0.91820 ,1.45885 ,14.31420 
259 ,47.5989 ,0.92004 ,1.44516 ,14.17989 
260 ,47.7749 ,0.92171 ,1.41094 ,13.84410 
261 ,47.9510 ,0.92355 ,1.40409 ,13.77695 
262 ,48.1272 ,0.92527 ,1.39040 ,13.64263 
263 ,48.3032 ,0.92705 ,1.36987 ,13.44116 
264 ,48.4633 ,0.92875 ,1.37671 ,13.50832 
265 ,48.6394 ,0.93043 ,1.36303 ,13.37401 
266 ,48.8153 ,0.93221 ,1.34591 ,13.20612 
267 ,48.9915 ,0.93394 ,1.32196 ,12.97107 
268 ,49.1835 ,0.93582 ,1.30827 ,12.83675 
269 ,49.3597 ,0.93765 ,1.31854 ,12.93749 
270 ,49.5516 ,0.93948 ,1.27747 ,12.53455 
271 ,49.7279 ,0.94126 ,1.26720 ,12.43381 
272 ,49.9038 ,0.94308 ,1.27063 ,12.46739 
273 ,50.0958 ,0.94486 ,1.25694 ,12.33308 
274 ,50.2720 ,0.94676 ,1.23641 ,12.13161 
275 ,50.4477 ,0.94848 ,1.21245 ,11.89656 
276 ,50.6241 ,0.95022 ,1.21929 ,11.96372 
277 ,50.7999 ,0.95202 ,1.20561 ,11.82941 
278 ,50.9764 ,0.95375 ,1.20903 ,11.86298 
279 ,51.1521 ,0.95557 ,1.18507 ,11.62794 
280 ,51.3285 ,0.95732 ,1.15770 ,11.35931 
281 ,51.5205 ,0.95920 ,1.16796 ,11.46004 
282 ,51.6967 ,0.96095 ,1.15427 ,11.32573 
283 ,51.8726 ,0.96276 ,1.13374 ,11.12426 
284 ,52.0488 ,0.96448 ,1.10636 ,10.85563 
285 ,52.2406 ,0.96640 ,1.11321 ,10.92279 
286 ,52.4169 ,0.96823 ,1.09267 ,10.72132 
287 ,52.5930 ,0.96995 ,1.08583 ,10.65416 
288 ,52.7689 ,0.97164 ,1.05845 ,10.38554 
289 ,52.9612 ,0.97362 ,1.06187 ,10.41912 
290 ,53.1530 ,0.97550 ,1.04134 ,10.21765 
291 ,53.3293 ,0.97726 ,1.02765 ,10.08333 
292 ,53.5212 ,0.97913 ,1.03108 ,10.11691 
293 ,53.6970 ,0.98098 ,1.01739 ,9.98260 
294 ,53.8735 ,0.98274 ,1.00370 ,9.84829 
295 ,54.0495 ,0.98449 ,0.97974 ,9.61324 
296 ,54.2255 ,0.98623 ,0.95579 ,9.37819 
297 ,54.3857 ,0.98795 ,0.95579 ,9.37819 
298 ,54.5619 ,0.98958 ,0.94894 ,9.31103 
299 ,54.7536 ,0.99158 ,0.94210 ,9.24388 
300 ,54.9459 ,0.99334 ,0.91130 ,8.94167 
301 ,55.1380 ,0.99532 ,0.92841 ,9.10956 
302 ,55.3302 ,0.99729 ,0.89419 ,8.77378 
303 ,55.5222 ,0.99915 ,0.89419 ,8.77378 
304 ,55.6983 ,1.00096 ,0.88734 ,8.70662 
305 ,55.8903 ,1.00287 ,0.85997 ,8.43800 
306 ,56.0665 ,1.00461 ,0.85312 ,8.37084 
307 ,56.2586 ,1.00659 ,0.84286 ,8.27011 
308 ,56.4346 ,1.00834 ,0.83943 ,8.23653 
309 ,56.6428 ,1.01039 ,0.81548 ,8.00148 
310 ,56.8348 ,1.01233 ,0.80521 ,7.90074 
311 ,57.0270 ,1.01420 ,0.77441 ,7.59854 
312 ,57.2510 ,1.01638 ,0.76757 ,7.53138 
313 ,57.4269 ,1.01826 ,0.75388 ,7.39707 
314 ,57.6032 ,1.02000 ,0.75046 ,7.36349 
315 ,57.7949 ,1.02183 ,0.73677 ,7.22918 
316 ,57.9549 ,1.02363 ,0.73677 ,7.22918 
317 ,58.1313 ,1.02529 ,0.73335 ,7.19560 
318 ,58.3073 ,1.02704 ,0.69228 ,6.79266 
319 ,58.5154 ,1.02911 ,0.67859 ,6.65835 
320 ,58.6915 ,1.03089 ,0.68201 ,6.69193 
321 ,58.8836 ,1.03277 ,0.68201 ,6.69193 
322 ,59.0596 ,1.03454 ,0.65121 ,6.38972 
323 ,59.2359 ,1.03631 ,0.65464 ,6.42330 
324 ,59.4118 ,1.03813 ,0.64437 ,6.32256 
325 ,59.6200 ,1.04001 ,0.62384 ,6.12109 
326 ,59.7959 ,1.04196 ,0.60673 ,5.95320 
327 ,59.9880 ,1.04384 ,0.58619 ,5.75173 
328 ,60.1637 ,1.04559 ,0.57593 ,5.65100 
329 ,60.3400 ,1.04737 ,0.56908 ,5.58384 
330 ,60.5322 ,1.04932 ,0.56566 ,5.55026 
331 ,60.7403 ,1.05134 ,0.55882 ,5.48311 
332 ,60.9163 ,1.05317 ,0.54513 ,5.34879 
333 ,61.0924 ,1.05491 ,0.53828 ,5.28164 
334 ,61.2686 ,1.05667 ,0.51433 ,5.04659 
335 ,61.4925 ,1.05875 ,0.51433 ,5.04659 
336 ,61.6685 ,1.06066 ,0.49037 ,4.81154 
337 ,61.8446 ,1.06238 ,0.47326 ,4.64365 
338 ,62.0208 ,1.06419 ,0.46642 ,4.57649 
339 ,62.1966 ,1.06591 ,0.46642 ,4.57649 
340 ,62.3730 ,1.06769 ,0.45273 ,4.44218 
341 ,62.5490 ,1.06950 ,0.44931 ,4.40860 
342 ,62.7252 ,1.07122 ,0.41509 ,4.07282 
343 ,62.9173 ,1.07313 ,0.42535 ,4.17355 
344 ,63.0934 ,1.07492 ,0.41509 ,4.07282 
345 ,63.2691 ,1.07677 ,0.38086 ,3.73703 
346 ,63.4452 ,1.07847 ,0.38429 ,3.77061 
347 ,63.6375 ,1.08030 ,0.37744 ,3.70346 
348 ,63.8137 ,1.08210 ,0.35691 ,3.50199 
349 ,64.0056 ,1.08394 ,0.35691 ,3.50199 
350 ,64.1978 ,1.08588 ,0.33295 ,3.26694 
351 ,64.4058 ,1.08786 ,0.31584 ,3.09905 
352 ,64.5819 ,1.08977 ,0.31242 ,3.06547 
353 ,64.7579 ,1.09155 ,0.29531 ,2.89758 
354 ,64.9341 ,1.09339 ,0.30215 ,2.96473 
355 ,65.1261 ,1.09515 ,0.28162 ,2.76326 
356 ,65.3023 ,1.09700 ,0.27478 ,2.69611 
357 ,65.4941 ,1.09882 ,0.26793 ,2.62895 
358 ,65.6703 ,1.10064 ,0.26109 ,2.56179 
359 ,65.8464 ,1.10238 ,0.23371 ,2.29317 
360 ,66.0386 ,1.10435 ,0.23029 ,2.25959 
361 ,66.2306 ,1.10626 ,0.23371 ,2.29317 
362 ,66.4066 ,1.10798 ,0.20976 ,2.05812 
363 ,66.5828 ,1.10980 ,0.18922 ,1.85665 
364 ,66.7749 ,1.11163 ,0.20291 ,1.99096 
365 ,66.9668 ,1.11359 ,0.18238 ,1.78949 
366 ,67.1429 ,1.11538 ,0.15500 ,1.52087 
367 ,67.3193 ,1.11716 ,0.15158 ,1.48729 
368 ,67.4950 ,1.11886 ,0.14473 ,1.42013 
369 ,67.6872 ,1.12083 ,0.14131 ,1.38655 
370 ,67.8633 ,1.12258 ,0.12762 ,1.25224 
371 ,68.0391 ,1.12433 ,0.10367 ,1.01719 
372 ,68.2315 ,1.12617 ,0.10709 ,1.05077 
373 ,68.4235 ,1.12816 ,0.08314 ,0.81572 
374 ,68.5994 ,1.12994 ,0.06602 ,0.64783 
375 ,68.7917 ,1.13187 ,0.07287 ,0.71499 
376 ,68.9837 ,1.13383 ,0.04891 ,0.47994 
377 ,69.1759 ,1.13568 ,0.04891 ,0.47994 
378 ,69.3519 ,1.13749 ,0.04549 ,0.44636 
379 ,69.5440 ,1.13931 ,0.03522 ,0.34563 
380 ,69.7357 ,1.14131 ,0.01469 ,0.14416 
381 ,69.9122 ,1.14306 ,0.02496 ,0.24489 
382 ,70.1201 ,1.14498 ,-0.01269 ,-0.12447 
383 ,70.3286 ,1.14726 ,0.00100 ,0.00984 
384 ,70.5043 ,1.14901 ,-0.01953 ,-0.19163 
385 ,70.6965 ,1.15087 ,-0.04691 ,-0.46025 
386 ,70.8725 ,1.15269 ,-0.04006 ,-0.39310 
387 ,71.0647 ,1.15460 ,-0.04691 ,-0.46025 
388 ,71.2567 ,1.15648 ,-0.06744 ,-0.66172 
389 ,71.4328 ,1.15823 ,-0.07771 ,-0.76246 
390 ,71.6089 ,1.16003 ,-0.08455 ,-0.82961 
391 ,71.7846 ,1.16175 ,-0.10166 ,-0.99751 
392 ,71.9612 ,1.16355 ,-0.10851 ,-1.06466 
393 ,72.1529 ,1.16551 ,-0.12562 ,-1.23255 
394 ,72.3449 ,1.16734 ,-0.12562 ,-1.23255 
395 ,72.5215 ,1.16915 ,-0.15299 ,-1.50118 
396 ,72.7134 ,1.17104 ,-0.14615 ,-1.43402 
397 ,72.8890 ,1.17282 ,-0.15299 ,-1.50118 
398 ,73.0655 ,1.17456 ,-0.16326 ,-1.60191 
399 ,73.2414 ,1.17635 ,-0.17011 ,-1.66907 
400 ,73.4178 ,1.17810 ,-0.19748 ,-1.93770 
401 ,73.6095 ,1.17996 ,-0.19406 ,-1.90412 
402 ,73.8018 ,1.18182 ,-0.20090 ,-1.97128 
403 ,73.9935 ,1.18380 ,-0.21802 ,-2.13917 
404 ,74.1699 ,1.18556 ,-0.22828 ,-2.23990 
405 ,74.3779 ,1.18763 ,-0.25224 ,-2.47495 
406 ,74.5540 ,1.18950 ,-0.26593 ,-2.60926 
407 ,74.7460 ,1.19139 ,-0.25224 ,-2.47495 
408 ,74.9383 ,1.19318 ,-0.26593 ,-2.60926 
409 ,75.1143 ,1.19518 ,-0.28988 ,-2.84431 
410 ,75.3063 ,1.19690 ,-0.28988 ,-2.84431 
411 ,75.4823 ,1.19874 ,-0.30357 ,-2.97863 
412 ,75.6585 ,1.20044 ,-0.31726 ,-3.11294 
413 ,75.8666 ,1.20251 ,-0.32068 ,-3.14652 
414 ,76.0426 ,1.20433 ,-0.32752 ,-3.21367 
415 ,76.2189 ,1.20614 ,-0.35148 ,-3.44872 
416 ,76.4270 ,1.20810 ,-0.34806 ,-3.41514 
417 ,76.6189 ,1.21002 ,-0.35490 ,-3.48230 
418 ,76.8272 ,1.21209 ,-0.36517 ,-3.58303 
419 ,77.0190 ,1.21403 ,-0.36517 ,-3.58303 
420 ,77.2110 ,1.21600 ,-0.40281 ,-3.95240 
421 ,77.3871 ,1.21776 ,-0.39939 ,-3.91882 
422 ,77.5631 ,1.21952 ,-0.40966 ,-4.01955 
423 ,77.7394 ,1.22132 ,-0.42677 ,-4.18744 
424 ,77.9314 ,1.22312 ,-0.44388 ,-4.35534 
425 ,78.1234 ,1.22513 ,-0.43361 ,-4.25460 
426 ,78.2995 ,1.22690 ,-0.46441 ,-4.55681 
427 ,78.4754 ,1.22863 ,-0.47126 ,-4.62396 
428 ,78.6517 ,1.23041 ,-0.47468 ,-4.65754 
429 ,78.8436 ,1.23247 ,-0.47810 ,-4.69112 
430 ,79.0197 ,1.23407 ,-0.48837 ,-4.79185 
431 ,79.1956 ,1.23582 ,-0.51232 ,-5.02690 
432 ,79.3718 ,1.23758 ,-0.51917 ,-5.09406 
433 ,79.5641 ,1.23951 ,-0.51232 ,-5.02690 
434 ,79.7559 ,1.24149 ,-0.52259 ,-5.12764 
435 ,79.9322 ,1.24319 ,-0.54654 ,-5.36268 
436 ,80.1242 ,1.24503 ,-0.54997 ,-5.39626 
437 ,80.3000 ,1.24703 ,-0.57050 ,-5.59773 
438 ,80.4764 ,1.24870 ,-0.56023 ,-5.49700 
439 ,80.6683 ,1.25057 ,-0.57050 ,-5.59773 
440 ,80.8443 ,1.25232 ,-0.57392 ,-5.63131 
441 ,81.0366 ,1.25424 ,-0.58761 ,-5.76562 
442 ,81.2128 ,1.25605 ,-0.60814 ,-5.96709 
443 ,81.4044 ,1.25799 ,-0.61499 ,-6.03425 
444 ,81.5968 ,1.25978 ,-0.60472 ,-5.93352 
445 ,81.7889 ,1.26176 ,-0.64921 ,-6.37003 
446 ,81.9650 ,1.26354 ,-0.63210 ,-6.20214 
447 ,82.1570 ,1.26542 ,-0.63894 ,-6.26930 
448 ,82.3488 ,1.26729 ,-0.66974 ,-6.57150 
449 ,82.5250 ,1.26911 ,-0.67316 ,-6.60508 
450 ,82.7014 ,1.27090 ,-0.66632 ,-6.53793 
451 ,82.8934 ,1.27275 ,-0.68685 ,-6.73940 
452 ,83.0694 ,1.27462 ,-0.71081 ,-6.97444 
453 ,83.2612 ,1.27651 ,-0.69712 ,-6.84013 
454 ,83.4376 ,1.27823 ,-0.71081 ,-6.97444 
455 ,83.6136 ,1.28007 ,-0.73476 ,-7.20949 
456 ,83.8220 ,1.28205 ,-0.71765 ,-7.04160 
457 ,83.9978 ,1.28386 ,-0.72792 ,-7.14233 
458 ,84.1899 ,1.28581 ,-0.76556 ,-7.51170 
459 ,84.3656 ,1.28753 ,-0.76898 ,-7.54527 
460 ,84.5577 ,1.28944 ,-0.76214 ,-7.47812 
461 ,84.7340 ,1.29121 ,-0.77925 ,-7.64601 
462 ,84.9102 ,1.29297 ,-0.80321 ,-7.88106 
463 ,85.1019 ,1.29486 ,-0.79294 ,-7.78032 
