Data stamp = , 06-04-2022 00:48:43 039

Calibration Values: 
Slope = , 26.54 , g/V 
Offset Voltage at no contact = , -0.501760 , V 

No , Time , Stage Position ,   Mass , Force 
   ,  (s) ,      (mm)      ,   (g)  , (mN)  

1 ,0.0000 ,0.44936 ,5.23692 ,51.38464 
2 ,0.2182 ,0.44944 ,5.23007 ,51.31749 
3 ,0.6827 ,0.45078 ,5.22323 ,51.25033 
4 ,0.8904 ,0.45299 ,5.24376 ,51.45180 
5 ,1.0989 ,0.45498 ,5.21639 ,51.18317 
6 ,1.2910 ,0.45697 ,5.22665 ,51.28391 
7 ,1.4989 ,0.45891 ,5.23350 ,51.35107 
8 ,1.6751 ,0.46082 ,5.20954 ,51.11602 
9 ,1.8513 ,0.46263 ,5.21981 ,51.21675 
10 ,2.0273 ,0.46439 ,5.18559 ,50.88097 
11 ,2.2193 ,0.46620 ,5.17532 ,50.78023 
12 ,2.3952 ,0.46801 ,5.16848 ,50.71308 
13 ,2.5715 ,0.46981 ,5.16848 ,50.71308 
14 ,2.7476 ,0.47162 ,5.14452 ,50.47803 
15 ,2.9234 ,0.47341 ,5.14110 ,50.44445 
16 ,3.0998 ,0.47509 ,5.11714 ,50.20940 
17 ,3.2918 ,0.47706 ,5.10688 ,50.10867 
18 ,3.4680 ,0.47876 ,5.08634 ,49.90720 
19 ,3.6757 ,0.48080 ,5.07608 ,49.80646 
20 ,3.8521 ,0.48267 ,5.05897 ,49.63857 
21 ,4.0601 ,0.48462 ,5.03843 ,49.43710 
22 ,4.2523 ,0.48658 ,5.02132 ,49.26921 
23 ,4.4282 ,0.48840 ,4.99052 ,48.96701 
24 ,4.6047 ,0.49023 ,4.98368 ,48.89985 
25 ,4.7801 ,0.49198 ,4.98368 ,48.89985 
26 ,4.9565 ,0.49363 ,4.95972 ,48.66480 
27 ,5.1326 ,0.49542 ,4.94603 ,48.53049 
28 ,5.3246 ,0.49729 ,4.91181 ,48.19471 
29 ,5.5007 ,0.49913 ,4.90155 ,48.09397 
30 ,5.6607 ,0.50082 ,4.89470 ,48.02681 
31 ,5.8204 ,0.50242 ,4.88786 ,47.95966 
32 ,5.9967 ,0.50410 ,4.86732 ,47.75819 
33 ,6.2046 ,0.50612 ,4.83310 ,47.42240 
34 ,6.3806 ,0.50789 ,4.82284 ,47.32167 
35 ,6.5566 ,0.50963 ,4.80915 ,47.18736 
36 ,6.7327 ,0.51141 ,4.80915 ,47.18736 
37 ,6.9088 ,0.51319 ,4.77150 ,46.81800 
38 ,7.0854 ,0.51493 ,4.75439 ,46.65010 
39 ,7.2933 ,0.51698 ,4.74413 ,46.54937 
40 ,7.4694 ,0.51879 ,4.71675 ,46.28074 
41 ,7.6455 ,0.52058 ,4.70306 ,46.14643 
42 ,7.8374 ,0.52249 ,4.70306 ,46.14643 
43 ,8.0133 ,0.52424 ,4.67568 ,45.87780 
44 ,8.1897 ,0.52597 ,4.66542 ,45.77707 
45 ,8.3658 ,0.52775 ,4.62777 ,45.40771 
46 ,8.5578 ,0.52953 ,4.63119 ,45.44128 
47 ,8.7500 ,0.53147 ,4.62777 ,45.40771 
48 ,8.9420 ,0.53352 ,4.59697 ,45.10550 
49 ,9.1339 ,0.53539 ,4.59355 ,45.07192 
50 ,9.3259 ,0.53733 ,4.55591 ,44.70256 
51 ,9.5024 ,0.53912 ,4.54906 ,44.63541 
52 ,9.6944 ,0.54102 ,4.53537 ,44.50109 
53 ,9.8864 ,0.54294 ,4.49773 ,44.13173 
54 ,10.0781 ,0.54483 ,4.50800 ,44.23247 
55 ,10.2545 ,0.54661 ,4.49089 ,44.06457 
56 ,10.4467 ,0.54846 ,4.46009 ,43.76237 
57 ,10.6384 ,0.55048 ,4.45666 ,43.72879 
58 ,10.8146 ,0.55224 ,4.44640 ,43.62806 
59 ,10.9908 ,0.55394 ,4.41560 ,43.32585 
60 ,11.1667 ,0.55571 ,4.39507 ,43.12438 
61 ,11.3591 ,0.55763 ,4.39164 ,43.09080 
62 ,11.5511 ,0.55963 ,4.37795 ,42.95649 
63 ,11.7430 ,0.56154 ,4.33689 ,42.55355 
64 ,11.9192 ,0.56330 ,4.34031 ,42.58713 
65 ,12.0951 ,0.56502 ,4.33004 ,42.48639 
66 ,12.2713 ,0.56676 ,4.29924 ,42.18419 
67 ,12.4471 ,0.56855 ,4.28556 ,42.04988 
68 ,12.6231 ,0.57027 ,4.25818 ,41.78125 
69 ,12.7992 ,0.57208 ,4.25818 ,41.78125 
70 ,12.9769 ,0.57385 ,4.24791 ,41.68051 
71 ,13.1837 ,0.57584 ,4.21711 ,41.37831 
72 ,13.3597 ,0.57772 ,4.21369 ,41.34473 
73 ,13.5359 ,0.57938 ,4.19658 ,41.17684 
74 ,13.7118 ,0.58120 ,4.18974 ,41.10968 
75 ,13.9036 ,0.58304 ,4.14867 ,40.70674 
76 ,14.0800 ,0.58487 ,4.14183 ,40.63959 
77 ,14.2560 ,0.58664 ,4.13498 ,40.57243 
78 ,14.4322 ,0.58836 ,4.11445 ,40.37096 
79 ,14.6083 ,0.59012 ,4.09391 ,40.16949 
80 ,14.7844 ,0.59190 ,4.06654 ,39.90087 
81 ,14.9925 ,0.59397 ,4.05969 ,39.83371 
82 ,15.1844 ,0.59583 ,4.05285 ,39.76655 
83 ,15.3606 ,0.59761 ,4.02889 ,39.53150 
84 ,15.5527 ,0.59951 ,4.01863 ,39.43077 
85 ,15.7608 ,0.60159 ,4.02547 ,39.49793 
86 ,15.9364 ,0.60344 ,3.97756 ,39.02783 
87 ,16.1289 ,0.60534 ,3.95703 ,38.82636 
88 ,16.3050 ,0.60713 ,3.94676 ,38.72562 
89 ,16.4967 ,0.60901 ,3.93307 ,38.59131 
90 ,16.6732 ,0.61077 ,3.92281 ,38.49058 
91 ,16.8488 ,0.61257 ,3.91254 ,38.38984 
92 ,17.0248 ,0.61426 ,3.88858 ,38.15479 
93 ,17.2011 ,0.61607 ,3.88858 ,38.15479 
94 ,17.3935 ,0.61800 ,3.86463 ,37.91975 
95 ,17.5853 ,0.61987 ,3.84067 ,37.68470 
96 ,17.7455 ,0.62163 ,3.83041 ,37.58396 
97 ,17.9216 ,0.62327 ,3.80987 ,37.38249 
98 ,18.1136 ,0.62516 ,3.81672 ,37.44965 
99 ,18.2898 ,0.62695 ,3.78592 ,37.14744 
100 ,18.4978 ,0.62894 ,3.77565 ,37.04671 
101 ,18.6737 ,0.63082 ,3.75170 ,36.81166 
102 ,18.8500 ,0.63255 ,3.72090 ,36.50946 
103 ,19.0421 ,0.63439 ,3.72090 ,36.50946 
104 ,19.2502 ,0.63644 ,3.72432 ,36.54303 
105 ,19.4263 ,0.63835 ,3.69010 ,36.20725 
106 ,19.6183 ,0.64025 ,3.66957 ,36.00578 
107 ,19.7942 ,0.64197 ,3.67641 ,36.07294 
108 ,19.9864 ,0.64390 ,3.63192 ,35.63642 
109 ,20.1625 ,0.64564 ,3.63534 ,35.67000 
110 ,20.3545 ,0.64756 ,3.60797 ,35.40137 
111 ,20.5466 ,0.64949 ,3.59086 ,35.23348 
112 ,20.7224 ,0.65125 ,3.57717 ,35.09917 
113 ,20.8988 ,0.65307 ,3.57375 ,35.06559 
114 ,21.1069 ,0.65505 ,3.54637 ,34.79696 
115 ,21.2829 ,0.65686 ,3.52926 ,34.62907 
116 ,21.4590 ,0.65864 ,3.54295 ,34.76338 
117 ,21.6347 ,0.66039 ,3.51557 ,34.49476 
118 ,21.8111 ,0.66215 ,3.48477 ,34.19255 
119 ,22.0031 ,0.66398 ,3.47108 ,34.05824 
120 ,22.1792 ,0.66583 ,3.46766 ,34.02466 
121 ,22.3553 ,0.66755 ,3.46081 ,33.95751 
122 ,22.5314 ,0.66937 ,3.44370 ,33.78961 
123 ,22.7075 ,0.67110 ,3.41633 ,33.52099 
124 ,22.8992 ,0.67295 ,3.40606 ,33.42025 
125 ,23.0754 ,0.67478 ,3.39237 ,33.28594 
126 ,23.2676 ,0.67673 ,3.36157 ,32.98374 
127 ,23.4439 ,0.67845 ,3.35473 ,32.91658 
128 ,23.6198 ,0.68024 ,3.34104 ,32.78227 
129 ,23.7957 ,0.68195 ,3.34446 ,32.81584 
130 ,23.9875 ,0.68390 ,3.29313 ,32.31217 
131 ,24.1638 ,0.68568 ,3.29655 ,32.34575 
132 ,24.3399 ,0.68746 ,3.29655 ,32.34575 
133 ,24.5161 ,0.68915 ,3.28628 ,32.24501 
134 ,24.6923 ,0.69095 ,3.26233 ,32.00996 
135 ,24.8842 ,0.69283 ,3.24864 ,31.87565 
136 ,25.0600 ,0.69461 ,3.22468 ,31.64060 
137 ,25.2364 ,0.69638 ,3.22811 ,31.67418 
138 ,25.4127 ,0.69815 ,3.20073 ,31.40555 
139 ,25.5725 ,0.69986 ,3.17335 ,31.13693 
140 ,25.7487 ,0.70152 ,3.16309 ,31.03619 
141 ,25.9407 ,0.70347 ,3.16309 ,31.03619 
142 ,26.1167 ,0.70518 ,3.13913 ,30.80115 
143 ,26.2928 ,0.70693 ,3.12544 ,30.66683 
144 ,26.4687 ,0.70866 ,3.10149 ,30.43178 
145 ,26.6450 ,0.71046 ,3.08438 ,30.26389 
146 ,26.8370 ,0.71231 ,3.09464 ,30.36463 
147 ,27.0290 ,0.71433 ,3.06042 ,30.02884 
148 ,27.1892 ,0.71604 ,3.03304 ,29.76022 
149 ,27.3814 ,0.71769 ,3.04331 ,29.86095 
150 ,27.5894 ,0.71983 ,3.01593 ,29.59233 
151 ,27.7651 ,0.72167 ,3.00567 ,29.49159 
152 ,27.9414 ,0.72340 ,2.99540 ,29.39086 
153 ,28.1336 ,0.72528 ,2.98513 ,29.29012 
154 ,28.3256 ,0.72723 ,2.95776 ,29.02150 
155 ,28.5338 ,0.72927 ,2.93038 ,28.75287 
156 ,28.7100 ,0.73114 ,2.93038 ,28.75287 
157 ,28.8858 ,0.73287 ,2.90985 ,28.55140 
158 ,29.0780 ,0.73480 ,2.92011 ,28.65213 
159 ,29.2538 ,0.73652 ,2.88589 ,28.31635 
160 ,29.4303 ,0.73834 ,2.88589 ,28.31635 
161 ,29.6223 ,0.74023 ,2.87220 ,28.18204 
162 ,29.7983 ,0.74201 ,2.85509 ,28.01415 
163 ,29.9905 ,0.74391 ,2.83114 ,27.77910 
164 ,30.1661 ,0.74571 ,2.80376 ,27.51047 
165 ,30.3422 ,0.74742 ,2.80376 ,27.51047 
166 ,30.5185 ,0.74918 ,2.79691 ,27.44332 
167 ,30.6945 ,0.75101 ,2.77980 ,27.27542 
168 ,30.8708 ,0.75273 ,2.75927 ,27.07395 
169 ,31.0787 ,0.75474 ,2.75927 ,27.07395 
170 ,31.2548 ,0.75652 ,2.73189 ,26.80533 
171 ,31.4306 ,0.75829 ,2.71136 ,26.60386 
172 ,31.6070 ,0.76004 ,2.69425 ,26.43597 
173 ,31.7831 ,0.76185 ,2.67714 ,26.26807 
174 ,31.9748 ,0.76370 ,2.67029 ,26.20092 
175 ,32.1513 ,0.76548 ,2.65660 ,26.06661 
176 ,32.3430 ,0.76743 ,2.64292 ,25.93229 
177 ,32.5194 ,0.76918 ,2.62581 ,25.76440 
178 ,32.6955 ,0.77096 ,2.60869 ,25.59651 
179 ,32.8716 ,0.77277 ,2.59501 ,25.46220 
180 ,33.0478 ,0.77452 ,2.57789 ,25.29430 
181 ,33.2397 ,0.77640 ,2.57789 ,25.29430 
182 ,33.4319 ,0.77820 ,2.57105 ,25.22715 
183 ,33.6559 ,0.78039 ,2.52656 ,24.79063 
184 ,33.8319 ,0.78234 ,2.52314 ,24.75705 
185 ,34.0240 ,0.78414 ,2.50261 ,24.55558 
186 ,34.2001 ,0.78597 ,2.49234 ,24.45485 
187 ,34.3763 ,0.78777 ,2.48550 ,24.38769 
188 ,34.5522 ,0.78956 ,2.46839 ,24.21980 
189 ,34.7284 ,0.79123 ,2.45127 ,24.05191 
190 ,34.9203 ,0.79320 ,2.45127 ,24.05191 
191 ,35.0965 ,0.79494 ,2.42048 ,23.74970 
192 ,35.3045 ,0.79696 ,2.41363 ,23.68255 
193 ,35.4966 ,0.79896 ,2.40679 ,23.61539 
194 ,35.6724 ,0.80069 ,2.37941 ,23.34676 
195 ,35.8488 ,0.80249 ,2.35545 ,23.11171 
196 ,36.0568 ,0.80448 ,2.35203 ,23.07814 
197 ,36.2330 ,0.80631 ,2.33492 ,22.91024 
198 ,36.4094 ,0.80811 ,2.30412 ,22.60804 
199 ,36.6010 ,0.80998 ,2.30754 ,22.64162 
200 ,36.7772 ,0.81173 ,2.29043 ,22.47373 
201 ,36.9533 ,0.81351 ,2.26990 ,22.27226 
202 ,37.1294 ,0.81530 ,2.24594 ,22.03721 
203 ,37.3533 ,0.81734 ,2.22883 ,21.86932 
204 ,37.5296 ,0.81926 ,2.21172 ,21.70143 
205 ,37.7375 ,0.82123 ,2.21857 ,21.76858 
206 ,37.9295 ,0.82323 ,2.18777 ,21.46638 
207 ,38.1056 ,0.82505 ,2.17408 ,21.33206 
208 ,38.2818 ,0.82678 ,2.16723 ,21.26491 
209 ,38.4578 ,0.82859 ,2.16723 ,21.26491 
210 ,38.6339 ,0.83028 ,2.12959 ,20.89555 
211 ,38.8100 ,0.83209 ,2.11248 ,20.72766 
212 ,39.0020 ,0.83396 ,2.11248 ,20.72766 
213 ,39.2101 ,0.83602 ,2.07826 ,20.39187 
214 ,39.3862 ,0.83780 ,2.08510 ,20.45903 
215 ,39.5781 ,0.83980 ,2.07141 ,20.32472 
216 ,39.7704 ,0.84169 ,2.04061 ,20.02251 
217 ,39.9622 ,0.84356 ,2.03719 ,19.98893 
218 ,40.1384 ,0.84534 ,2.02350 ,19.85462 
219 ,40.3304 ,0.84715 ,2.00639 ,19.68673 
220 ,40.5226 ,0.84917 ,1.98244 ,19.45168 
221 ,40.7148 ,0.85098 ,2.00297 ,19.65315 
222 ,40.9071 ,0.85306 ,1.95506 ,19.18305 
223 ,41.1148 ,0.85503 ,1.95506 ,19.18305 
224 ,41.3069 ,0.85704 ,1.92426 ,18.88085 
225 ,41.4830 ,0.85879 ,1.91399 ,18.78011 
226 ,41.6591 ,0.86057 ,1.91057 ,18.74654 
227 ,41.8352 ,0.86229 ,1.89004 ,18.54507 
228 ,42.0110 ,0.86418 ,1.86266 ,18.27644 
229 ,42.1874 ,0.86586 ,1.85240 ,18.17570 
230 ,42.3794 ,0.86780 ,1.85924 ,18.24286 
231 ,42.5715 ,0.86967 ,1.82502 ,17.90708 
232 ,42.7476 ,0.87140 ,1.80449 ,17.70561 
233 ,42.9234 ,0.87318 ,1.80106 ,17.67203 
234 ,43.0992 ,0.87493 ,1.80791 ,17.73919 
235 ,43.2754 ,0.87668 ,1.79080 ,17.57129 
236 ,43.4518 ,0.87847 ,1.76684 ,17.33625 
237 ,43.6439 ,0.88039 ,1.74973 ,17.16836 
238 ,43.8200 ,0.88216 ,1.74973 ,17.16836 
239 ,44.0281 ,0.88414 ,1.72235 ,16.89973 
240 ,44.2198 ,0.88609 ,1.72235 ,16.89973 
241 ,44.3961 ,0.88786 ,1.69155 ,16.59752 
242 ,44.5722 ,0.88965 ,1.66760 ,16.36248 
243 ,44.7640 ,0.89162 ,1.67102 ,16.39605 
244 ,44.9402 ,0.89332 ,1.65049 ,16.19458 
245 ,45.1323 ,0.89523 ,1.64022 ,16.09385 
246 ,45.3085 ,0.89705 ,1.62311 ,15.92596 
247 ,45.4847 ,0.89879 ,1.61284 ,15.82522 
248 ,45.7087 ,0.90087 ,1.60258 ,15.72449 
249 ,45.8847 ,0.90278 ,1.58204 ,15.52302 
250 ,46.0768 ,0.90473 ,1.55467 ,15.25439 
251 ,46.2528 ,0.90647 ,1.55467 ,15.25439 
252 ,46.4290 ,0.90822 ,1.53071 ,15.01934 
253 ,46.6209 ,0.91016 ,1.53413 ,15.05292 
254 ,46.8132 ,0.91208 ,1.52387 ,14.95219 
255 ,46.9893 ,0.91383 ,1.48622 ,14.58283 
256 ,47.1813 ,0.91574 ,1.49307 ,14.64998 
257 ,47.3890 ,0.91771 ,1.46227 ,14.34778 
258 ,47.5815 ,0.91963 ,1.45885 ,14.31420 
259 ,47.7575 ,0.92153 ,1.45885 ,14.31420 
260 ,47.9337 ,0.92327 ,1.43147 ,14.04557 
261 ,48.1258 ,0.92520 ,1.42120 ,13.94484 
262 ,48.3018 ,0.92698 ,1.39725 ,13.70979 
263 ,48.5101 ,0.92891 ,1.38014 ,13.54190 
264 ,48.7020 ,0.93094 ,1.38698 ,13.60906 
265 ,48.8940 ,0.93281 ,1.34591 ,13.20612 
266 ,49.0541 ,0.93456 ,1.33907 ,13.13896 
267 ,49.2307 ,0.93623 ,1.32538 ,13.00465 
268 ,49.4064 ,0.93801 ,1.30827 ,12.83675 
269 ,49.5822 ,0.93986 ,1.31512 ,12.90391 
270 ,49.7584 ,0.94146 ,1.31512 ,12.90391 
271 ,49.9504 ,0.94342 ,1.27405 ,12.50097 
272 ,50.1424 ,0.94531 ,1.28089 ,12.56813 
273 ,50.3183 ,0.94712 ,1.27063 ,12.46739 
274 ,50.4948 ,0.94888 ,1.23983 ,12.16519 
275 ,50.6708 ,0.95065 ,1.22272 ,11.99730 
276 ,50.8628 ,0.95253 ,1.22614 ,12.03088 
277 ,51.0390 ,0.95426 ,1.21245 ,11.89656 
278 ,51.2310 ,0.95627 ,1.17823 ,11.56078 
279 ,51.4074 ,0.95804 ,1.16454 ,11.42647 
280 ,51.5832 ,0.95976 ,1.15770 ,11.35931 
281 ,51.7752 ,0.96165 ,1.16112 ,11.39289 
282 ,51.9674 ,0.96352 ,1.14743 ,11.25857 
283 ,52.1432 ,0.96535 ,1.14058 ,11.19142 
284 ,52.3193 ,0.96712 ,1.13374 ,11.12426 
285 ,52.4953 ,0.96887 ,1.12005 ,10.98995 
286 ,52.6873 ,0.97072 ,1.07899 ,10.58701 
287 ,52.8637 ,0.97255 ,1.06530 ,10.45270 
288 ,53.0397 ,0.97433 ,1.07556 ,10.55343 
289 ,53.2318 ,0.97629 ,1.05845 ,10.38554 
290 ,53.4238 ,0.97809 ,1.05845 ,10.38554 
291 ,53.6000 ,0.97994 ,1.03450 ,10.15049 
292 ,53.7920 ,0.98175 ,1.01396 ,9.94902 
293 ,53.9681 ,0.98359 ,0.99343 ,9.74755 
294 ,54.1442 ,0.98537 ,0.99343 ,9.74755 
295 ,54.3361 ,0.98725 ,0.96605 ,9.47892 
296 ,54.5123 ,0.98898 ,0.95921 ,9.41177 
297 ,54.7042 ,0.99088 ,0.95921 ,9.41177 
298 ,54.8800 ,0.99286 ,0.94552 ,9.27745 
299 ,55.0564 ,0.99443 ,0.93525 ,9.17672 
300 ,55.2326 ,0.99622 ,0.91472 ,8.97525 
301 ,55.4083 ,0.99799 ,0.89077 ,8.74020 
302 ,55.6007 ,0.99987 ,0.90446 ,8.87451 
303 ,55.7927 ,1.00176 ,0.87708 ,8.60589 
304 ,55.9847 ,1.00375 ,0.86681 ,8.50515 
305 ,56.1767 ,1.00566 ,0.85997 ,8.43800 
306 ,56.3530 ,1.00745 ,0.84286 ,8.27011 
307 ,56.5291 ,1.00924 ,0.82232 ,8.06864 
308 ,56.7051 ,1.01098 ,0.81890 ,8.03506 
309 ,56.8812 ,1.01272 ,0.81890 ,8.03506 
310 ,57.0573 ,1.01452 ,0.80521 ,7.90074 
311 ,57.2333 ,1.01624 ,0.79152 ,7.76643 
312 ,57.4095 ,1.01797 ,0.77441 ,7.59854 
313 ,57.6016 ,1.01992 ,0.77099 ,7.56496 
314 ,57.7937 ,1.02179 ,0.74704 ,7.32991 
315 ,58.0173 ,1.02392 ,0.73677 ,7.22918 
316 ,58.2097 ,1.02599 ,0.71281 ,6.99413 
317 ,58.3858 ,1.02775 ,0.70597 ,6.92697 
318 ,58.5938 ,1.02978 ,0.68886 ,6.75908 
319 ,58.7700 ,1.03163 ,0.67517 ,6.62477 
320 ,58.9461 ,1.03335 ,0.66490 ,6.52403 
321 ,59.1222 ,1.03520 ,0.66148 ,6.49046 
322 ,59.2982 ,1.03683 ,0.66148 ,6.49046 
323 ,59.4741 ,1.03865 ,0.63753 ,6.25541 
324 ,59.6824 ,1.04067 ,0.62726 ,6.15467 
325 ,59.8743 ,1.04262 ,0.62042 ,6.08752 
326 ,60.0665 ,1.04447 ,0.58619 ,5.75173 
327 ,60.2426 ,1.04638 ,0.60330 ,5.91962 
328 ,60.4346 ,1.04823 ,0.58962 ,5.78531 
329 ,60.6109 ,1.05001 ,0.56566 ,5.55026 
330 ,60.8026 ,1.05186 ,0.56908 ,5.58384 
331 ,60.9789 ,1.05371 ,0.54855 ,5.38237 
332 ,61.1707 ,1.05558 ,0.53144 ,5.21448 
333 ,61.3627 ,1.05750 ,0.51091 ,5.01301 
334 ,61.5549 ,1.05937 ,0.49380 ,4.84512 
335 ,61.7311 ,1.06120 ,0.49037 ,4.81154 
336 ,61.9072 ,1.06297 ,0.48011 ,4.71081 
337 ,62.0832 ,1.06469 ,0.48011 ,4.71081 
338 ,62.2592 ,1.06649 ,0.47326 ,4.64365 
339 ,62.4353 ,1.06824 ,0.46300 ,4.54291 
340 ,62.6275 ,1.07017 ,0.43220 ,4.24071 
341 ,62.8356 ,1.07209 ,0.41509 ,4.07282 
342 ,63.0277 ,1.07410 ,0.40140 ,3.93850 
343 ,63.2358 ,1.07607 ,0.38771 ,3.80419 
344 ,63.4118 ,1.07810 ,0.37744 ,3.70346 
345 ,63.5878 ,1.07970 ,0.35349 ,3.46841 
346 ,63.7478 ,1.08143 ,0.37402 ,3.66988 
347 ,63.9237 ,1.08311 ,0.35691 ,3.50199 
348 ,64.1161 ,1.08492 ,0.34664 ,3.40125 
349 ,64.3081 ,1.08687 ,0.32269 ,3.16620 
350 ,64.4842 ,1.08869 ,0.30900 ,3.03189 
351 ,64.6599 ,1.09047 ,0.31926 ,3.13263 
352 ,64.8363 ,1.09219 ,0.29873 ,2.93116 
353 ,65.0605 ,1.09430 ,0.28504 ,2.79684 
354 ,65.2364 ,1.09629 ,0.28504 ,2.79684 
355 ,65.4125 ,1.09796 ,0.25767 ,2.52822 
356 ,65.5887 ,1.09974 ,0.25082 ,2.46106 
357 ,65.7805 ,1.10162 ,0.25424 ,2.49464 
358 ,65.9727 ,1.10357 ,0.22002 ,2.15885 
359 ,66.1488 ,1.10531 ,0.20633 ,2.02454 
360 ,66.3404 ,1.10728 ,0.20976 ,2.05812 
361 ,66.5006 ,1.10897 ,0.20976 ,2.05812 
362 ,66.6770 ,1.11064 ,0.21318 ,2.09170 
363 ,66.8526 ,1.11233 ,0.16527 ,1.62160 
364 ,67.0286 ,1.11417 ,0.15842 ,1.55445 
365 ,67.2208 ,1.11602 ,0.16527 ,1.62160 
366 ,67.3972 ,1.11787 ,0.16185 ,1.58802 
367 ,67.6050 ,1.11990 ,0.13447 ,1.31940 
368 ,67.7815 ,1.12166 ,0.11393 ,1.11793 
369 ,67.9896 ,1.12364 ,0.09682 ,0.95004 
370 ,68.1817 ,1.12561 ,0.11051 ,1.08435 
371 ,68.3576 ,1.12743 ,0.10025 ,0.98361 
372 ,68.5338 ,1.12920 ,0.06945 ,0.68141 
373 ,68.7098 ,1.13102 ,0.08314 ,0.81572 
374 ,68.8698 ,1.13265 ,0.06260 ,0.61425 
375 ,69.0459 ,1.13428 ,0.05234 ,0.51352 
376 ,69.2220 ,1.13606 ,0.04207 ,0.41278 
377 ,69.4302 ,1.13799 ,0.02838 ,0.27847 
378 ,69.6062 ,1.13994 ,0.01469 ,0.14416 
379 ,69.7823 ,1.14163 ,0.02496 ,0.24489 
380 ,69.9584 ,1.14342 ,0.01811 ,0.17773 
381 ,70.1663 ,1.14548 ,-0.00926 ,-0.09089 
382 ,70.3421 ,1.14729 ,-0.00242 ,-0.02373 
383 ,70.5186 ,1.14908 ,-0.01611 ,-0.15805 
384 ,70.6945 ,1.15077 ,-0.04348 ,-0.42667 
385 ,70.8706 ,1.15266 ,-0.05375 ,-0.52741 
386 ,71.0627 ,1.15444 ,-0.04006 ,-0.39310 
387 ,71.2390 ,1.15624 ,-0.06060 ,-0.59457 
388 ,71.4309 ,1.15817 ,-0.09824 ,-0.96393 
389 ,71.6391 ,1.16014 ,-0.10166 ,-0.99751 
390 ,71.8307 ,1.16212 ,-0.10851 ,-1.06466 
391 ,72.0074 ,1.16398 ,-0.12219 ,-1.19898 
392 ,72.1832 ,1.16567 ,-0.11877 ,-1.16540 
393 ,72.3592 ,1.16740 ,-0.13246 ,-1.29971 
394 ,72.5354 ,1.16918 ,-0.13588 ,-1.33329 
395 ,72.7116 ,1.17099 ,-0.16326 ,-1.60191 
396 ,72.9193 ,1.17288 ,-0.14615 ,-1.43402 
397 ,73.0796 ,1.17473 ,-0.16326 ,-1.60191 
398 ,73.2555 ,1.17635 ,-0.17695 ,-1.73623 
399 ,73.4318 ,1.17816 ,-0.20433 ,-2.00485 
400 ,73.6238 ,1.18008 ,-0.19748 ,-1.93770 
401 ,73.8160 ,1.18202 ,-0.20090 ,-1.97128 
402 ,74.0079 ,1.18390 ,-0.24197 ,-2.37422 
403 ,74.1837 ,1.18563 ,-0.22486 ,-2.20632 
404 ,74.3602 ,1.18741 ,-0.23170 ,-2.27348 
405 ,74.5683 ,1.18935 ,-0.26250 ,-2.57569 
406 ,74.7441 ,1.19128 ,-0.26935 ,-2.64284 
407 ,74.9203 ,1.19300 ,-0.26593 ,-2.60926 
408 ,75.0964 ,1.19480 ,-0.27277 ,-2.67642 
409 ,75.2885 ,1.19674 ,-0.30699 ,-3.01220 
410 ,75.4645 ,1.19845 ,-0.30699 ,-3.01220 
411 ,75.6406 ,1.20022 ,-0.30357 ,-2.97863 
412 ,75.8169 ,1.20196 ,-0.32068 ,-3.14652 
413 ,75.9928 ,1.20377 ,-0.33437 ,-3.28083 
414 ,76.1689 ,1.20554 ,-0.35832 ,-3.51588 
415 ,76.3447 ,1.20738 ,-0.34121 ,-3.34799 
416 ,76.5210 ,1.20901 ,-0.35832 ,-3.51588 
417 ,76.6972 ,1.21078 ,-0.36517 ,-3.58303 
418 ,76.8569 ,1.21251 ,-0.37201 ,-3.65019 
419 ,77.0329 ,1.21413 ,-0.39255 ,-3.85166 
420 ,77.2091 ,1.21592 ,-0.39255 ,-3.85166 
421 ,77.4173 ,1.21786 ,-0.38912 ,-3.81808 
422 ,77.6096 ,1.21980 ,-0.42335 ,-4.15387 
423 ,77.8178 ,1.22188 ,-0.41308 ,-4.05313 
424 ,77.9937 ,1.22379 ,-0.44046 ,-4.32176 
425 ,78.1694 ,1.22557 ,-0.44730 ,-4.38891 
426 ,78.3455 ,1.22726 ,-0.45414 ,-4.45607 
427 ,78.5377 ,1.22924 ,-0.46441 ,-4.55681 
428 ,78.7297 ,1.23112 ,-0.49179 ,-4.82543 
429 ,78.9062 ,1.23287 ,-0.49521 ,-4.85901 
430 ,79.2100 ,1.23528 ,-0.50548 ,-4.95975 
431 ,79.3862 ,1.23768 ,-0.51917 ,-5.09406 
432 ,79.5624 ,1.23943 ,-0.50890 ,-4.99332 
433 ,79.7705 ,1.24147 ,-0.54312 ,-5.32911 
434 ,79.9465 ,1.24327 ,-0.54997 ,-5.39626 
435 ,80.1546 ,1.24531 ,-0.54997 ,-5.39626 
436 ,80.3466 ,1.24726 ,-0.56023 ,-5.49700 
437 ,80.5228 ,1.24901 ,-0.57734 ,-5.66489 
438 ,80.7149 ,1.25095 ,-0.57734 ,-5.66489 
439 ,80.9073 ,1.25283 ,-0.59445 ,-5.83278 
440 ,81.1150 ,1.25487 ,-0.58419 ,-5.73205 
441 ,81.3071 ,1.25684 ,-0.62183 ,-6.10141 
442 ,81.4992 ,1.25872 ,-0.59788 ,-5.86636 
443 ,81.6913 ,1.26073 ,-0.63210 ,-6.20214 
444 ,81.8833 ,1.26265 ,-0.63210 ,-6.20214 
445 ,82.0749 ,1.26447 ,-0.64236 ,-6.30288 
446 ,82.2514 ,1.26631 ,-0.66632 ,-6.53793 
447 ,82.4273 ,1.26810 ,-0.66974 ,-6.57150 
448 ,82.6198 ,1.26992 ,-0.66290 ,-6.50435 
449 ,82.8116 ,1.27186 ,-0.69712 ,-6.84013 
450 ,82.9877 ,1.27367 ,-0.69027 ,-6.77297 
451 ,83.1636 ,1.27543 ,-0.69370 ,-6.80655 
452 ,83.3398 ,1.27715 ,-0.69712 ,-6.84013 
453 ,83.5314 ,1.27903 ,-0.72792 ,-7.14233 
454 ,83.7081 ,1.28087 ,-0.73134 ,-7.17591 
455 ,83.8840 ,1.28271 ,-0.73818 ,-7.24307 
456 ,84.0762 ,1.28456 ,-0.74845 ,-7.34380 
457 ,84.2522 ,1.28632 ,-0.75530 ,-7.41096 
458 ,84.4283 ,1.28810 ,-0.77241 ,-7.57885 
459 ,84.6363 ,1.29010 ,-0.77241 ,-7.57885 
460 ,84.8124 ,1.29196 ,-0.77925 ,-7.64601 
461 ,84.9885 ,1.29367 ,-0.79636 ,-7.81390 
462 ,85.1966 ,1.29569 ,-0.80663 ,-7.91464 
463 ,85.3885 ,1.29759 ,-0.81005 ,-7.94821 
