Data stamp = , 05-04-2022 20:22:31 535

Calibration Values: 
Slope = , 26.54 , g/V 
Offset Voltage at no contact = , -0.501760 , V 

No , Time , Stage Position ,   Mass , Force 
   ,  (s) ,      (mm)      ,   (g)  , (mN)  

1 ,0.0000 ,0.44936 ,5.20612 ,51.08244 
2 ,0.2286 ,0.44945 ,5.21296 ,51.14960 
3 ,0.5170 ,0.45027 ,5.21296 ,51.14960 
4 ,0.7092 ,0.45157 ,5.20270 ,51.04886 
5 ,0.9011 ,0.45314 ,5.21296 ,51.14960 
6 ,1.0933 ,0.45501 ,5.20270 ,51.04886 
7 ,1.2692 ,0.45675 ,5.19927 ,51.01528 
8 ,1.4456 ,0.45852 ,5.21296 ,51.14960 
9 ,1.6376 ,0.46041 ,5.18216 ,50.84739 
10 ,1.8294 ,0.46234 ,5.19585 ,50.98170 
11 ,2.0214 ,0.46428 ,5.17874 ,50.81381 
12 ,2.1979 ,0.46608 ,5.15136 ,50.54519 
13 ,2.3900 ,0.46802 ,5.15136 ,50.54519 
14 ,2.5659 ,0.46977 ,5.13768 ,50.41087 
15 ,2.7416 ,0.47149 ,5.13425 ,50.37729 
16 ,2.9181 ,0.47327 ,5.11030 ,50.14225 
17 ,3.0941 ,0.47499 ,5.08977 ,49.94078 
18 ,3.2701 ,0.47675 ,5.10003 ,50.04151 
19 ,3.4461 ,0.47854 ,5.08634 ,49.90720 
20 ,3.6383 ,0.48041 ,5.05212 ,49.57142 
21 ,3.7979 ,0.48217 ,5.03501 ,49.40352 
22 ,3.9746 ,0.48386 ,5.02132 ,49.26921 
23 ,4.1987 ,0.48593 ,5.00421 ,49.10132 
24 ,4.3748 ,0.48783 ,4.98710 ,48.93343 
25 ,4.5509 ,0.48958 ,4.97341 ,48.79911 
26 ,4.7428 ,0.49144 ,4.96657 ,48.73196 
27 ,4.9190 ,0.49331 ,4.96315 ,48.69838 
28 ,5.1111 ,0.49519 ,4.92208 ,48.29544 
29 ,5.3031 ,0.49706 ,4.91866 ,48.26186 
30 ,5.4791 ,0.49892 ,4.90497 ,48.12755 
31 ,5.6713 ,0.50080 ,4.88444 ,47.92608 
32 ,5.8472 ,0.50255 ,4.86048 ,47.69103 
33 ,6.0395 ,0.50449 ,4.86732 ,47.75819 
34 ,6.2155 ,0.50625 ,4.83652 ,47.45598 
35 ,6.4075 ,0.50816 ,4.82626 ,47.35525 
36 ,6.5835 ,0.50990 ,4.81599 ,47.25451 
37 ,6.7757 ,0.51186 ,4.77493 ,46.85157 
38 ,6.9514 ,0.51366 ,4.75782 ,46.68368 
39 ,7.1278 ,0.51538 ,4.75782 ,46.68368 
40 ,7.3040 ,0.51711 ,4.75439 ,46.65010 
41 ,7.4961 ,0.51902 ,4.70648 ,46.18001 
42 ,7.6722 ,0.52080 ,4.68937 ,46.01212 
43 ,7.8639 ,0.52269 ,4.69622 ,46.07927 
44 ,8.0399 ,0.52450 ,4.67911 ,45.91138 
45 ,8.2163 ,0.52628 ,4.65857 ,45.70991 
46 ,8.4084 ,0.52817 ,4.64146 ,45.54202 
47 ,8.5843 ,0.52992 ,4.63804 ,45.50844 
48 ,8.7607 ,0.53167 ,4.61751 ,45.30697 
49 ,8.9685 ,0.53373 ,4.60040 ,45.13908 
50 ,9.1442 ,0.53554 ,4.57302 ,44.87045 
51 ,9.3202 ,0.53726 ,4.55933 ,44.73614 
52 ,9.4966 ,0.53899 ,4.53880 ,44.53467 
53 ,9.7050 ,0.54112 ,4.54222 ,44.56825 
54 ,9.8810 ,0.54288 ,4.51826 ,44.33320 
55 ,10.1209 ,0.54502 ,4.47720 ,43.93026 
56 ,10.2972 ,0.54704 ,4.47378 ,43.89668 
57 ,10.4893 ,0.54896 ,4.45666 ,43.72879 
58 ,10.6654 ,0.55075 ,4.44298 ,43.59448 
59 ,10.8572 ,0.55256 ,4.43955 ,43.56090 
60 ,11.0330 ,0.55438 ,4.40191 ,43.19154 
61 ,11.2253 ,0.55622 ,4.39164 ,43.09080 
62 ,11.4015 ,0.55813 ,4.38138 ,42.99007 
63 ,11.5774 ,0.55985 ,4.37453 ,42.92291 
64 ,11.7536 ,0.56158 ,4.34373 ,42.62071 
65 ,11.9299 ,0.56339 ,4.32320 ,42.41924 
66 ,12.1058 ,0.56518 ,4.30609 ,42.25135 
67 ,12.2977 ,0.56700 ,4.30609 ,42.25135 
68 ,12.4741 ,0.56881 ,4.28898 ,42.08345 
69 ,12.6661 ,0.57076 ,4.26160 ,41.81483 
70 ,12.8422 ,0.57251 ,4.25133 ,41.71409 
71 ,13.0343 ,0.57431 ,4.24791 ,41.68051 
72 ,13.2263 ,0.57632 ,4.21711 ,41.37831 
73 ,13.4505 ,0.57840 ,4.18974 ,41.10968 
74 ,13.6424 ,0.58047 ,4.18631 ,41.07611 
75 ,13.8187 ,0.58231 ,4.17947 ,41.00895 
76 ,13.9947 ,0.58404 ,4.15551 ,40.77390 
77 ,14.1868 ,0.58592 ,4.13840 ,40.60601 
78 ,14.3631 ,0.58773 ,4.12129 ,40.43812 
79 ,14.5389 ,0.58944 ,4.10418 ,40.27023 
80 ,14.7311 ,0.59139 ,4.07680 ,40.00160 
81 ,14.9230 ,0.59324 ,4.07338 ,39.96802 
82 ,15.0992 ,0.59506 ,4.05285 ,39.76655 
83 ,15.2912 ,0.59694 ,4.02547 ,39.49793 
84 ,15.4670 ,0.59873 ,4.00152 ,39.26288 
85 ,15.6433 ,0.60048 ,3.99125 ,39.16214 
86 ,15.8513 ,0.60248 ,3.97414 ,38.99425 
87 ,16.0434 ,0.60446 ,3.97414 ,38.99425 
88 ,16.2196 ,0.60623 ,3.96387 ,38.89352 
89 ,16.3956 ,0.60803 ,3.94334 ,38.69205 
90 ,16.5552 ,0.60971 ,3.91596 ,38.42342 
91 ,16.7314 ,0.61137 ,3.90227 ,38.28911 
92 ,16.9078 ,0.61312 ,3.88174 ,38.08764 
93 ,17.1158 ,0.61516 ,3.88174 ,38.08764 
94 ,17.2918 ,0.61694 ,3.85779 ,37.85259 
95 ,17.4679 ,0.61875 ,3.83041 ,37.58396 
96 ,17.6277 ,0.62044 ,3.83725 ,37.65112 
97 ,17.8042 ,0.62213 ,3.80987 ,37.38249 
98 ,18.0121 ,0.62399 ,3.78250 ,37.11387 
99 ,18.1883 ,0.62590 ,3.78250 ,37.11387 
100 ,18.3803 ,0.62780 ,3.77908 ,37.08029 
101 ,18.5565 ,0.62961 ,3.75854 ,36.87882 
102 ,18.7325 ,0.63137 ,3.73801 ,36.67735 
103 ,18.9247 ,0.63331 ,3.70721 ,36.37514 
104 ,19.1167 ,0.63522 ,3.71405 ,36.44230 
105 ,19.3088 ,0.63710 ,3.69352 ,36.24083 
106 ,19.5008 ,0.63904 ,3.67299 ,36.03936 
107 ,19.6769 ,0.64077 ,3.66614 ,35.97220 
108 ,19.8689 ,0.64275 ,3.64219 ,35.73716 
109 ,20.0610 ,0.64456 ,3.61481 ,35.46853 
110 ,20.2531 ,0.64657 ,3.61481 ,35.46853 
111 ,20.4291 ,0.64834 ,3.59086 ,35.23348 
112 ,20.6209 ,0.65019 ,3.57375 ,35.06559 
113 ,20.7972 ,0.65201 ,3.57032 ,35.03201 
114 ,20.9892 ,0.65389 ,3.54295 ,34.76338 
115 ,21.1815 ,0.65583 ,3.52584 ,34.59549 
116 ,21.3574 ,0.65761 ,3.51557 ,34.49476 
117 ,21.5496 ,0.65950 ,3.49846 ,34.32687 
118 ,21.7416 ,0.66142 ,3.47792 ,34.12540 
119 ,21.9175 ,0.66319 ,3.46424 ,33.99108 
120 ,22.0938 ,0.66494 ,3.45739 ,33.92393 
121 ,22.3019 ,0.66695 ,3.44028 ,33.75604 
122 ,22.4780 ,0.66883 ,3.42317 ,33.58814 
123 ,22.6540 ,0.67055 ,3.40948 ,33.45383 
124 ,22.8302 ,0.67228 ,3.37868 ,33.15163 
125 ,23.0221 ,0.67422 ,3.37184 ,33.08447 
126 ,23.2144 ,0.67612 ,3.36499 ,33.01731 
127 ,23.3904 ,0.67794 ,3.34104 ,32.78227 
128 ,23.5666 ,0.67970 ,3.31366 ,32.51364 
129 ,23.7424 ,0.68145 ,3.30339 ,32.41290 
130 ,23.9345 ,0.68335 ,3.30339 ,32.41290 
131 ,24.1106 ,0.68510 ,3.28971 ,32.27859 
132 ,24.3027 ,0.68696 ,3.25891 ,31.97639 
133 ,24.4787 ,0.68878 ,3.26233 ,32.00996 
134 ,24.6549 ,0.69053 ,3.25206 ,31.90923 
135 ,24.8308 ,0.69232 ,3.21784 ,31.57345 
136 ,25.0390 ,0.69425 ,3.20757 ,31.47271 
137 ,25.2150 ,0.69611 ,3.20073 ,31.40555 
138 ,25.3909 ,0.69792 ,3.18362 ,31.23766 
139 ,25.5673 ,0.69967 ,3.15624 ,30.96904 
140 ,25.7432 ,0.70142 ,3.13571 ,30.76757 
141 ,25.9513 ,0.70352 ,3.12202 ,30.63325 
142 ,26.1433 ,0.70541 ,3.10491 ,30.46536 
143 ,26.3354 ,0.70728 ,3.08438 ,30.26389 
144 ,26.5277 ,0.70928 ,3.08095 ,30.23031 
145 ,26.7037 ,0.71101 ,3.05358 ,29.96169 
146 ,26.8958 ,0.71298 ,3.05700 ,29.99527 
147 ,27.0719 ,0.71474 ,3.04673 ,29.89453 
148 ,27.2476 ,0.71649 ,3.04331 ,29.86095 
149 ,27.4241 ,0.71823 ,3.00567 ,29.49159 
150 ,27.6000 ,0.72000 ,2.98855 ,29.32370 
151 ,27.7764 ,0.72177 ,2.99882 ,29.42444 
152 ,27.9685 ,0.72363 ,2.95433 ,28.98792 
153 ,28.1444 ,0.72548 ,2.95091 ,28.95434 
154 ,28.3361 ,0.72729 ,2.93722 ,28.82003 
155 ,28.4960 ,0.72908 ,2.93038 ,28.75287 
156 ,28.6561 ,0.73070 ,2.92011 ,28.65213 
157 ,28.8326 ,0.73236 ,2.90985 ,28.55140 
158 ,29.0248 ,0.73430 ,2.86536 ,28.11488 
159 ,29.2168 ,0.73618 ,2.87562 ,28.21562 
160 ,29.3928 ,0.73790 ,2.86536 ,28.11488 
161 ,29.5850 ,0.73986 ,2.83456 ,27.81268 
162 ,29.7770 ,0.74175 ,2.82429 ,27.71194 
163 ,29.9531 ,0.74348 ,2.83114 ,27.77910 
164 ,30.1291 ,0.74529 ,2.82087 ,27.67836 
165 ,30.3212 ,0.74716 ,2.77296 ,27.20827 
166 ,30.4969 ,0.74894 ,2.76954 ,27.17469 
167 ,30.6736 ,0.75070 ,2.75927 ,27.07395 
168 ,30.8494 ,0.75251 ,2.75927 ,27.07395 
169 ,31.0252 ,0.75424 ,2.72847 ,26.77175 
170 ,31.2013 ,0.75599 ,2.71136 ,26.60386 
171 ,31.3775 ,0.75777 ,2.71136 ,26.60386 
172 ,31.5534 ,0.75955 ,2.69425 ,26.43597 
173 ,31.7299 ,0.76128 ,2.68398 ,26.33523 
174 ,31.9379 ,0.76332 ,2.65660 ,26.06661 
175 ,32.0980 ,0.76509 ,2.64976 ,25.99945 
176 ,32.2741 ,0.76669 ,2.63949 ,25.89871 
177 ,32.4659 ,0.76870 ,2.62238 ,25.73082 
178 ,32.6422 ,0.77041 ,2.60869 ,25.59651 
179 ,32.8183 ,0.77215 ,2.57447 ,25.26073 
180 ,32.9943 ,0.77396 ,2.56763 ,25.19357 
181 ,33.1706 ,0.77570 ,2.56763 ,25.19357 
182 ,33.3624 ,0.77764 ,2.53683 ,24.89136 
183 ,33.5386 ,0.77934 ,2.52314 ,24.75705 
184 ,33.6986 ,0.78106 ,2.51972 ,24.72347 
185 ,33.8750 ,0.78269 ,2.50261 ,24.55558 
186 ,34.0507 ,0.78449 ,2.50603 ,24.58916 
187 ,34.2105 ,0.78619 ,2.49234 ,24.45485 
188 ,34.3869 ,0.78782 ,2.46839 ,24.21980 
189 ,34.5629 ,0.78957 ,2.44785 ,24.01833 
190 ,34.7387 ,0.79142 ,2.44443 ,23.98475 
191 ,34.9310 ,0.79323 ,2.43074 ,23.85044 
192 ,35.1552 ,0.79534 ,2.41021 ,23.64897 
193 ,35.3313 ,0.79728 ,2.39994 ,23.54823 
194 ,35.5073 ,0.79908 ,2.38625 ,23.41392 
195 ,35.6674 ,0.80077 ,2.35203 ,23.07814 
196 ,35.8275 ,0.80233 ,2.33834 ,22.94382 
197 ,36.0035 ,0.80402 ,2.33492 ,22.91024 
198 ,36.1797 ,0.80575 ,2.31097 ,22.67520 
199 ,36.3721 ,0.80766 ,2.31097 ,22.67520 
200 ,36.5477 ,0.80957 ,2.29728 ,22.54088 
201 ,36.7239 ,0.81117 ,2.27332 ,22.30584 
202 ,36.9158 ,0.81307 ,2.25963 ,22.17152 
203 ,37.0919 ,0.81489 ,2.26306 ,22.20510 
204 ,37.2516 ,0.81661 ,2.23910 ,21.97005 
205 ,37.4282 ,0.81827 ,2.23226 ,21.90290 
206 ,37.6363 ,0.82024 ,2.19803 ,21.56711 
207 ,37.8122 ,0.82209 ,2.19119 ,21.49996 
208 ,37.9884 ,0.82388 ,2.19803 ,21.56711 
209 ,38.1804 ,0.82584 ,2.16381 ,21.23133 
210 ,38.3563 ,0.82750 ,2.14328 ,21.02986 
211 ,38.5325 ,0.82933 ,2.13301 ,20.92912 
212 ,38.7085 ,0.83111 ,2.11932 ,20.79481 
213 ,38.8847 ,0.83282 ,2.12617 ,20.86197 
214 ,39.0769 ,0.83463 ,2.07141 ,20.32472 
215 ,39.3008 ,0.83681 ,2.07141 ,20.32472 
216 ,39.4770 ,0.83875 ,2.06457 ,20.25756 
217 ,39.6531 ,0.84051 ,2.05088 ,20.12325 
218 ,39.8291 ,0.84226 ,2.05088 ,20.12325 
219 ,40.0369 ,0.84422 ,2.02350 ,19.85462 
220 ,40.2292 ,0.84620 ,2.01324 ,19.75388 
221 ,40.4214 ,0.84809 ,1.98928 ,19.51884 
222 ,40.6135 ,0.85003 ,1.99270 ,19.55241 
223 ,40.7895 ,0.85187 ,1.98928 ,19.51884 
224 ,40.9814 ,0.85378 ,1.95506 ,19.18305 
225 ,41.1577 ,0.85551 ,1.93795 ,19.01516 
226 ,41.3337 ,0.85731 ,1.91742 ,18.81369 
227 ,41.5257 ,0.85913 ,1.91742 ,18.81369 
228 ,41.7017 ,0.86093 ,1.89688 ,18.61222 
229 ,41.8939 ,0.86289 ,1.87635 ,18.41075 
230 ,42.0861 ,0.86472 ,1.87977 ,18.44433 
231 ,42.2780 ,0.86669 ,1.84555 ,18.10855 
232 ,42.4539 ,0.86851 ,1.84555 ,18.10855 
233 ,42.6463 ,0.87028 ,1.83186 ,17.97423 
234 ,42.8384 ,0.87236 ,1.81475 ,17.80634 
235 ,43.0145 ,0.87410 ,1.80106 ,17.67203 
236 ,43.1905 ,0.87586 ,1.77711 ,17.43698 
237 ,43.3825 ,0.87767 ,1.77711 ,17.43698 
238 ,43.5750 ,0.87972 ,1.74631 ,17.13478 
239 ,43.7667 ,0.88153 ,1.75657 ,17.23551 
240 ,43.9748 ,0.88359 ,1.72578 ,16.93331 
241 ,44.1668 ,0.88554 ,1.71893 ,16.86615 
242 ,44.3429 ,0.88736 ,1.72235 ,16.89973 
243 ,44.5189 ,0.88909 ,1.68471 ,16.53037 
244 ,44.6949 ,0.89086 ,1.67444 ,16.42963 
245 ,44.8709 ,0.89259 ,1.67444 ,16.42963 
246 ,45.0473 ,0.89437 ,1.66075 ,16.29532 
247 ,45.2233 ,0.89616 ,1.64022 ,16.09385 
248 ,45.4154 ,0.89807 ,1.61284 ,15.82522 
249 ,45.5915 ,0.89982 ,1.60600 ,15.75807 
250 ,45.7677 ,0.90163 ,1.60942 ,15.79164 
251 ,45.9435 ,0.90341 ,1.58889 ,15.59018 
252 ,46.1196 ,0.90510 ,1.57520 ,15.45586 
253 ,46.2958 ,0.90689 ,1.55124 ,15.22081 
254 ,46.4876 ,0.90874 ,1.55467 ,15.25439 
255 ,46.6639 ,0.91058 ,1.54098 ,15.12008 
256 ,46.8396 ,0.91233 ,1.52045 ,14.91861 
257 ,47.0320 ,0.91416 ,1.50676 ,14.78430 
258 ,47.2080 ,0.91597 ,1.49649 ,14.68356 
259 ,47.3842 ,0.91779 ,1.49307 ,14.64998 
260 ,47.5762 ,0.91966 ,1.45542 ,14.28062 
261 ,47.7525 ,0.92141 ,1.45200 ,14.24704 
262 ,47.9284 ,0.92322 ,1.44516 ,14.17989 
263 ,48.1046 ,0.92494 ,1.43831 ,14.11273 
264 ,48.2804 ,0.92670 ,1.42462 ,13.97842 
265 ,48.4566 ,0.92849 ,1.39040 ,13.64263 
266 ,48.6487 ,0.93037 ,1.38356 ,13.57548 
267 ,48.8409 ,0.93228 ,1.37329 ,13.47474 
268 ,49.0169 ,0.93413 ,1.34934 ,13.23969 
269 ,49.1930 ,0.93582 ,1.33565 ,13.10538 
270 ,49.3851 ,0.93776 ,1.34249 ,13.17254 
271 ,49.5774 ,0.93964 ,1.31512 ,12.90391 
272 ,49.7694 ,0.94157 ,1.30143 ,12.76960 
273 ,49.9773 ,0.94362 ,1.28089 ,12.56813 
274 ,50.1534 ,0.94543 ,1.27405 ,12.50097 
275 ,50.3293 ,0.94716 ,1.26720 ,12.43381 
276 ,50.5056 ,0.94897 ,1.26036 ,12.36666 
277 ,50.6652 ,0.95072 ,1.25009 ,12.26592 
278 ,50.8416 ,0.95238 ,1.23983 ,12.16519 
279 ,51.0336 ,0.95416 ,1.21587 ,11.93014 
280 ,51.2099 ,0.95601 ,1.19876 ,11.76225 
281 ,51.4018 ,0.95788 ,1.19192 ,11.69509 
282 ,51.5780 ,0.95968 ,1.17481 ,11.52720 
283 ,51.7537 ,0.96145 ,1.15427 ,11.32573 
284 ,51.9301 ,0.96320 ,1.15085 ,11.29215 
285 ,52.1062 ,0.96500 ,1.14401 ,11.22500 
286 ,52.2978 ,0.96680 ,1.11663 ,10.95637 
287 ,52.4743 ,0.96860 ,1.09952 ,10.78848 
288 ,52.6663 ,0.97056 ,1.10294 ,10.82206 
289 ,52.8421 ,0.97228 ,1.09610 ,10.75490 
290 ,53.0184 ,0.97408 ,1.08241 ,10.62059 
291 ,53.2266 ,0.97607 ,1.06187 ,10.41912 
292 ,53.4024 ,0.97798 ,1.06530 ,10.45270 
293 ,53.5947 ,0.97978 ,1.04819 ,10.28480 
294 ,53.7708 ,0.98162 ,1.01739 ,9.98260 
295 ,53.9627 ,0.98347 ,1.01396 ,9.94902 
296 ,54.1387 ,0.98534 ,1.00370 ,9.84829 
297 ,54.3310 ,0.98717 ,0.97632 ,9.57966 
298 ,54.5070 ,0.98897 ,0.96263 ,9.44535 
299 ,54.6830 ,0.99070 ,0.96948 ,9.51250 
300 ,54.8752 ,0.99260 ,0.94210 ,9.24388 
301 ,55.0513 ,0.99437 ,0.93525 ,9.17672 
302 ,55.2434 ,0.99630 ,0.94210 ,9.24388 
303 ,55.4194 ,0.99808 ,0.93525 ,9.17672 
304 ,55.5956 ,0.99988 ,0.89761 ,8.80736 
305 ,55.7715 ,1.00163 ,0.88392 ,8.67305 
306 ,55.9475 ,1.00338 ,0.88050 ,8.63947 
307 ,56.1397 ,1.00531 ,0.87708 ,8.60589 
308 ,56.2998 ,1.00698 ,0.84970 ,8.33726 
309 ,56.4918 ,1.00876 ,0.83259 ,8.16937 
310 ,56.6839 ,1.01064 ,0.83259 ,8.16937 
311 ,56.8599 ,1.01246 ,0.83601 ,8.20295 
312 ,57.0517 ,1.01439 ,0.78468 ,7.69927 
313 ,57.2282 ,1.01616 ,0.79152 ,7.76643 
314 ,57.4043 ,1.01796 ,0.78468 ,7.69927 
315 ,57.5963 ,1.01981 ,0.77099 ,7.56496 
316 ,57.7885 ,1.02170 ,0.75046 ,7.36349 
317 ,57.9644 ,1.02357 ,0.73677 ,7.22918 
318 ,58.1406 ,1.02524 ,0.74704 ,7.32991 
319 ,58.3166 ,1.02704 ,0.72992 ,7.16202 
320 ,58.4926 ,1.02885 ,0.70255 ,6.89340 
321 ,58.6689 ,1.03058 ,0.69570 ,6.82624 
322 ,58.8771 ,1.03255 ,0.67175 ,6.59119 
323 ,59.0689 ,1.03447 ,0.67517 ,6.62477 
324 ,59.2609 ,1.03648 ,0.67175 ,6.59119 
325 ,59.4691 ,1.03852 ,0.64095 ,6.28899 
326 ,59.6608 ,1.04042 ,0.64095 ,6.28899 
327 ,59.8373 ,1.04225 ,0.63410 ,6.22183 
328 ,60.0454 ,1.04425 ,0.60673 ,5.95320 
329 ,60.2051 ,1.04606 ,0.59646 ,5.85247 
330 ,60.3814 ,1.04769 ,0.59304 ,5.81889 
331 ,60.5735 ,1.04950 ,0.59304 ,5.81889 
332 ,60.7498 ,1.05134 ,0.55539 ,5.44953 
333 ,60.9257 ,1.05314 ,0.53828 ,5.28164 
334 ,61.1016 ,1.05488 ,0.54513 ,5.34879 
335 ,61.2934 ,1.05684 ,0.53144 ,5.21448 
336 ,61.4698 ,1.05856 ,0.50748 ,4.97943 
337 ,61.6460 ,1.06028 ,0.49722 ,4.87870 
338 ,61.8217 ,1.06211 ,0.50064 ,4.91228 
339 ,61.9978 ,1.06384 ,0.49722 ,4.87870 
340 ,62.1739 ,1.06560 ,0.47668 ,4.67723 
341 ,62.3498 ,1.06740 ,0.45615 ,4.47576 
342 ,62.5261 ,1.06912 ,0.44246 ,4.34144 
343 ,62.7022 ,1.07087 ,0.43562 ,4.27429 
344 ,62.8785 ,1.07262 ,0.44246 ,4.34144 
345 ,63.1023 ,1.07474 ,0.42535 ,4.17355 
346 ,63.2787 ,1.07667 ,0.40824 ,4.00566 
347 ,63.4707 ,1.07856 ,0.38771 ,3.80419 
348 ,63.6628 ,1.08049 ,0.38429 ,3.77061 
349 ,63.8547 ,1.08235 ,0.37060 ,3.63630 
350 ,64.0310 ,1.08417 ,0.35349 ,3.46841 
351 ,64.2391 ,1.08611 ,0.35006 ,3.43483 
352 ,64.4150 ,1.08801 ,0.33638 ,3.30052 
353 ,64.6072 ,1.08997 ,0.29873 ,2.93116 
354 ,64.7992 ,1.09186 ,0.30215 ,2.96473 
355 ,64.9753 ,1.09358 ,0.31242 ,3.06547 
356 ,65.1674 ,1.09550 ,0.27135 ,2.66253 
357 ,65.3433 ,1.09726 ,0.27478 ,2.69611 
358 ,65.5350 ,1.09920 ,0.27135 ,2.66253 
359 ,65.7114 ,1.10091 ,0.24740 ,2.42748 
360 ,65.8876 ,1.10268 ,0.22344 ,2.19243 
361 ,66.0797 ,1.10464 ,0.23029 ,2.25959 
362 ,66.2558 ,1.10642 ,0.22344 ,2.19243 
363 ,66.4319 ,1.10815 ,0.20976 ,2.05812 
364 ,66.6239 ,1.11003 ,0.17553 ,1.72234 
365 ,66.8161 ,1.11203 ,0.19264 ,1.89023 
366 ,67.0082 ,1.11397 ,0.16869 ,1.65518 
367 ,67.1842 ,1.11573 ,0.14473 ,1.42013 
368 ,67.3602 ,1.11749 ,0.16185 ,1.58802 
369 ,67.5364 ,1.11926 ,0.15158 ,1.48729 
370 ,67.7280 ,1.12111 ,0.10709 ,1.05077 
371 ,67.9204 ,1.12299 ,0.11736 ,1.15151 
372 ,68.0965 ,1.12480 ,0.11393 ,1.11793 
373 ,68.2726 ,1.12656 ,0.10025 ,0.98361 
374 ,68.4647 ,1.12844 ,0.07629 ,0.74857 
375 ,68.6566 ,1.13044 ,0.07287 ,0.71499 
376 ,68.8648 ,1.13246 ,0.05576 ,0.54710 
377 ,69.0566 ,1.13440 ,0.04549 ,0.44636 
378 ,69.2329 ,1.13618 ,0.04207 ,0.41278 
379 ,69.4252 ,1.13812 ,0.01811 ,0.17773 
380 ,69.6167 ,1.14010 ,0.02838 ,0.27847 
381 ,69.7927 ,1.14175 ,0.01127 ,0.11058 
382 ,69.9691 ,1.14354 ,0.01127 ,0.11058 
383 ,70.1935 ,1.14576 ,-0.01953 ,-0.19163 
384 ,70.3853 ,1.14764 ,-0.02980 ,-0.29236 
385 ,70.5775 ,1.14962 ,-0.03322 ,-0.32594 
386 ,70.7535 ,1.15134 ,-0.03322 ,-0.32594 
387 ,70.9457 ,1.15326 ,-0.05717 ,-0.56099 
388 ,71.1376 ,1.15510 ,-0.07771 ,-0.76246 
389 ,71.3299 ,1.15715 ,-0.07086 ,-0.69530 
390 ,71.5059 ,1.15887 ,-0.09482 ,-0.93035 
391 ,71.6977 ,1.16084 ,-0.09824 ,-0.96393 
392 ,71.8739 ,1.16260 ,-0.09482 ,-0.93035 
393 ,72.0503 ,1.16432 ,-0.10508 ,-1.03108 
394 ,72.2423 ,1.16623 ,-0.13931 ,-1.36687 
395 ,72.4346 ,1.16817 ,-0.13931 ,-1.36687 
396 ,72.6265 ,1.16999 ,-0.13931 ,-1.36687 
397 ,72.8023 ,1.17185 ,-0.16326 ,-1.60191 
398 ,72.9946 ,1.17377 ,-0.17011 ,-1.66907 
399 ,73.1709 ,1.17552 ,-0.18037 ,-1.76981 
400 ,73.3627 ,1.17744 ,-0.19748 ,-1.93770 
401 ,73.5389 ,1.17918 ,-0.20775 ,-2.03843 
402 ,73.7310 ,1.18112 ,-0.21459 ,-2.10559 
403 ,73.9229 ,1.18294 ,-0.22828 ,-2.23990 
404 ,74.0991 ,1.18477 ,-0.23855 ,-2.34064 
405 ,74.2912 ,1.18668 ,-0.23170 ,-2.27348 
406 ,74.4993 ,1.18864 ,-0.25566 ,-2.50853 
407 ,74.6751 ,1.19062 ,-0.26935 ,-2.64284 
408 ,74.8675 ,1.19247 ,-0.28304 ,-2.77716 
409 ,75.0591 ,1.19444 ,-0.29673 ,-2.91147 
410 ,75.2356 ,1.19622 ,-0.30699 ,-3.01220 
411 ,75.4436 ,1.19818 ,-0.31726 ,-3.11294 
412 ,75.6198 ,1.19999 ,-0.33779 ,-3.31441 
413 ,75.7957 ,1.20177 ,-0.33437 ,-3.28083 
414 ,75.9878 ,1.20368 ,-0.33437 ,-3.28083 
415 ,76.1475 ,1.20540 ,-0.35490 ,-3.48230 
416 ,76.3240 ,1.20706 ,-0.36517 ,-3.58303 
417 ,76.5001 ,1.20879 ,-0.37886 ,-3.71735 
418 ,76.6763 ,1.21057 ,-0.38912 ,-3.81808 
419 ,76.8522 ,1.21238 ,-0.38570 ,-3.78450 
420 ,77.0443 ,1.21425 ,-0.40623 ,-3.98597 
421 ,77.2200 ,1.21595 ,-0.41650 ,-4.08671 
422 ,77.3964 ,1.21776 ,-0.42677 ,-4.18744 
423 ,77.5560 ,1.21951 ,-0.41308 ,-4.05313 
424 ,77.7323 ,1.22120 ,-0.43361 ,-4.25460 
425 ,77.9247 ,1.22301 ,-0.46099 ,-4.52323 
426 ,78.1006 ,1.22483 ,-0.45757 ,-4.48965 
427 ,78.2765 ,1.22653 ,-0.47810 ,-4.69112 
428 ,78.4527 ,1.22830 ,-0.47468 ,-4.65754 
429 ,78.6289 ,1.23009 ,-0.47468 ,-4.65754 
430 ,78.8050 ,1.23184 ,-0.48494 ,-4.75828 
431 ,78.9811 ,1.23356 ,-0.49863 ,-4.89259 
432 ,79.1891 ,1.23563 ,-0.51574 ,-5.06048 
433 ,79.3652 ,1.23745 ,-0.51917 ,-5.09406 
434 ,79.5414 ,1.23920 ,-0.54312 ,-5.32911 
435 ,79.7334 ,1.24104 ,-0.54312 ,-5.32911 
436 ,79.9255 ,1.24309 ,-0.54654 ,-5.36268 
437 ,80.1172 ,1.24494 ,-0.56365 ,-5.53058 
438 ,80.2933 ,1.24669 ,-0.56023 ,-5.49700 
439 ,80.4694 ,1.24850 ,-0.56023 ,-5.49700 
440 ,80.6454 ,1.25022 ,-0.57050 ,-5.59773 
441 ,80.8215 ,1.25208 ,-0.59788 ,-5.86636 
442 ,80.9974 ,1.25375 ,-0.61156 ,-6.00067 
443 ,81.1576 ,1.25548 ,-0.61841 ,-6.06783 
444 ,81.3176 ,1.25707 ,-0.62868 ,-6.16856 
445 ,81.4937 ,1.25870 ,-0.62868 ,-6.16856 
446 ,81.6698 ,1.26049 ,-0.62183 ,-6.10141 
447 ,81.8298 ,1.26219 ,-0.63552 ,-6.23572 
448 ,82.0059 ,1.26386 ,-0.64236 ,-6.30288 
449 ,82.1660 ,1.26558 ,-0.66974 ,-6.57150 
450 ,82.3420 ,1.26717 ,-0.67316 ,-6.60508 
451 ,82.5181 ,1.26896 ,-0.69027 ,-6.77297 
452 ,82.6941 ,1.27071 ,-0.68343 ,-6.70582 
453 ,82.8703 ,1.27248 ,-0.69370 ,-6.80655 
454 ,83.0463 ,1.27425 ,-0.70396 ,-6.90729 
455 ,83.2063 ,1.27597 ,-0.72107 ,-7.07518 
456 ,83.3825 ,1.27759 ,-0.72450 ,-7.10876 
457 ,83.5583 ,1.27934 ,-0.74503 ,-7.31023 
458 ,83.7345 ,1.28113 ,-0.74503 ,-7.31023 
459 ,83.9106 ,1.28285 ,-0.74503 ,-7.31023 
460 ,84.0708 ,1.28462 ,-0.74161 ,-7.27665 
461 ,84.2469 ,1.28621 ,-0.75872 ,-7.44454 
462 ,84.4390 ,1.28820 ,-0.79636 ,-7.81390 
463 ,84.6149 ,1.28995 ,-0.80663 ,-7.91464 
