Data stamp = , 06-04-2022 11:33:21 947

Calibration Values: 
Slope = , 26.54 , g/V 
Offset Voltage at no contact = , -0.501760 , V 

No , Time , Stage Position ,   Mass , Force 
   ,  (s) ,      (mm)      ,   (g)  , (mN)  

1 ,0.0000 ,0.44931 ,5.19585 ,50.98170 
2 ,0.2651 ,0.44945 ,5.19243 ,50.94813 
3 ,0.5054 ,0.45020 ,5.19243 ,50.94813 
4 ,0.6975 ,0.45145 ,5.20270 ,51.04886 
5 ,0.8736 ,0.45285 ,5.20612 ,51.08244 
6 ,1.0496 ,0.45450 ,5.18901 ,50.91455 
7 ,1.2735 ,0.45659 ,5.20270 ,51.04886 
8 ,1.4499 ,0.45849 ,5.19243 ,50.94813 
9 ,1.6418 ,0.46041 ,5.15479 ,50.57876 
10 ,1.8337 ,0.46228 ,5.14794 ,50.51161 
11 ,2.0098 ,0.46413 ,5.14452 ,50.47803 
12 ,2.1862 ,0.46592 ,5.10345 ,50.07509 
13 ,2.3782 ,0.46783 ,5.11030 ,50.14225 
14 ,2.5542 ,0.46955 ,5.09661 ,50.00793 
15 ,2.7464 ,0.47148 ,5.06923 ,49.73931 
16 ,2.9382 ,0.47339 ,5.04870 ,49.53784 
17 ,3.1305 ,0.47535 ,5.04185 ,49.47068 
18 ,3.3065 ,0.47713 ,5.02132 ,49.26921 
19 ,3.4827 ,0.47882 ,5.00079 ,49.06774 
20 ,3.6587 ,0.48066 ,4.98368 ,48.89985 
21 ,3.8348 ,0.48241 ,4.99394 ,49.00058 
22 ,4.0429 ,0.48439 ,4.95630 ,48.63122 
23 ,4.2350 ,0.48637 ,4.93919 ,48.46333 
24 ,4.4108 ,0.48811 ,4.93235 ,48.39618 
25 ,4.5871 ,0.48987 ,4.89128 ,47.99324 
26 ,4.7632 ,0.49163 ,4.88786 ,47.95966 
27 ,4.9391 ,0.49341 ,4.88101 ,47.89250 
28 ,5.1153 ,0.49513 ,4.87417 ,47.82534 
29 ,5.2913 ,0.49692 ,4.86048 ,47.69103 
30 ,5.4837 ,0.49886 ,4.81599 ,47.25451 
31 ,5.6755 ,0.50076 ,4.80915 ,47.18736 
32 ,5.8516 ,0.50251 ,4.80230 ,47.12020 
33 ,6.0435 ,0.50449 ,4.77493 ,46.85157 
34 ,6.2354 ,0.50637 ,4.77150 ,46.81800 
35 ,6.4117 ,0.50813 ,4.75097 ,46.61653 
36 ,6.6039 ,0.51007 ,4.72017 ,46.31432 
37 ,6.7797 ,0.51185 ,4.71333 ,46.24716 
38 ,6.9560 ,0.51357 ,4.70990 ,46.21359 
39 ,7.1481 ,0.51549 ,4.69279 ,46.04569 
40 ,7.3399 ,0.51742 ,4.66884 ,45.81065 
41 ,7.5163 ,0.51918 ,4.66199 ,45.74349 
42 ,7.6923 ,0.52090 ,4.64831 ,45.60918 
43 ,7.8683 ,0.52266 ,4.62093 ,45.34055 
44 ,8.0445 ,0.52449 ,4.60382 ,45.17266 
45 ,8.2204 ,0.52618 ,4.58671 ,45.00477 
46 ,8.3963 ,0.52800 ,4.58328 ,44.97119 
47 ,8.5728 ,0.52978 ,4.56960 ,44.83688 
48 ,8.7809 ,0.53172 ,4.54906 ,44.63541 
49 ,8.9569 ,0.53357 ,4.52169 ,44.36678 
50 ,9.1651 ,0.53556 ,4.50800 ,44.23247 
51 ,9.3569 ,0.53760 ,4.50115 ,44.16531 
52 ,9.5329 ,0.53935 ,4.47720 ,43.93026 
53 ,9.7093 ,0.54109 ,4.46693 ,43.82953 
54 ,9.8853 ,0.54290 ,4.44298 ,43.59448 
55 ,10.0614 ,0.54463 ,4.41902 ,43.35943 
56 ,10.2531 ,0.54653 ,4.41902 ,43.35943 
57 ,10.4296 ,0.54827 ,4.39849 ,43.15796 
58 ,10.6212 ,0.55020 ,4.38138 ,42.99007 
59 ,10.8138 ,0.55208 ,4.38480 ,43.02365 
60 ,11.0058 ,0.55408 ,4.36084 ,42.78860 
61 ,11.1819 ,0.55584 ,4.33689 ,42.55355 
62 ,11.3578 ,0.55763 ,4.31293 ,42.31850 
63 ,11.5338 ,0.55934 ,4.31636 ,42.35208 
64 ,11.7420 ,0.56132 ,4.29924 ,42.18419 
65 ,11.9500 ,0.56349 ,4.28556 ,42.04988 
66 ,12.1262 ,0.56527 ,4.26502 ,41.84841 
67 ,12.3023 ,0.56699 ,4.24107 ,41.61336 
68 ,12.4943 ,0.56896 ,4.23765 ,41.57978 
69 ,12.6540 ,0.57066 ,4.22396 ,41.44547 
70 ,12.8303 ,0.57229 ,4.22053 ,41.41189 
71 ,13.0064 ,0.57404 ,4.17947 ,41.00895 
72 ,13.1825 ,0.57581 ,4.17262 ,40.94179 
73 ,13.3586 ,0.57754 ,4.13840 ,40.60601 
74 ,13.5507 ,0.57955 ,4.14525 ,40.67317 
75 ,13.7265 ,0.58123 ,4.12129 ,40.43812 
76 ,13.8870 ,0.58299 ,4.09734 ,40.20307 
77 ,14.0789 ,0.58480 ,4.08365 ,40.06876 
78 ,14.2551 ,0.58656 ,4.09049 ,40.13591 
79 ,14.4311 ,0.58842 ,4.06654 ,39.90087 
80 ,14.6073 ,0.59005 ,4.05627 ,39.80013 
81 ,14.7989 ,0.59193 ,4.02205 ,39.46435 
82 ,14.9754 ,0.59371 ,4.02889 ,39.53150 
83 ,15.1513 ,0.59551 ,4.02205 ,39.46435 
84 ,15.3434 ,0.59735 ,3.99125 ,39.16214 
85 ,15.5195 ,0.59919 ,3.97072 ,38.96067 
86 ,15.7115 ,0.60105 ,3.97414 ,38.99425 
87 ,15.8876 ,0.60287 ,3.95018 ,38.75920 
88 ,16.0477 ,0.60457 ,3.92965 ,38.55773 
89 ,16.2238 ,0.60627 ,3.91254 ,38.38984 
90 ,16.3998 ,0.60799 ,3.88858 ,38.15479 
91 ,16.5919 ,0.60990 ,3.90570 ,38.32268 
92 ,16.7681 ,0.61168 ,3.87832 ,38.05406 
93 ,16.9600 ,0.61349 ,3.84752 ,37.75185 
94 ,17.1363 ,0.61535 ,3.84752 ,37.75185 
95 ,17.3123 ,0.61710 ,3.83383 ,37.61754 
96 ,17.5203 ,0.61913 ,3.80987 ,37.38249 
97 ,17.6964 ,0.62095 ,3.80645 ,37.34891 
98 ,17.8725 ,0.62273 ,3.78934 ,37.18102 
99 ,18.0325 ,0.62443 ,3.78250 ,37.11387 
100 ,18.2246 ,0.62618 ,3.75512 ,36.84524 
101 ,18.4003 ,0.62796 ,3.73801 ,36.67735 
102 ,18.5768 ,0.62971 ,3.71748 ,36.47588 
103 ,18.7528 ,0.63154 ,3.71405 ,36.44230 
104 ,18.9448 ,0.63344 ,3.69694 ,36.27441 
105 ,19.1210 ,0.63513 ,3.66272 ,35.93863 
106 ,19.3290 ,0.63720 ,3.66614 ,35.97220 
107 ,19.5051 ,0.63907 ,3.64561 ,35.77073 
108 ,19.6973 ,0.64089 ,3.62166 ,35.53569 
109 ,19.8731 ,0.64274 ,3.61481 ,35.46853 
110 ,20.0490 ,0.64441 ,3.61139 ,35.43495 
111 ,20.2255 ,0.64624 ,3.60112 ,35.33422 
112 ,20.4012 ,0.64803 ,3.57717 ,35.09917 
113 ,20.5776 ,0.64976 ,3.56348 ,34.96485 
114 ,20.7534 ,0.65154 ,3.54637 ,34.79696 
115 ,20.9456 ,0.65338 ,3.53952 ,34.72981 
116 ,21.1215 ,0.65517 ,3.51215 ,34.46118 
117 ,21.3140 ,0.65699 ,3.50188 ,34.36045 
118 ,21.4901 ,0.65887 ,3.48819 ,34.22613 
119 ,21.6661 ,0.66067 ,3.47792 ,34.12540 
120 ,21.8420 ,0.66237 ,3.45055 ,33.85677 
121 ,22.0182 ,0.66414 ,3.44028 ,33.75604 
122 ,22.2099 ,0.66606 ,3.44713 ,33.82319 
123 ,22.3863 ,0.66784 ,3.41975 ,33.55457 
124 ,22.5624 ,0.66954 ,3.39921 ,33.35310 
125 ,22.7385 ,0.67136 ,3.36499 ,33.01731 
126 ,22.9460 ,0.67329 ,3.37184 ,33.08447 
127 ,23.1386 ,0.67530 ,3.35130 ,32.88300 
128 ,23.3146 ,0.67708 ,3.33077 ,32.68153 
129 ,23.4905 ,0.67883 ,3.32393 ,32.61437 
130 ,23.6666 ,0.68063 ,3.32051 ,32.58080 
131 ,23.8587 ,0.68247 ,3.28971 ,32.27859 
132 ,24.0349 ,0.68426 ,3.26917 ,32.07712 
133 ,24.2269 ,0.68617 ,3.26917 ,32.07712 
134 ,24.4030 ,0.68800 ,3.25206 ,31.90923 
135 ,24.5952 ,0.68977 ,3.23495 ,31.74134 
136 ,24.7871 ,0.69183 ,3.22811 ,31.67418 
137 ,24.9629 ,0.69353 ,3.21442 ,31.53987 
138 ,25.1392 ,0.69531 ,3.17677 ,31.17051 
139 ,25.3153 ,0.69713 ,3.16309 ,31.03619 
140 ,25.5075 ,0.69899 ,3.17335 ,31.13693 
141 ,25.7312 ,0.70108 ,3.14940 ,30.90188 
142 ,25.9076 ,0.70298 ,3.13571 ,30.76757 
143 ,26.0838 ,0.70479 ,3.12544 ,30.66683 
144 ,26.2598 ,0.70655 ,3.10149 ,30.43178 
145 ,26.4355 ,0.70833 ,3.08095 ,30.23031 
146 ,26.6120 ,0.71005 ,3.06726 ,30.09600 
147 ,26.8040 ,0.71194 ,3.06726 ,30.09600 
148 ,26.9798 ,0.71375 ,3.03989 ,29.82737 
149 ,27.1722 ,0.71560 ,3.03304 ,29.76022 
150 ,27.3482 ,0.71742 ,3.03304 ,29.76022 
151 ,27.5240 ,0.71920 ,3.00909 ,29.52517 
152 ,27.7003 ,0.72095 ,2.99540 ,29.39086 
153 ,27.8765 ,0.72273 ,2.97487 ,29.18939 
154 ,28.0686 ,0.72457 ,2.96460 ,29.08865 
155 ,28.2446 ,0.72639 ,2.96118 ,29.05507 
156 ,28.4204 ,0.72811 ,2.94064 ,28.85360 
157 ,28.5965 ,0.72991 ,2.90642 ,28.51782 
158 ,28.7728 ,0.73165 ,2.89273 ,28.38351 
159 ,28.9809 ,0.73370 ,2.88589 ,28.31635 
160 ,29.1568 ,0.73550 ,2.87220 ,28.18204 
161 ,29.3330 ,0.73726 ,2.84825 ,27.94699 
162 ,29.5252 ,0.73907 ,2.84482 ,27.91341 
163 ,29.7172 ,0.74109 ,2.82087 ,27.67836 
164 ,29.9253 ,0.74316 ,2.82087 ,27.67836 
165 ,30.1012 ,0.74490 ,2.80376 ,27.51047 
166 ,30.2775 ,0.74672 ,2.79007 ,27.37616 
167 ,30.4534 ,0.74850 ,2.76611 ,27.14111 
168 ,30.6296 ,0.75023 ,2.75243 ,27.00680 
169 ,30.8217 ,0.75210 ,2.75585 ,27.04038 
170 ,31.0138 ,0.75404 ,2.72163 ,26.70459 
171 ,31.1898 ,0.75584 ,2.70452 ,26.53670 
172 ,31.3817 ,0.75778 ,2.70109 ,26.50312 
173 ,31.5578 ,0.75949 ,2.68056 ,26.30165 
174 ,31.7339 ,0.76128 ,2.66345 ,26.13376 
175 ,31.9100 ,0.76299 ,2.66345 ,26.13376 
176 ,32.1021 ,0.76494 ,2.65318 ,26.03303 
177 ,32.2941 ,0.76689 ,2.61212 ,25.63009 
178 ,32.4702 ,0.76864 ,2.61554 ,25.66367 
179 ,32.6463 ,0.77042 ,2.60527 ,25.56293 
180 ,32.8221 ,0.77210 ,2.59158 ,25.42862 
181 ,32.9982 ,0.77387 ,2.58132 ,25.32788 
182 ,33.1747 ,0.77564 ,2.55736 ,25.09283 
183 ,33.3667 ,0.77755 ,2.55052 ,25.02568 
184 ,33.5586 ,0.77943 ,2.53683 ,24.89136 
185 ,33.7507 ,0.78131 ,2.51630 ,24.68989 
186 ,33.9265 ,0.78323 ,2.50261 ,24.55558 
187 ,34.1030 ,0.78495 ,2.48892 ,24.42127 
188 ,34.2950 ,0.78683 ,2.46496 ,24.18622 
189 ,34.4708 ,0.78857 ,2.45127 ,24.05191 
190 ,34.6472 ,0.79048 ,2.45127 ,24.05191 
191 ,34.8392 ,0.79227 ,2.42048 ,23.74970 
192 ,35.0313 ,0.79421 ,2.41363 ,23.68255 
193 ,35.2074 ,0.79597 ,2.39652 ,23.51465 
194 ,35.3834 ,0.79776 ,2.39652 ,23.51465 
195 ,35.5756 ,0.79951 ,2.37941 ,23.34676 
196 ,35.7836 ,0.80166 ,2.35888 ,23.14529 
197 ,35.9592 ,0.80352 ,2.34519 ,23.01098 
198 ,36.1196 ,0.80518 ,2.32808 ,22.84309 
199 ,36.2959 ,0.80686 ,2.31439 ,22.70877 
200 ,36.4719 ,0.80859 ,2.29728 ,22.54088 
201 ,36.6481 ,0.81039 ,2.29043 ,22.47373 
202 ,36.8400 ,0.81221 ,2.26648 ,22.23868 
203 ,37.0322 ,0.81418 ,2.25279 ,22.10437 
204 ,37.2242 ,0.81617 ,2.24594 ,22.03721 
205 ,37.4163 ,0.81810 ,2.22883 ,21.86932 
206 ,37.5926 ,0.81985 ,2.20830 ,21.66785 
207 ,37.7686 ,0.82161 ,2.19803 ,21.56711 
208 ,37.9601 ,0.82348 ,2.17408 ,21.33206 
209 ,38.1362 ,0.82534 ,2.17750 ,21.36564 
210 ,38.3287 ,0.82712 ,2.16381 ,21.23133 
211 ,38.5208 ,0.82916 ,2.15355 ,21.13059 
212 ,38.7130 ,0.83107 ,2.12275 ,20.82839 
213 ,38.8891 ,0.83282 ,2.11248 ,20.72766 
214 ,39.0809 ,0.83468 ,2.10221 ,20.62692 
215 ,39.2571 ,0.83643 ,2.07826 ,20.39187 
216 ,39.4335 ,0.83821 ,2.06457 ,20.25756 
217 ,39.6249 ,0.84015 ,2.06457 ,20.25756 
218 ,39.8012 ,0.84188 ,2.05088 ,20.12325 
219 ,39.9771 ,0.84362 ,2.04061 ,20.02251 
220 ,40.1535 ,0.84547 ,2.00639 ,19.68673 
221 ,40.3294 ,0.84731 ,2.00982 ,19.72031 
222 ,40.5057 ,0.84897 ,2.00639 ,19.68673 
223 ,40.6818 ,0.85073 ,1.97559 ,19.38452 
224 ,40.8740 ,0.85266 ,1.95506 ,19.18305 
225 ,41.0499 ,0.85436 ,1.93795 ,19.01516 
226 ,41.2420 ,0.85624 ,1.95506 ,19.18305 
227 ,41.4180 ,0.85805 ,1.93453 ,18.98158 
228 ,41.5942 ,0.85984 ,1.90373 ,18.67938 
229 ,41.7703 ,0.86158 ,1.89004 ,18.54507 
230 ,41.9462 ,0.86338 ,1.88662 ,18.51149 
231 ,42.1379 ,0.86523 ,1.85582 ,18.20928 
232 ,42.3141 ,0.86703 ,1.85582 ,18.20928 
233 ,42.4903 ,0.86873 ,1.83871 ,18.04139 
234 ,42.6825 ,0.87069 ,1.82844 ,17.94066 
235 ,42.8585 ,0.87251 ,1.82844 ,17.94066 
236 ,43.0347 ,0.87424 ,1.80106 ,17.67203 
237 ,43.2107 ,0.87599 ,1.78053 ,17.47056 
238 ,43.4029 ,0.87781 ,1.78737 ,17.53772 
239 ,43.5949 ,0.87981 ,1.74289 ,17.10120 
240 ,43.8029 ,0.88184 ,1.75315 ,17.20193 
241 ,43.9626 ,0.88361 ,1.74289 ,17.10120 
242 ,44.1552 ,0.88536 ,1.70524 ,16.73184 
243 ,44.3631 ,0.88743 ,1.71209 ,16.79899 
244 ,44.5228 ,0.88923 ,1.69840 ,16.66468 
245 ,44.6993 ,0.89086 ,1.68813 ,16.56395 
246 ,44.8753 ,0.89259 ,1.66075 ,16.29532 
247 ,45.0515 ,0.89434 ,1.64364 ,16.12743 
248 ,45.2435 ,0.89625 ,1.63338 ,16.02669 
249 ,45.4358 ,0.89810 ,1.62995 ,15.99311 
250 ,45.6277 ,0.90016 ,1.60942 ,15.79164 
251 ,45.8036 ,0.90188 ,1.61284 ,15.82522 
252 ,45.9800 ,0.90371 ,1.58889 ,15.59018 
253 ,46.1558 ,0.90545 ,1.56493 ,15.35513 
254 ,46.3320 ,0.90714 ,1.55124 ,15.22081 
255 ,46.5080 ,0.90895 ,1.53071 ,15.01934 
256 ,46.6682 ,0.91065 ,1.54098 ,15.12008 
257 ,46.8443 ,0.91233 ,1.52045 ,14.91861 
258 ,47.0201 ,0.91400 ,1.51702 ,14.88503 
259 ,47.1965 ,0.91583 ,1.48622 ,14.58283 
260 ,47.3886 ,0.91769 ,1.48622 ,14.58283 
261 ,47.5642 ,0.91950 ,1.47596 ,14.48209 
262 ,47.7401 ,0.92123 ,1.45885 ,14.31420 
263 ,47.9161 ,0.92301 ,1.43831 ,14.11273 
264 ,48.0927 ,0.92483 ,1.42462 ,13.97842 
265 ,48.3169 ,0.92702 ,1.40409 ,13.77695 
266 ,48.5087 ,0.92893 ,1.40067 ,13.74337 
267 ,48.6851 ,0.93075 ,1.38698 ,13.60906 
268 ,48.8930 ,0.93272 ,1.36645 ,13.40759 
269 ,49.0851 ,0.93472 ,1.35276 ,13.27327 
270 ,49.2610 ,0.93648 ,1.34934 ,13.23969 
271 ,49.4372 ,0.93827 ,1.32196 ,12.97107 
272 ,49.6292 ,0.94011 ,1.29458 ,12.70244 
273 ,49.8050 ,0.94190 ,1.31512 ,12.90391 
274 ,49.9650 ,0.94362 ,1.30827 ,12.83675 
275 ,50.1574 ,0.94543 ,1.28774 ,12.63528 
276 ,50.3658 ,0.94741 ,1.27405 ,12.50097 
277 ,50.5415 ,0.94926 ,1.26378 ,12.40024 
278 ,50.7336 ,0.95117 ,1.23641 ,12.13161 
279 ,50.9094 ,0.95294 ,1.22272 ,11.99730 
280 ,51.1018 ,0.95479 ,1.21929 ,11.96372 
281 ,51.2938 ,0.95678 ,1.19534 ,11.72867 
282 ,51.4861 ,0.95859 ,1.18165 ,11.59436 
283 ,51.6781 ,0.96063 ,1.17138 ,11.49362 
284 ,51.8542 ,0.96241 ,1.14743 ,11.25857 
285 ,52.0299 ,0.96410 ,1.14058 ,11.19142 
286 ,52.2064 ,0.96589 ,1.13032 ,11.09068 
287 ,52.3984 ,0.96782 ,1.11663 ,10.95637 
288 ,52.5745 ,0.96957 ,1.10979 ,10.88921 
289 ,52.7825 ,0.97161 ,1.09952 ,10.78848 
290 ,52.9583 ,0.97341 ,1.08583 ,10.65416 
291 ,53.1345 ,0.97516 ,1.08241 ,10.62059 
292 ,53.3268 ,0.97712 ,1.06187 ,10.41912 
293 ,53.5027 ,0.97891 ,1.03792 ,10.18407 
294 ,53.6789 ,0.98061 ,1.03450 ,10.15049 
295 ,53.8549 ,0.98239 ,1.01054 ,9.91544 
296 ,54.0309 ,0.98411 ,1.00370 ,9.84829 
297 ,54.2071 ,0.98589 ,1.00028 ,9.81471 
298 ,54.3991 ,0.98790 ,0.97290 ,9.54608 
299 ,54.5753 ,0.98955 ,0.96948 ,9.51250 
300 ,54.7674 ,0.99150 ,0.96605 ,9.47892 
301 ,54.9754 ,0.99344 ,0.93525 ,9.17672 
302 ,55.1511 ,0.99545 ,0.93868 ,9.21030 
303 ,55.3276 ,0.99713 ,0.91472 ,8.97525 
304 ,55.5196 ,0.99899 ,0.91814 ,9.00883 
305 ,55.6957 ,1.00077 ,0.89761 ,8.80736 
306 ,55.8877 ,1.00267 ,0.88392 ,8.67305 
307 ,56.0640 ,1.00443 ,0.87708 ,8.60589 
308 ,56.2555 ,1.00631 ,0.84628 ,8.30368 
309 ,56.4321 ,1.00809 ,0.84628 ,8.30368 
310 ,56.6399 ,1.01016 ,0.83601 ,8.20295 
311 ,56.8163 ,1.01201 ,0.82575 ,8.10221 
312 ,57.0082 ,1.01385 ,0.81548 ,8.00148 
313 ,57.1845 ,1.01565 ,0.80521 ,7.90074 
314 ,57.3603 ,1.01753 ,0.78126 ,7.66570 
315 ,57.5366 ,1.01920 ,0.77441 ,7.59854 
316 ,57.7285 ,1.02115 ,0.76757 ,7.53138 
317 ,57.9042 ,1.02283 ,0.75730 ,7.43065 
318 ,58.0802 ,1.02466 ,0.74361 ,7.29633 
319 ,58.2564 ,1.02637 ,0.73335 ,7.19560 
320 ,58.4484 ,1.02825 ,0.70597 ,6.92697 
321 ,58.6244 ,1.03007 ,0.69913 ,6.85982 
322 ,58.8165 ,1.03192 ,0.69228 ,6.79266 
323 ,58.9926 ,1.03376 ,0.67859 ,6.65835 
324 ,59.1686 ,1.03555 ,0.67517 ,6.62477 
325 ,59.3451 ,1.03731 ,0.65806 ,6.45688 
326 ,59.5531 ,1.03928 ,0.62384 ,6.12109 
327 ,59.7613 ,1.04137 ,0.63753 ,6.25541 
328 ,59.9374 ,1.04319 ,0.62384 ,6.12109 
329 ,60.1136 ,1.04497 ,0.59988 ,5.88605 
330 ,60.3054 ,1.04682 ,0.58619 ,5.75173 
331 ,60.4817 ,1.04864 ,0.58962 ,5.78531 
332 ,60.6738 ,1.05058 ,0.56566 ,5.55026 
333 ,60.8657 ,1.05244 ,0.56224 ,5.51668 
334 ,61.0419 ,1.05421 ,0.55197 ,5.41595 
335 ,61.2175 ,1.05606 ,0.52117 ,5.11375 
336 ,61.3936 ,1.05779 ,0.52802 ,5.18090 
337 ,61.5697 ,1.05950 ,0.50748 ,4.97943 
338 ,61.7618 ,1.06138 ,0.51433 ,5.04659 
339 ,61.9379 ,1.06317 ,0.49037 ,4.81154 
340 ,62.1138 ,1.06493 ,0.48353 ,4.74438 
341 ,62.2899 ,1.06667 ,0.45957 ,4.50934 
342 ,62.4660 ,1.06848 ,0.45957 ,4.50934 
343 ,62.6260 ,1.07017 ,0.45273 ,4.44218 
344 ,62.8183 ,1.07190 ,0.42877 ,4.20713 
345 ,62.9943 ,1.07374 ,0.42877 ,4.20713 
346 ,63.1542 ,1.07549 ,0.40482 ,3.97208 
347 ,63.3305 ,1.07708 ,0.39797 ,3.90493 
348 ,63.5064 ,1.07891 ,0.40140 ,3.93850 
349 ,63.6825 ,1.08062 ,0.39455 ,3.87135 
350 ,63.8585 ,1.08245 ,0.37402 ,3.66988 
351 ,64.0346 ,1.08414 ,0.36033 ,3.53557 
352 ,64.2267 ,1.08598 ,0.35006 ,3.43483 
353 ,64.4188 ,1.08793 ,0.33980 ,3.33410 
354 ,64.5949 ,1.08974 ,0.34322 ,3.36767 
355 ,64.7550 ,1.09146 ,0.31584 ,3.09905 
356 ,64.9470 ,1.09318 ,0.30900 ,3.03189 
357 ,65.1232 ,1.09506 ,0.29873 ,2.93116 
358 ,65.2993 ,1.09675 ,0.29873 ,2.93116 
359 ,65.4753 ,1.09852 ,0.27478 ,2.69611 
360 ,65.6514 ,1.10028 ,0.25767 ,2.52822 
361 ,65.8274 ,1.10204 ,0.24398 ,2.39390 
362 ,66.0197 ,1.10401 ,0.25767 ,2.52822 
363 ,66.2118 ,1.10586 ,0.23029 ,2.25959 
364 ,66.4036 ,1.10780 ,0.22344 ,2.19243 
365 ,66.5801 ,1.10958 ,0.22002 ,2.15885 
366 ,66.7720 ,1.11150 ,0.17896 ,1.75592 
367 ,66.9639 ,1.11335 ,0.19949 ,1.95738 
368 ,67.1403 ,1.11519 ,0.19264 ,1.89023 
369 ,67.3163 ,1.11695 ,0.17211 ,1.68876 
370 ,67.5083 ,1.11885 ,0.15158 ,1.48729 
371 ,67.6848 ,1.12066 ,0.15158 ,1.48729 
372 ,67.8926 ,1.12261 ,0.13105 ,1.28582 
373 ,68.0846 ,1.12474 ,0.14131 ,1.38655 
374 ,68.2444 ,1.12636 ,0.12078 ,1.18508 
375 ,68.4208 ,1.12802 ,0.10709 ,1.05077 
376 ,68.6128 ,1.12985 ,0.09682 ,0.95004 
377 ,68.8049 ,1.13176 ,0.07971 ,0.78214 
378 ,68.9970 ,1.13372 ,0.08314 ,0.81572 
379 ,69.1890 ,1.13561 ,0.04891 ,0.47994 
380 ,69.3651 ,1.13742 ,0.04891 ,0.47994 
381 ,69.5571 ,1.13937 ,0.04549 ,0.44636 
382 ,69.7492 ,1.14131 ,0.03522 ,0.34563 
383 ,69.9414 ,1.14313 ,0.03180 ,0.31205 
384 ,70.1332 ,1.14510 ,0.01469 ,0.14416 
385 ,70.3255 ,1.14692 ,0.00785 ,0.07700 
386 ,70.5177 ,1.14896 ,-0.01269 ,-0.12447 
387 ,70.7096 ,1.15087 ,-0.04348 ,-0.42667 
388 ,70.9018 ,1.15271 ,-0.02980 ,-0.29236 
389 ,71.0937 ,1.15470 ,-0.05033 ,-0.49383 
390 ,71.2697 ,1.15650 ,-0.07428 ,-0.72888 
391 ,71.4463 ,1.15822 ,-0.07086 ,-0.69530 
392 ,71.6380 ,1.16008 ,-0.08113 ,-0.79604 
393 ,71.8141 ,1.16191 ,-0.09140 ,-0.89677 
394 ,72.0066 ,1.16373 ,-0.10166 ,-0.99751 
395 ,72.1984 ,1.16577 ,-0.10508 ,-1.03108 
396 ,72.3907 ,1.16763 ,-0.13246 ,-1.29971 
397 ,72.5825 ,1.16963 ,-0.13246 ,-1.29971 
398 ,72.7745 ,1.17144 ,-0.14615 ,-1.43402 
399 ,72.9667 ,1.17336 ,-0.14273 ,-1.40045 
400 ,73.1584 ,1.17531 ,-0.15984 ,-1.56834 
401 ,73.3346 ,1.17708 ,-0.17011 ,-1.66907 
402 ,73.5109 ,1.17884 ,-0.18722 ,-1.83696 
403 ,73.7029 ,1.18071 ,-0.19064 ,-1.87054 
404 ,73.8791 ,1.18252 ,-0.19406 ,-1.90412 
405 ,74.0548 ,1.18440 ,-0.22144 ,-2.17275 
406 ,74.2151 ,1.18601 ,-0.22828 ,-2.23990 
407 ,74.3909 ,1.18763 ,-0.24539 ,-2.40779 
408 ,74.5675 ,1.18944 ,-0.24881 ,-2.44137 
409 ,74.7593 ,1.19136 ,-0.23855 ,-2.34064 
410 ,74.9354 ,1.19316 ,-0.25224 ,-2.47495 
411 ,75.1272 ,1.19499 ,-0.27277 ,-2.67642 
412 ,75.3035 ,1.19681 ,-0.28646 ,-2.81073 
413 ,75.5114 ,1.19875 ,-0.27961 ,-2.74358 
414 ,75.6881 ,1.20063 ,-0.31726 ,-3.11294 
415 ,75.8797 ,1.20248 ,-0.31384 ,-3.07936 
416 ,76.0563 ,1.20432 ,-0.32068 ,-3.14652 
417 ,76.2480 ,1.20614 ,-0.33437 ,-3.28083 
418 ,76.4560 ,1.20815 ,-0.33095 ,-3.24725 
419 ,76.6641 ,1.21034 ,-0.34806 ,-3.41514 
420 ,76.8726 ,1.21237 ,-0.33779 ,-3.31441 
421 ,77.0642 ,1.21438 ,-0.37544 ,-3.68377 
422 ,77.2402 ,1.21608 ,-0.37886 ,-3.71735 
423 ,77.4166 ,1.21790 ,-0.38228 ,-3.75093 
424 ,77.5924 ,1.21962 ,-0.40623 ,-3.98597 
425 ,77.7689 ,1.22143 ,-0.40966 ,-4.01955 
426 ,77.9607 ,1.22331 ,-0.40966 ,-4.01955 
427 ,78.1364 ,1.22513 ,-0.43361 ,-4.25460 
428 ,78.3130 ,1.22684 ,-0.45072 ,-4.42249 
429 ,78.5049 ,1.22884 ,-0.44388 ,-4.35534 
430 ,78.6809 ,1.23053 ,-0.45414 ,-4.45607 
431 ,78.8730 ,1.23248 ,-0.46099 ,-4.52323 
432 ,79.0655 ,1.23440 ,-0.48152 ,-4.72470 
433 ,79.2571 ,1.23628 ,-0.47468 ,-4.65754 
434 ,79.4332 ,1.23811 ,-0.48837 ,-4.79185 
435 ,79.6256 ,1.24002 ,-0.50206 ,-4.92617 
436 ,79.8175 ,1.24190 ,-0.49179 ,-4.82543 
437 ,80.0097 ,1.24378 ,-0.52601 ,-5.16121 
438 ,80.2174 ,1.24585 ,-0.51917 ,-5.09406 
439 ,80.3937 ,1.24771 ,-0.53970 ,-5.29553 
440 ,80.5859 ,1.24959 ,-0.56023 ,-5.49700 
441 ,80.7779 ,1.25149 ,-0.54997 ,-5.39626 
442 ,80.9698 ,1.25337 ,-0.58077 ,-5.69847 
443 ,81.1456 ,1.25531 ,-0.57392 ,-5.63131 
444 ,81.3219 ,1.25700 ,-0.58077 ,-5.69847 
445 ,81.5141 ,1.25882 ,-0.59103 ,-5.79920 
446 ,81.7062 ,1.26070 ,-0.60472 ,-5.93352 
447 ,81.8981 ,1.26272 ,-0.60472 ,-5.93352 
448 ,82.0905 ,1.26459 ,-0.61841 ,-6.06783 
449 ,82.2662 ,1.26638 ,-0.63552 ,-6.23572 
450 ,82.4426 ,1.26816 ,-0.63894 ,-6.26930 
451 ,82.6185 ,1.26990 ,-0.63210 ,-6.20214 
452 ,82.7950 ,1.27169 ,-0.65605 ,-6.43719 
453 ,82.9707 ,1.27345 ,-0.66290 ,-6.50435 
454 ,83.1624 ,1.27535 ,-0.66290 ,-6.50435 
455 ,83.3552 ,1.27714 ,-0.67316 ,-6.60508 
456 ,83.5629 ,1.27930 ,-0.68685 ,-6.73940 
457 ,83.7548 ,1.28122 ,-0.69712 ,-6.84013 
458 ,83.9468 ,1.28317 ,-0.72107 ,-7.07518 
459 ,84.1068 ,1.28489 ,-0.72107 ,-7.07518 
460 ,84.2829 ,1.28658 ,-0.72107 ,-7.07518 
461 ,84.4592 ,1.28830 ,-0.73134 ,-7.17591 
462 ,84.6513 ,1.29020 ,-0.74161 ,-7.27665 
463 ,84.8435 ,1.29209 ,-0.74503 ,-7.31023 
