Data stamp = , 06-04-2022 06:17:57 490

Calibration Values: 
Slope = , 26.54 , g/V 
Offset Voltage at no contact = , -0.501760 , V 

No , Time , Stage Position ,   Mass , Force 
   ,  (s) ,      (mm)      ,   (g)  , (mN)  

1 ,0.0000 ,0.44936 ,5.19927 ,51.01528 
2 ,0.2303 ,0.44947 ,5.20270 ,51.04886 
3 ,0.5349 ,0.45028 ,5.18559 ,50.88097 
4 ,0.7429 ,0.45177 ,5.18901 ,50.91455 
5 ,0.9189 ,0.45334 ,5.19585 ,50.98170 
6 ,1.0948 ,0.45511 ,5.19927 ,51.01528 
7 ,1.2870 ,0.45691 ,5.17874 ,50.81381 
8 ,1.4631 ,0.45871 ,5.16848 ,50.71308 
9 ,1.6553 ,0.46069 ,5.17874 ,50.81381 
10 ,1.8472 ,0.46263 ,5.15479 ,50.57876 
11 ,2.0555 ,0.46467 ,5.16163 ,50.64592 
12 ,2.2314 ,0.46648 ,5.15821 ,50.61234 
13 ,2.4072 ,0.46821 ,5.12399 ,50.27656 
14 ,2.5833 ,0.46996 ,5.13083 ,50.34372 
15 ,2.7436 ,0.47165 ,5.13425 ,50.37729 
16 ,2.9198 ,0.47336 ,5.10003 ,50.04151 
17 ,3.0956 ,0.47518 ,5.10688 ,50.10867 
18 ,3.2720 ,0.47685 ,5.09661 ,50.00793 
19 ,3.4641 ,0.47878 ,5.07608 ,49.80646 
20 ,3.6560 ,0.48060 ,5.08292 ,49.87362 
21 ,3.8319 ,0.48245 ,5.05897 ,49.63857 
22 ,4.0084 ,0.48426 ,5.04185 ,49.47068 
23 ,4.1841 ,0.48598 ,5.01106 ,49.16848 
24 ,4.3604 ,0.48776 ,5.00763 ,49.13490 
25 ,4.5364 ,0.48952 ,5.00079 ,49.06774 
26 ,4.7284 ,0.49140 ,4.97341 ,48.79911 
27 ,4.9044 ,0.49315 ,4.94946 ,48.56407 
28 ,5.0806 ,0.49493 ,4.94261 ,48.49691 
29 ,5.2728 ,0.49687 ,4.92550 ,48.32902 
30 ,5.4649 ,0.49872 ,4.91523 ,48.22828 
31 ,5.6568 ,0.50064 ,4.90497 ,48.12755 
32 ,5.8331 ,0.50248 ,4.88786 ,47.95966 
33 ,6.0247 ,0.50430 ,4.84679 ,47.55672 
34 ,6.1851 ,0.50608 ,4.84337 ,47.52314 
35 ,6.3771 ,0.50793 ,4.83995 ,47.48956 
36 ,6.5534 ,0.50963 ,4.82284 ,47.32167 
37 ,6.7295 ,0.51144 ,4.79888 ,47.08662 
38 ,6.9215 ,0.51331 ,4.77493 ,46.85157 
39 ,7.0972 ,0.51514 ,4.78177 ,46.91873 
40 ,7.2735 ,0.51682 ,4.75782 ,46.68368 
41 ,7.4498 ,0.51866 ,4.73728 ,46.48221 
42 ,7.6415 ,0.52051 ,4.70306 ,46.14643 
43 ,7.8338 ,0.52246 ,4.70648 ,46.18001 
44 ,8.0099 ,0.52421 ,4.68595 ,45.97854 
45 ,8.1860 ,0.52597 ,4.65857 ,45.70991 
46 ,8.3621 ,0.52775 ,4.64146 ,45.54202 
47 ,8.5380 ,0.52946 ,4.64488 ,45.57560 
48 ,8.7144 ,0.53125 ,4.62093 ,45.34055 
49 ,8.8902 ,0.53300 ,4.61408 ,45.27339 
50 ,9.0983 ,0.53498 ,4.57986 ,44.93761 
51 ,9.2744 ,0.53680 ,4.59013 ,45.03835 
52 ,9.4667 ,0.53876 ,4.55933 ,44.73614 
53 ,9.6585 ,0.54061 ,4.53195 ,44.46751 
54 ,9.8346 ,0.54243 ,4.52853 ,44.43394 
55 ,10.0109 ,0.54419 ,4.51826 ,44.33320 
56 ,10.1867 ,0.54596 ,4.48062 ,43.96384 
57 ,10.3628 ,0.54775 ,4.46693 ,43.82953 
58 ,10.5549 ,0.54972 ,4.45666 ,43.72879 
59 ,10.7469 ,0.55152 ,4.43613 ,43.52732 
60 ,10.9238 ,0.55336 ,4.42586 ,43.42659 
61 ,11.1311 ,0.55527 ,4.42586 ,43.42659 
62 ,11.3233 ,0.55738 ,4.39164 ,43.09080 
63 ,11.4991 ,0.55910 ,4.37453 ,42.92291 
64 ,11.6914 ,0.56098 ,4.36427 ,42.82218 
65 ,11.8994 ,0.56305 ,4.33347 ,42.51997 
66 ,12.0912 ,0.56498 ,4.33347 ,42.51997 
67 ,12.2676 ,0.56674 ,4.30609 ,42.25135 
68 ,12.4437 ,0.56851 ,4.28556 ,42.04988 
69 ,12.6199 ,0.57031 ,4.27529 ,41.94914 
70 ,12.8121 ,0.57224 ,4.26502 ,41.84841 
71 ,13.0200 ,0.57425 ,4.24791 ,41.68051 
72 ,13.1960 ,0.57603 ,4.23422 ,41.54620 
73 ,13.3722 ,0.57782 ,4.21711 ,41.37831 
74 ,13.5479 ,0.57967 ,4.19658 ,41.17684 
75 ,13.7404 ,0.58149 ,4.17947 ,41.00895 
76 ,13.9164 ,0.58326 ,4.17262 ,40.94179 
77 ,14.0923 ,0.58505 ,4.16920 ,40.90821 
78 ,14.2686 ,0.58680 ,4.15551 ,40.77390 
79 ,14.4603 ,0.58871 ,4.11787 ,40.40454 
80 ,14.6365 ,0.59046 ,4.10418 ,40.27023 
81 ,14.8448 ,0.59251 ,4.07680 ,40.00160 
82 ,15.0208 ,0.59433 ,4.06312 ,39.86729 
83 ,15.1967 ,0.59599 ,4.06312 ,39.86729 
84 ,15.3728 ,0.59782 ,4.05285 ,39.76655 
85 ,15.5650 ,0.59971 ,4.01863 ,39.43077 
86 ,15.7409 ,0.60150 ,4.00152 ,39.26288 
87 ,15.9332 ,0.60338 ,4.00836 ,39.33003 
88 ,16.1251 ,0.60531 ,3.97072 ,38.96067 
89 ,16.3013 ,0.60712 ,3.95361 ,38.79278 
90 ,16.4772 ,0.60885 ,3.95361 ,38.79278 
91 ,16.6536 ,0.61060 ,3.94334 ,38.69205 
92 ,16.8296 ,0.61241 ,3.92965 ,38.55773 
93 ,17.0057 ,0.61420 ,3.90227 ,38.28911 
94 ,17.1976 ,0.61595 ,3.88174 ,38.08764 
95 ,17.3738 ,0.61781 ,3.87832 ,38.05406 
96 ,17.5658 ,0.61969 ,3.84410 ,37.71828 
97 ,17.7420 ,0.62149 ,3.83725 ,37.65112 
98 ,17.9180 ,0.62329 ,3.82014 ,37.48323 
99 ,18.0938 ,0.62499 ,3.82699 ,37.55038 
100 ,18.2700 ,0.62675 ,3.79961 ,37.28176 
101 ,18.4620 ,0.62870 ,3.77565 ,37.04671 
102 ,18.6383 ,0.63047 ,3.75512 ,36.84524 
103 ,18.8623 ,0.63254 ,3.74485 ,36.74450 
104 ,19.0544 ,0.63463 ,3.73459 ,36.64377 
105 ,19.2304 ,0.63634 ,3.72774 ,36.57661 
106 ,19.4064 ,0.63815 ,3.70379 ,36.34157 
107 ,19.5986 ,0.63998 ,3.67641 ,36.07294 
108 ,19.7903 ,0.64198 ,3.68325 ,36.14010 
109 ,19.9665 ,0.64372 ,3.66272 ,35.93863 
110 ,20.1429 ,0.64551 ,3.63534 ,35.67000 
111 ,20.3186 ,0.64724 ,3.61823 ,35.50211 
112 ,20.4947 ,0.64902 ,3.61823 ,35.50211 
113 ,20.6711 ,0.65080 ,3.60797 ,35.40137 
114 ,20.8470 ,0.65250 ,3.57717 ,35.09917 
115 ,21.0233 ,0.65433 ,3.56690 ,34.99843 
116 ,21.2154 ,0.65619 ,3.55321 ,34.86412 
117 ,21.3915 ,0.65800 ,3.53610 ,34.69623 
118 ,21.5837 ,0.65986 ,3.50872 ,34.42760 
119 ,21.7595 ,0.66163 ,3.50188 ,34.36045 
120 ,21.9352 ,0.66345 ,3.49161 ,34.25971 
121 ,22.1277 ,0.66524 ,3.48135 ,34.15898 
122 ,22.3356 ,0.66737 ,3.47450 ,34.09182 
123 ,22.5118 ,0.66918 ,3.45397 ,33.89035 
124 ,22.7037 ,0.67109 ,3.42659 ,33.62172 
125 ,22.8959 ,0.67310 ,3.42317 ,33.58814 
126 ,23.0719 ,0.67473 ,3.41290 ,33.48741 
127 ,23.2481 ,0.67651 ,3.39237 ,33.28594 
128 ,23.4242 ,0.67833 ,3.36499 ,33.01731 
129 ,23.6165 ,0.68026 ,3.36157 ,32.98374 
130 ,23.7924 ,0.68201 ,3.33762 ,32.74869 
131 ,23.9845 ,0.68390 ,3.32393 ,32.61437 
132 ,24.1603 ,0.68574 ,3.29997 ,32.37933 
133 ,24.3364 ,0.68741 ,3.28628 ,32.24501 
134 ,24.5287 ,0.68925 ,3.28628 ,32.24501 
135 ,24.7208 ,0.69128 ,3.25548 ,31.94281 
136 ,24.9130 ,0.69316 ,3.25206 ,31.90923 
137 ,25.0888 ,0.69492 ,3.24864 ,31.87565 
138 ,25.2651 ,0.69671 ,3.22126 ,31.60702 
139 ,25.4571 ,0.69861 ,3.20073 ,31.40555 
140 ,25.6331 ,0.70036 ,3.19046 ,31.30482 
141 ,25.8092 ,0.70216 ,3.19046 ,31.30482 
142 ,26.0014 ,0.70407 ,3.13571 ,30.76757 
143 ,26.1770 ,0.70582 ,3.13229 ,30.73399 
144 ,26.3536 ,0.70760 ,3.13571 ,30.76757 
145 ,26.5775 ,0.70970 ,3.11860 ,30.59968 
146 ,26.7696 ,0.71171 ,3.10149 ,30.43178 
147 ,26.9456 ,0.71349 ,3.07753 ,30.19674 
148 ,27.1376 ,0.71546 ,3.06042 ,30.02884 
149 ,27.3136 ,0.71720 ,3.06384 ,30.06242 
150 ,27.4899 ,0.71894 ,3.05015 ,29.92811 
151 ,27.6820 ,0.72083 ,3.01935 ,29.62590 
152 ,27.8742 ,0.72280 ,2.99882 ,29.42444 
153 ,28.0502 ,0.72458 ,2.99882 ,29.42444 
154 ,28.2422 ,0.72643 ,2.96802 ,29.12223 
155 ,28.4183 ,0.72819 ,2.96118 ,29.05507 
156 ,28.6105 ,0.73010 ,2.95776 ,29.02150 
157 ,28.7865 ,0.73188 ,2.93722 ,28.82003 
158 ,28.9624 ,0.73366 ,2.92353 ,28.68571 
159 ,29.1387 ,0.73541 ,2.89273 ,28.38351 
160 ,29.3148 ,0.73719 ,2.89273 ,28.38351 
161 ,29.4907 ,0.73895 ,2.89616 ,28.41709 
162 ,29.6827 ,0.74083 ,2.85509 ,28.01415 
163 ,29.8590 ,0.74258 ,2.83798 ,27.84625 
164 ,30.0347 ,0.74446 ,2.84140 ,27.87983 
165 ,30.2269 ,0.74618 ,2.82771 ,27.74552 
166 ,30.4191 ,0.74825 ,2.79007 ,27.37616 
167 ,30.6113 ,0.75016 ,2.79349 ,27.40974 
168 ,30.7873 ,0.75195 ,2.77638 ,27.24185 
169 ,30.9792 ,0.75383 ,2.75585 ,27.04038 
170 ,31.1554 ,0.75557 ,2.73531 ,26.83891 
171 ,31.3472 ,0.75746 ,2.73189 ,26.80533 
172 ,31.5231 ,0.75927 ,2.71478 ,26.63744 
173 ,31.6993 ,0.76102 ,2.70109 ,26.50312 
174 ,31.8916 ,0.76286 ,2.68740 ,26.36881 
175 ,32.0998 ,0.76497 ,2.66687 ,26.16734 
176 ,32.2757 ,0.76678 ,2.64976 ,25.99945 
177 ,32.4519 ,0.76854 ,2.65318 ,26.03303 
178 ,32.6439 ,0.77054 ,2.62238 ,25.73082 
179 ,32.8200 ,0.77224 ,2.60869 ,25.59651 
180 ,32.9961 ,0.77395 ,2.58816 ,25.39504 
181 ,33.1561 ,0.77565 ,2.58816 ,25.39504 
182 ,33.3482 ,0.77742 ,2.56763 ,25.19357 
183 ,33.5239 ,0.77938 ,2.55052 ,25.02568 
184 ,33.7003 ,0.78108 ,2.53341 ,24.85779 
185 ,33.8923 ,0.78287 ,2.52656 ,24.79063 
186 ,34.0844 ,0.78473 ,2.52314 ,24.75705 
187 ,34.2764 ,0.78674 ,2.49234 ,24.45485 
188 ,34.4688 ,0.78867 ,2.48892 ,24.42127 
189 ,34.6604 ,0.79058 ,2.45812 ,24.11906 
190 ,34.8367 ,0.79236 ,2.43759 ,23.91759 
191 ,35.0448 ,0.79437 ,2.42732 ,23.81686 
192 ,35.2530 ,0.79654 ,2.41363 ,23.68255 
193 ,35.4289 ,0.79829 ,2.42048 ,23.74970 
194 ,35.6212 ,0.80030 ,2.37599 ,23.31318 
195 ,35.7970 ,0.80199 ,2.36572 ,23.21245 
196 ,35.9733 ,0.80373 ,2.37256 ,23.27961 
197 ,36.1494 ,0.80545 ,2.35203 ,23.07814 
198 ,36.3416 ,0.80743 ,2.33150 ,22.87667 
199 ,36.5178 ,0.80924 ,2.31097 ,22.67520 
200 ,36.6934 ,0.81095 ,2.29385 ,22.50731 
201 ,36.8697 ,0.81267 ,2.30070 ,22.57446 
202 ,37.0458 ,0.81444 ,2.28359 ,22.40657 
203 ,37.2378 ,0.81632 ,2.25279 ,22.10437 
204 ,37.4141 ,0.81817 ,2.24594 ,22.03721 
205 ,37.5900 ,0.81992 ,2.23568 ,21.93647 
206 ,37.7659 ,0.82164 ,2.23226 ,21.90290 
207 ,37.9421 ,0.82353 ,2.20488 ,21.63427 
208 ,38.1341 ,0.82531 ,2.19461 ,21.53353 
209 ,38.3103 ,0.82712 ,2.18777 ,21.46638 
210 ,38.5022 ,0.82897 ,2.17750 ,21.36564 
211 ,38.6784 ,0.83075 ,2.14328 ,21.02986 
212 ,38.8545 ,0.83253 ,2.13644 ,20.96270 
213 ,39.0306 ,0.83426 ,2.13301 ,20.92912 
214 ,39.2067 ,0.83604 ,2.11590 ,20.76123 
215 ,39.4147 ,0.83808 ,2.08852 ,20.49261 
216 ,39.5909 ,0.83987 ,2.09195 ,20.52619 
217 ,39.7829 ,0.84178 ,2.06799 ,20.29114 
218 ,39.9590 ,0.84362 ,2.04746 ,20.08967 
219 ,40.1511 ,0.84544 ,2.05430 ,20.15682 
220 ,40.3590 ,0.84753 ,2.01324 ,19.75388 
221 ,40.5350 ,0.84935 ,1.99613 ,19.58599 
222 ,40.7271 ,0.85121 ,2.01324 ,19.75388 
223 ,40.9034 ,0.85302 ,1.98928 ,19.51884 
224 ,41.0790 ,0.85475 ,1.96875 ,19.31737 
225 ,41.2554 ,0.85652 ,1.94822 ,19.11590 
226 ,41.4475 ,0.85837 ,1.94137 ,19.04874 
227 ,41.6397 ,0.86038 ,1.92426 ,18.88085 
228 ,41.8157 ,0.86217 ,1.89688 ,18.61222 
229 ,41.9916 ,0.86389 ,1.90373 ,18.67938 
230 ,42.1996 ,0.86590 ,1.87635 ,18.41075 
231 ,42.3918 ,0.86792 ,1.86608 ,18.31002 
232 ,42.5678 ,0.86967 ,1.86266 ,18.27644 
233 ,42.7441 ,0.87143 ,1.85582 ,18.20928 
234 ,42.9361 ,0.87327 ,1.82160 ,17.87350 
235 ,43.1123 ,0.87509 ,1.81817 ,17.83992 
236 ,43.3043 ,0.87700 ,1.81475 ,17.80634 
237 ,43.4963 ,0.87886 ,1.78053 ,17.47056 
238 ,43.6726 ,0.88070 ,1.77369 ,17.40340 
239 ,43.8486 ,0.88251 ,1.76342 ,17.30267 
240 ,44.0246 ,0.88430 ,1.73604 ,17.03404 
241 ,44.2004 ,0.88600 ,1.72920 ,16.96689 
242 ,44.3768 ,0.88774 ,1.71551 ,16.83257 
243 ,44.5688 ,0.88965 ,1.71209 ,16.79899 
244 ,44.7769 ,0.89169 ,1.69155 ,16.59752 
245 ,44.9531 ,0.89355 ,1.67102 ,16.39605 
246 ,45.1131 ,0.89523 ,1.66418 ,16.32890 
247 ,45.2890 ,0.89681 ,1.65391 ,16.22816 
248 ,45.4811 ,0.89871 ,1.63338 ,16.02669 
249 ,45.6893 ,0.90083 ,1.62653 ,15.95954 
250 ,45.8811 ,0.90269 ,1.59573 ,15.65733 
251 ,46.0576 ,0.90453 ,1.59573 ,15.65733 
252 ,46.2333 ,0.90632 ,1.57520 ,15.45586 
253 ,46.4254 ,0.90820 ,1.56836 ,15.38871 
254 ,46.6016 ,0.90994 ,1.55809 ,15.28797 
255 ,46.7778 ,0.91172 ,1.54098 ,15.12008 
256 ,46.9698 ,0.91357 ,1.53413 ,15.05292 
257 ,47.1459 ,0.91540 ,1.52729 ,14.98577 
258 ,47.3378 ,0.91736 ,1.49307 ,14.64998 
259 ,47.5141 ,0.91918 ,1.49991 ,14.71714 
260 ,47.7062 ,0.92104 ,1.47938 ,14.51567 
261 ,47.9302 ,0.92314 ,1.46227 ,14.34778 
262 ,48.1059 ,0.92507 ,1.44858 ,14.21346 
263 ,48.2823 ,0.92674 ,1.42805 ,14.01199 
264 ,48.4582 ,0.92852 ,1.41778 ,13.91126 
265 ,48.6345 ,0.93036 ,1.41436 ,13.87768 
266 ,48.8425 ,0.93224 ,1.39040 ,13.64263 
267 ,49.0188 ,0.93416 ,1.37671 ,13.50832 
268 ,49.1947 ,0.93590 ,1.36645 ,13.40759 
269 ,49.3707 ,0.93762 ,1.34591 ,13.20612 
270 ,49.5625 ,0.93945 ,1.35276 ,13.27327 
271 ,49.7388 ,0.94138 ,1.32538 ,13.00465 
272 ,49.9151 ,0.94323 ,1.32538 ,13.00465 
273 ,50.0908 ,0.94485 ,1.30485 ,12.80318 
274 ,50.2831 ,0.94671 ,1.28774 ,12.63528 
275 ,50.5071 ,0.94887 ,1.27405 ,12.50097 
276 ,50.6993 ,0.95095 ,1.24667 ,12.23235 
277 ,50.8751 ,0.95267 ,1.24325 ,12.19877 
278 ,51.0515 ,0.95450 ,1.21929 ,11.96372 
279 ,51.2434 ,0.95639 ,1.21929 ,11.96372 
280 ,51.4355 ,0.95828 ,1.19876 ,11.76225 
281 ,51.6115 ,0.96006 ,1.18850 ,11.66151 
282 ,51.7876 ,0.96177 ,1.17481 ,11.52720 
283 ,51.9638 ,0.96359 ,1.17481 ,11.52720 
284 ,52.1399 ,0.96531 ,1.15085 ,11.29215 
285 ,52.3319 ,0.96726 ,1.13716 ,11.15784 
286 ,52.5080 ,0.96901 ,1.13716 ,11.15784 
287 ,52.7001 ,0.97086 ,1.10979 ,10.88921 
288 ,52.8920 ,0.97285 ,1.09952 ,10.78848 
289 ,53.0683 ,0.97459 ,1.11321 ,10.92279 
290 ,53.2603 ,0.97659 ,1.07214 ,10.51985 
291 ,53.4524 ,0.97847 ,1.05161 ,10.31838 
292 ,53.6444 ,0.98034 ,1.05161 ,10.31838 
293 ,53.8202 ,0.98212 ,1.03792 ,10.18407 
294 ,54.0128 ,0.98400 ,1.02081 ,10.01618 
295 ,54.2208 ,0.98607 ,1.00712 ,9.88186 
296 ,54.4130 ,0.98800 ,0.99685 ,9.78113 
297 ,54.5887 ,0.98988 ,0.97632 ,9.57966 
298 ,54.7652 ,0.99159 ,0.98659 ,9.68039 
299 ,54.9729 ,0.99357 ,0.97290 ,9.54608 
300 ,55.1489 ,0.99544 ,0.95579 ,9.37819 
301 ,55.3251 ,0.99717 ,0.94552 ,9.27745 
302 ,55.5010 ,0.99898 ,0.93525 ,9.17672 
303 ,55.6773 ,1.00066 ,0.90788 ,8.90809 
304 ,55.8693 ,1.00258 ,0.90788 ,8.90809 
305 ,56.0454 ,1.00439 ,0.89419 ,8.77378 
306 ,56.2535 ,1.00646 ,0.86339 ,8.47158 
307 ,56.4296 ,1.00824 ,0.86339 ,8.47158 
308 ,56.6215 ,1.01010 ,0.84286 ,8.27011 
309 ,56.7976 ,1.01188 ,0.83259 ,8.16937 
310 ,56.9735 ,1.01366 ,0.81548 ,8.00148 
311 ,57.1498 ,1.01544 ,0.81548 ,8.00148 
312 ,57.3417 ,1.01734 ,0.80521 ,7.90074 
313 ,57.5182 ,1.01906 ,0.78126 ,7.66570 
314 ,57.7101 ,1.02096 ,0.78468 ,7.69927 
315 ,57.9022 ,1.02294 ,0.77441 ,7.59854 
316 ,58.0778 ,1.02469 ,0.74019 ,7.26276 
317 ,58.2543 ,1.02647 ,0.72650 ,7.12844 
318 ,58.4624 ,1.02838 ,0.71624 ,7.02771 
319 ,58.6545 ,1.03045 ,0.69570 ,6.82624 
320 ,58.8626 ,1.03242 ,0.69913 ,6.85982 
321 ,59.0385 ,1.03428 ,0.68201 ,6.69193 
322 ,59.2148 ,1.03606 ,0.66490 ,6.52403 
323 ,59.4068 ,1.03795 ,0.67859 ,6.65835 
324 ,59.5829 ,1.03973 ,0.65464 ,6.42330 
325 ,59.7750 ,1.04160 ,0.63753 ,6.25541 
326 ,59.9669 ,1.04358 ,0.63753 ,6.25541 
327 ,60.1426 ,1.04537 ,0.63410 ,6.22183 
328 ,60.3192 ,1.04714 ,0.60673 ,5.95320 
329 ,60.5112 ,1.04905 ,0.58619 ,5.75173 
330 ,60.7194 ,1.05100 ,0.57251 ,5.61742 
331 ,60.8952 ,1.05284 ,0.55539 ,5.44953 
332 ,61.0716 ,1.05460 ,0.54855 ,5.38237 
333 ,61.2632 ,1.05661 ,0.55197 ,5.41595 
334 ,61.4397 ,1.05830 ,0.52459 ,5.14732 
335 ,61.6316 ,1.06017 ,0.52117 ,5.11375 
336 ,61.8078 ,1.06195 ,0.51091 ,5.01301 
337 ,61.9998 ,1.06390 ,0.49380 ,4.84512 
338 ,62.1760 ,1.06563 ,0.47326 ,4.64365 
339 ,62.3837 ,1.06765 ,0.48011 ,4.71081 
340 ,62.5437 ,1.06944 ,0.45273 ,4.44218 
341 ,62.7036 ,1.07104 ,0.44588 ,4.37502 
342 ,62.8802 ,1.07270 ,0.43904 ,4.30787 
343 ,63.0882 ,1.07467 ,0.43904 ,4.30787 
344 ,63.2803 ,1.07665 ,0.41166 ,4.03924 
345 ,63.4725 ,1.07861 ,0.39455 ,3.87135 
346 ,63.6484 ,1.08037 ,0.40482 ,3.97208 
347 ,63.8247 ,1.08215 ,0.38771 ,3.80419 
348 ,64.0169 ,1.08410 ,0.35349 ,3.46841 
349 ,64.2088 ,1.08600 ,0.37060 ,3.63630 
350 ,64.4007 ,1.08782 ,0.35006 ,3.43483 
351 ,64.5769 ,1.08964 ,0.33295 ,3.26694 
352 ,64.7848 ,1.09168 ,0.33638 ,3.30052 
353 ,64.9612 ,1.09353 ,0.32269 ,3.16620 
354 ,65.1690 ,1.09548 ,0.28847 ,2.83042 
355 ,65.3452 ,1.09732 ,0.30215 ,2.96473 
356 ,65.5214 ,1.09911 ,0.27478 ,2.69611 
357 ,65.6974 ,1.10091 ,0.28162 ,2.76326 
358 ,65.8894 ,1.10277 ,0.26109 ,2.56179 
359 ,66.0972 ,1.10486 ,0.25424 ,2.49464 
360 ,66.2735 ,1.10663 ,0.23029 ,2.25959 
361 ,66.4656 ,1.10852 ,0.24398 ,2.39390 
362 ,66.6415 ,1.11029 ,0.21660 ,2.12528 
363 ,66.8180 ,1.11203 ,0.19607 ,1.92381 
364 ,67.0100 ,1.11389 ,0.18922 ,1.85665 
365 ,67.2021 ,1.11592 ,0.19949 ,1.95738 
366 ,67.3942 ,1.11784 ,0.17896 ,1.75592 
367 ,67.5864 ,1.11974 ,0.17211 ,1.68876 
368 ,67.7622 ,1.12149 ,0.16185 ,1.58802 
369 ,67.9544 ,1.12343 ,0.13105 ,1.28582 
370 ,68.1305 ,1.12522 ,0.13105 ,1.28582 
371 ,68.3226 ,1.12707 ,0.11393 ,1.11793 
372 ,68.5146 ,1.12901 ,0.09682 ,0.95004 
373 ,68.7063 ,1.13090 ,0.10709 ,1.05077 
374 ,68.8827 ,1.13275 ,0.08656 ,0.84930 
375 ,69.0907 ,1.13469 ,0.07629 ,0.74857 
376 ,69.2668 ,1.13657 ,0.06602 ,0.64783 
377 ,69.4426 ,1.13839 ,0.04891 ,0.47994 
378 ,69.6192 ,1.14001 ,0.04207 ,0.41278 
379 ,69.7948 ,1.14183 ,0.03180 ,0.31205 
380 ,69.9552 ,1.14355 ,0.02154 ,0.21131 
381 ,70.1470 ,1.14529 ,0.03865 ,0.37920 
382 ,70.3234 ,1.14713 ,0.02496 ,0.24489 
383 ,70.5154 ,1.14904 ,-0.01269 ,-0.12447 
384 ,70.7076 ,1.15097 ,-0.00584 ,-0.05731 
385 ,70.8832 ,1.15275 ,-0.00584 ,-0.05731 
386 ,71.0596 ,1.15447 ,-0.04348 ,-0.42667 
387 ,71.2518 ,1.15642 ,-0.05033 ,-0.49383 
388 ,71.4277 ,1.15812 ,-0.05033 ,-0.49383 
389 ,71.6198 ,1.15995 ,-0.05033 ,-0.49383 
390 ,71.7959 ,1.16179 ,-0.08113 ,-0.79604 
391 ,71.9720 ,1.16365 ,-0.07086 ,-0.69530 
392 ,72.1319 ,1.16526 ,-0.08797 ,-0.86319 
393 ,72.3082 ,1.16695 ,-0.08455 ,-0.82961 
394 ,72.4841 ,1.16871 ,-0.10166 ,-0.99751 
395 ,72.6604 ,1.17050 ,-0.11535 ,-1.13182 
396 ,72.8523 ,1.17240 ,-0.13588 ,-1.33329 
397 ,73.0125 ,1.17411 ,-0.14273 ,-1.40045 
398 ,73.1886 ,1.17578 ,-0.12904 ,-1.26613 
399 ,73.3807 ,1.17765 ,-0.15299 ,-1.50118 
400 ,73.5564 ,1.17943 ,-0.16326 ,-1.60191 
401 ,73.7648 ,1.18144 ,-0.17353 ,-1.70265 
402 ,73.9567 ,1.18340 ,-0.19748 ,-1.93770 
403 ,74.1330 ,1.18515 ,-0.20433 ,-2.00485 
404 ,74.3411 ,1.18719 ,-0.21117 ,-2.07201 
405 ,74.5332 ,1.18915 ,-0.20775 ,-2.03843 
406 ,74.7092 ,1.19100 ,-0.22486 ,-2.20632 
407 ,74.8852 ,1.19269 ,-0.22828 ,-2.23990 
408 ,75.0610 ,1.19445 ,-0.25224 ,-2.47495 
409 ,75.2374 ,1.19623 ,-0.25566 ,-2.50853 
410 ,75.4296 ,1.19818 ,-0.25908 ,-2.54211 
411 ,75.6376 ,1.20008 ,-0.27961 ,-2.74358 
412 ,75.8297 ,1.20206 ,-0.27619 ,-2.71000 
413 ,76.0538 ,1.20416 ,-0.29330 ,-2.87789 
414 ,76.2458 ,1.20630 ,-0.30699 ,-3.01220 
415 ,76.4379 ,1.20812 ,-0.31384 ,-3.07936 
416 ,76.6461 ,1.21021 ,-0.33437 ,-3.28083 
417 ,76.8380 ,1.21221 ,-0.34464 ,-3.38156 
418 ,77.0141 ,1.21398 ,-0.35832 ,-3.51588 
419 ,77.2059 ,1.21585 ,-0.36517 ,-3.58303 
420 ,77.3824 ,1.21770 ,-0.37201 ,-3.65019 
421 ,77.5905 ,1.21965 ,-0.37544 ,-3.68377 
422 ,77.7665 ,1.22152 ,-0.38570 ,-3.78450 
423 ,77.9585 ,1.22331 ,-0.38570 ,-3.78450 
424 ,78.1346 ,1.22515 ,-0.42677 ,-4.18744 
425 ,78.2942 ,1.22688 ,-0.40966 ,-4.01955 
426 ,78.4708 ,1.22856 ,-0.42335 ,-4.15387 
427 ,78.6784 ,1.23056 ,-0.45072 ,-4.42249 
428 ,78.8549 ,1.23238 ,-0.45414 ,-4.45607 
429 ,79.0627 ,1.23442 ,-0.46441 ,-4.55681 
430 ,79.2390 ,1.23620 ,-0.47126 ,-4.62396 
431 ,79.4470 ,1.23824 ,-0.46783 ,-4.59038 
432 ,79.6391 ,1.24023 ,-0.48837 ,-4.79185 
433 ,79.8152 ,1.24201 ,-0.50548 ,-4.95975 
434 ,80.0072 ,1.24394 ,-0.50206 ,-4.92617 
435 ,80.1994 ,1.24573 ,-0.50890 ,-4.99332 
436 ,80.3912 ,1.24765 ,-0.53628 ,-5.26195 
437 ,80.5673 ,1.24950 ,-0.52943 ,-5.19479 
438 ,80.7596 ,1.25141 ,-0.54654 ,-5.36268 
439 ,80.9357 ,1.25319 ,-0.56708 ,-5.56415 
440 ,81.1115 ,1.25494 ,-0.55339 ,-5.42984 
441 ,81.2879 ,1.25673 ,-0.55681 ,-5.46342 
442 ,81.4795 ,1.25861 ,-0.57734 ,-5.66489 
443 ,81.6561 ,1.26044 ,-0.59445 ,-5.83278 
444 ,81.8481 ,1.26235 ,-0.58419 ,-5.73205 
445 ,82.0401 ,1.26421 ,-0.61156 ,-6.00067 
446 ,82.2163 ,1.26599 ,-0.62183 ,-6.10141 
447 ,82.4083 ,1.26790 ,-0.61841 ,-6.06783 
448 ,82.6004 ,1.26975 ,-0.63894 ,-6.26930 
449 ,82.7763 ,1.27156 ,-0.65263 ,-6.40361 
450 ,82.9526 ,1.27335 ,-0.65947 ,-6.47077 
451 ,83.1287 ,1.27513 ,-0.66632 ,-6.53793 
452 ,83.3209 ,1.27704 ,-0.64921 ,-6.37003 
453 ,83.4966 ,1.27880 ,-0.69027 ,-6.77297 
454 ,83.6727 ,1.28055 ,-0.69712 ,-6.84013 
455 ,83.8490 ,1.28231 ,-0.70396 ,-6.90729 
456 ,84.0250 ,1.28408 ,-0.69712 ,-6.84013 
457 ,84.2169 ,1.28599 ,-0.71423 ,-7.00802 
458 ,84.4091 ,1.28781 ,-0.72107 ,-7.07518 
459 ,84.5850 ,1.28963 ,-0.72107 ,-7.07518 
460 ,84.7610 ,1.29142 ,-0.73476 ,-7.20949 
461 ,84.9372 ,1.29317 ,-0.74503 ,-7.31023 
462 ,85.1297 ,1.29514 ,-0.75187 ,-7.37738 
463 ,85.3215 ,1.29705 ,-0.75187 ,-7.37738 
