Data stamp = , 06-04-2022 06:52:58 250

Calibration Values: 
Slope = , 26.54 , g/V 
Offset Voltage at no contact = , -0.501760 , V 

No , Time , Stage Position ,   Mass , Force 
   ,  (s) ,      (mm)      ,   (g)  , (mN)  

1 ,0.0000 ,0.44939 ,5.25745 ,51.58611 
2 ,0.2307 ,0.44950 ,5.25403 ,51.55254 
3 ,0.5511 ,0.45038 ,5.24034 ,51.41822 
4 ,0.7432 ,0.45186 ,5.24718 ,51.48538 
5 ,0.9352 ,0.45352 ,5.26087 ,51.61969 
6 ,1.1433 ,0.45553 ,5.24376 ,51.45180 
7 ,1.3032 ,0.45726 ,5.24376 ,51.45180 
8 ,1.4794 ,0.45894 ,5.24376 ,51.45180 
9 ,1.6551 ,0.46082 ,5.21981 ,51.21675 
10 ,1.8313 ,0.46245 ,5.20954 ,51.11602 
11 ,2.0077 ,0.46425 ,5.19585 ,50.98170 
12 ,2.1837 ,0.46608 ,5.20954 ,51.11602 
13 ,2.3758 ,0.46789 ,5.18559 ,50.88097 
14 ,2.5679 ,0.46984 ,5.14794 ,50.51161 
15 ,2.7437 ,0.47162 ,5.14794 ,50.51161 
16 ,2.9200 ,0.47339 ,5.13425 ,50.37729 
17 ,3.0960 ,0.47509 ,5.11714 ,50.20940 
18 ,3.2721 ,0.47690 ,5.10003 ,50.04151 
19 ,3.4642 ,0.47888 ,5.08977 ,49.94078 
20 ,3.6561 ,0.48070 ,5.06581 ,49.70573 
21 ,3.8323 ,0.48248 ,5.04528 ,49.50426 
22 ,4.0084 ,0.48421 ,5.02132 ,49.26921 
23 ,4.2002 ,0.48608 ,5.01106 ,49.16848 
24 ,4.3766 ,0.48790 ,5.00421 ,49.10132 
25 ,4.5685 ,0.48984 ,4.96999 ,48.76554 
26 ,4.7607 ,0.49178 ,4.97683 ,48.83269 
27 ,4.9527 ,0.49356 ,4.95630 ,48.63122 
28 ,5.1288 ,0.49542 ,4.91866 ,48.26186 
29 ,5.3046 ,0.49722 ,4.90839 ,48.16113 
30 ,5.4808 ,0.49898 ,4.91523 ,48.22828 
31 ,5.6570 ,0.50073 ,4.89128 ,47.99324 
32 ,5.8492 ,0.50261 ,4.85706 ,47.65745 
33 ,6.0252 ,0.50445 ,4.83310 ,47.42240 
34 ,6.2170 ,0.50630 ,4.83310 ,47.42240 
35 ,6.3932 ,0.50805 ,4.81941 ,47.28809 
36 ,6.5695 ,0.50984 ,4.78861 ,46.98589 
37 ,6.7457 ,0.51163 ,4.77493 ,46.85157 
38 ,6.9217 ,0.51339 ,4.76124 ,46.71726 
39 ,7.0973 ,0.51511 ,4.76466 ,46.75084 
40 ,7.2761 ,0.51688 ,4.73728 ,46.48221 
41 ,7.4658 ,0.51876 ,4.71675 ,46.28074 
42 ,7.6418 ,0.52055 ,4.70648 ,46.18001 
43 ,7.8177 ,0.52236 ,4.68937 ,46.01212 
44 ,7.9938 ,0.52406 ,4.67226 ,45.84422 
45 ,8.1702 ,0.52581 ,4.66542 ,45.77707 
46 ,8.3461 ,0.52759 ,4.63462 ,45.47486 
47 ,8.5223 ,0.52936 ,4.62777 ,45.40771 
48 ,8.6984 ,0.53112 ,4.62435 ,45.37413 
49 ,8.8744 ,0.53290 ,4.60040 ,45.13908 
50 ,9.0506 ,0.53463 ,4.56960 ,44.83688 
51 ,9.2264 ,0.53638 ,4.54906 ,44.63541 
52 ,9.4027 ,0.53816 ,4.55933 ,44.73614 
53 ,9.5627 ,0.53988 ,4.54906 ,44.63541 
54 ,9.7389 ,0.54153 ,4.53537 ,44.50109 
55 ,9.9149 ,0.54330 ,4.51142 ,44.26604 
56 ,10.0910 ,0.54502 ,4.47720 ,43.93026 
57 ,10.2665 ,0.54680 ,4.47720 ,43.93026 
58 ,10.4432 ,0.54868 ,4.46693 ,43.82953 
59 ,10.6352 ,0.55050 ,4.43955 ,43.56090 
60 ,10.8113 ,0.55224 ,4.42586 ,43.42659 
61 ,10.9874 ,0.55400 ,4.40875 ,43.25870 
62 ,11.1635 ,0.55581 ,4.40191 ,43.19154 
63 ,11.3396 ,0.55760 ,4.39507 ,43.12438 
64 ,11.5154 ,0.55929 ,4.37111 ,42.88933 
65 ,11.6917 ,0.56103 ,4.33689 ,42.55355 
66 ,11.8836 ,0.56297 ,4.33689 ,42.55355 
67 ,12.0598 ,0.56470 ,4.33347 ,42.51997 
68 ,12.2359 ,0.56651 ,4.30951 ,42.28492 
69 ,12.4115 ,0.56826 ,4.27871 ,41.98272 
70 ,12.5881 ,0.56999 ,4.26160 ,41.81483 
71 ,12.7641 ,0.57176 ,4.26502 ,41.84841 
72 ,12.9407 ,0.57358 ,4.24449 ,41.64694 
73 ,13.1163 ,0.57528 ,4.22396 ,41.44547 
74 ,13.3082 ,0.57713 ,4.19316 ,41.14326 
75 ,13.4844 ,0.57890 ,4.20000 ,41.21042 
76 ,13.6604 ,0.58073 ,4.18974 ,41.10968 
77 ,13.8203 ,0.58242 ,4.16920 ,40.90821 
78 ,13.9966 ,0.58413 ,4.15894 ,40.80748 
79 ,14.1886 ,0.58591 ,4.12129 ,40.43812 
80 ,14.4127 ,0.58809 ,4.10760 ,40.30380 
81 ,14.6048 ,0.59012 ,4.10076 ,40.23665 
82 ,14.8127 ,0.59220 ,4.07338 ,39.96802 
83 ,14.9888 ,0.59401 ,4.05285 ,39.76655 
84 ,15.1968 ,0.59601 ,4.03574 ,39.59866 
85 ,15.3729 ,0.59782 ,4.01863 ,39.43077 
86 ,15.5492 ,0.59959 ,4.00836 ,39.33003 
87 ,15.7252 ,0.60142 ,4.01178 ,39.36361 
88 ,15.9011 ,0.60312 ,3.99809 ,39.22930 
89 ,16.0774 ,0.60486 ,3.97072 ,38.96067 
90 ,16.2537 ,0.60662 ,3.94676 ,38.72562 
91 ,16.4617 ,0.60868 ,3.93650 ,38.62489 
92 ,16.6376 ,0.61051 ,3.92623 ,38.52415 
93 ,16.8297 ,0.61242 ,3.89543 ,38.22195 
94 ,17.0055 ,0.61414 ,3.89885 ,38.25553 
95 ,17.1820 ,0.61593 ,3.88858 ,38.15479 
96 ,17.3900 ,0.61784 ,3.86805 ,37.95332 
97 ,17.5660 ,0.61980 ,3.84752 ,37.75185 
98 ,17.7420 ,0.62153 ,3.84067 ,37.68470 
99 ,17.9181 ,0.62328 ,3.82014 ,37.48323 
100 ,18.0943 ,0.62503 ,3.80303 ,37.31534 
101 ,18.2704 ,0.62678 ,3.78934 ,37.18102 
102 ,18.4623 ,0.62875 ,3.78592 ,37.14744 
103 ,18.6385 ,0.63051 ,3.76196 ,36.91240 
104 ,18.8305 ,0.63245 ,3.72432 ,36.54303 
105 ,19.0067 ,0.63424 ,3.72432 ,36.54303 
106 ,19.2146 ,0.63608 ,3.70379 ,36.34157 
107 ,19.4067 ,0.63822 ,3.69694 ,36.27441 
108 ,19.5828 ,0.63994 ,3.68325 ,36.14010 
109 ,19.7589 ,0.64169 ,3.65930 ,35.90505 
110 ,19.9516 ,0.64350 ,3.62508 ,35.56926 
111 ,20.1267 ,0.64538 ,3.63877 ,35.70358 
112 ,20.3031 ,0.64717 ,3.62508 ,35.56926 
113 ,20.4952 ,0.64902 ,3.58743 ,35.19990 
114 ,20.6714 ,0.65078 ,3.58401 ,35.16632 
115 ,20.8635 ,0.65269 ,3.57375 ,35.06559 
116 ,21.0715 ,0.65473 ,3.55663 ,34.89770 
117 ,21.2313 ,0.65654 ,3.53268 ,34.66265 
118 ,21.4077 ,0.65819 ,3.53268 ,34.66265 
119 ,21.5838 ,0.65997 ,3.52584 ,34.59549 
120 ,21.7598 ,0.66173 ,3.50530 ,34.39402 
121 ,21.9520 ,0.66364 ,3.47792 ,34.12540 
122 ,22.1279 ,0.66540 ,3.47450 ,34.09182 
123 ,22.3359 ,0.66727 ,3.45055 ,33.85677 
124 ,22.5122 ,0.66922 ,3.43686 ,33.72246 
125 ,22.6879 ,0.67094 ,3.41975 ,33.55457 
126 ,22.8643 ,0.67275 ,3.40264 ,33.38667 
127 ,23.0561 ,0.67466 ,3.37184 ,33.08447 
128 ,23.2485 ,0.67654 ,3.37868 ,33.15163 
129 ,23.4241 ,0.67833 ,3.37526 ,33.11805 
130 ,23.6006 ,0.68011 ,3.33419 ,32.71511 
131 ,23.7765 ,0.68189 ,3.33762 ,32.74869 
132 ,23.9686 ,0.68377 ,3.32393 ,32.61437 
133 ,24.1447 ,0.68550 ,3.31366 ,32.51364 
134 ,24.3209 ,0.68731 ,3.28971 ,32.27859 
135 ,24.4968 ,0.68910 ,3.26917 ,32.07712 
136 ,24.6890 ,0.69101 ,3.27259 ,32.11070 
137 ,24.8651 ,0.69276 ,3.24522 ,31.84207 
138 ,25.0571 ,0.69460 ,3.22126 ,31.60702 
139 ,25.2333 ,0.69641 ,3.21784 ,31.57345 
140 ,25.4249 ,0.69826 ,3.20415 ,31.43913 
141 ,25.6013 ,0.70006 ,3.19046 ,31.30482 
142 ,25.7932 ,0.70205 ,3.16309 ,31.03619 
143 ,25.9695 ,0.70384 ,3.15624 ,30.96904 
144 ,26.1456 ,0.70559 ,3.14255 ,30.83472 
145 ,26.3217 ,0.70731 ,3.12544 ,30.66683 
146 ,26.4975 ,0.70907 ,3.10491 ,30.46536 
147 ,26.6897 ,0.71092 ,3.11175 ,30.53252 
148 ,26.8818 ,0.71292 ,3.07753 ,30.19674 
149 ,27.0577 ,0.71465 ,3.05700 ,29.99527 
150 ,27.2660 ,0.71672 ,3.03989 ,29.82737 
151 ,27.4260 ,0.71843 ,3.03304 ,29.76022 
152 ,27.6018 ,0.72018 ,3.02278 ,29.65948 
153 ,27.7782 ,0.72181 ,2.99882 ,29.42444 
154 ,27.9703 ,0.72372 ,3.00224 ,29.45801 
155 ,28.1624 ,0.72560 ,2.96802 ,29.12223 
156 ,28.3544 ,0.72760 ,2.94407 ,28.88718 
157 ,28.5306 ,0.72936 ,2.95091 ,28.95434 
158 ,28.7226 ,0.73131 ,2.93038 ,28.75287 
159 ,28.8986 ,0.73303 ,2.90642 ,28.51782 
160 ,29.0747 ,0.73478 ,2.90300 ,28.48424 
161 ,29.2507 ,0.73659 ,2.90300 ,28.48424 
162 ,29.4266 ,0.73837 ,2.89273 ,28.38351 
163 ,29.6186 ,0.74021 ,2.85851 ,28.04772 
164 ,29.7946 ,0.74197 ,2.84482 ,27.91341 
165 ,29.9870 ,0.74386 ,2.84825 ,27.94699 
166 ,30.1631 ,0.74570 ,2.82087 ,27.67836 
167 ,30.3393 ,0.74746 ,2.80376 ,27.51047 
168 ,30.5152 ,0.74921 ,2.79349 ,27.40974 
169 ,30.7073 ,0.75105 ,2.78665 ,27.34258 
170 ,30.9155 ,0.75313 ,2.77638 ,27.24185 
171 ,31.0915 ,0.75500 ,2.74558 ,26.93964 
172 ,31.2836 ,0.75689 ,2.71820 ,26.67101 
173 ,31.4916 ,0.75901 ,2.72505 ,26.73817 
174 ,31.6837 ,0.76092 ,2.70109 ,26.50312 
175 ,31.8757 ,0.76281 ,2.68740 ,26.36881 
176 ,32.0519 ,0.76458 ,2.68056 ,26.30165 
177 ,32.2280 ,0.76635 ,2.66687 ,26.16734 
178 ,32.4199 ,0.76815 ,2.63607 ,25.86514 
179 ,32.6122 ,0.77007 ,2.62923 ,25.79798 
180 ,32.8042 ,0.77201 ,2.61554 ,25.66367 
181 ,32.9964 ,0.77401 ,2.58474 ,25.36146 
182 ,33.1723 ,0.77578 ,2.59158 ,25.42862 
183 ,33.3489 ,0.77753 ,2.58132 ,25.32788 
184 ,33.5244 ,0.77941 ,2.54367 ,24.95852 
185 ,33.7006 ,0.78110 ,2.54367 ,24.95852 
186 ,33.8925 ,0.78300 ,2.52998 ,24.82421 
187 ,34.0847 ,0.78486 ,2.52314 ,24.75705 
188 ,34.2606 ,0.78669 ,2.49576 ,24.48842 
189 ,34.4366 ,0.78838 ,2.49234 ,24.45485 
190 ,34.6289 ,0.79027 ,2.46839 ,24.21980 
191 ,34.8050 ,0.79211 ,2.44785 ,24.01833 
192 ,34.9967 ,0.79400 ,2.45470 ,24.08549 
193 ,35.1732 ,0.79577 ,2.44443 ,23.98475 
194 ,35.3812 ,0.79782 ,2.41363 ,23.68255 
195 ,35.5571 ,0.79959 ,2.39994 ,23.54823 
196 ,35.7493 ,0.80145 ,2.38625 ,23.41392 
197 ,35.9253 ,0.80327 ,2.37256 ,23.27961 
198 ,36.1014 ,0.80504 ,2.35203 ,23.07814 
199 ,36.2773 ,0.80679 ,2.33834 ,22.94382 
200 ,36.4537 ,0.80856 ,2.34177 ,22.97740 
201 ,36.6297 ,0.81028 ,2.32808 ,22.84309 
202 ,36.8057 ,0.81214 ,2.30412 ,22.60804 
203 ,36.9979 ,0.81400 ,2.29728 ,22.54088 
204 ,37.1738 ,0.81587 ,2.28701 ,22.44015 
205 ,37.3657 ,0.81757 ,2.28017 ,22.37299 
206 ,37.5421 ,0.81947 ,2.24252 ,22.00363 
207 ,37.7501 ,0.82145 ,2.23910 ,21.97005 
208 ,37.9264 ,0.82330 ,2.23226 ,21.90290 
209 ,38.1181 ,0.82514 ,2.20830 ,21.66785 
210 ,38.2943 ,0.82697 ,2.19119 ,21.49996 
211 ,38.5023 ,0.82897 ,2.17408 ,21.33206 
212 ,38.6782 ,0.83079 ,2.15697 ,21.16417 
213 ,38.8546 ,0.83259 ,2.14328 ,21.02986 
214 ,39.0627 ,0.83452 ,2.11590 ,20.76123 
215 ,39.2864 ,0.83674 ,2.10906 ,20.69408 
216 ,39.4628 ,0.83865 ,2.09879 ,20.59334 
217 ,39.6547 ,0.84059 ,2.09195 ,20.52619 
218 ,39.8468 ,0.84247 ,2.06457 ,20.25756 
219 ,40.0230 ,0.84427 ,2.05773 ,20.19040 
220 ,40.1990 ,0.84599 ,2.04061 ,20.02251 
221 ,40.3751 ,0.84776 ,2.04404 ,20.05609 
222 ,40.5514 ,0.84955 ,2.02350 ,19.85462 
223 ,40.7434 ,0.85148 ,1.99270 ,19.55241 
224 ,40.9193 ,0.85324 ,1.98928 ,19.51884 
225 ,41.0956 ,0.85496 ,1.99613 ,19.58599 
226 ,41.2875 ,0.85690 ,1.95848 ,19.21663 
227 ,41.4796 ,0.85872 ,1.95506 ,19.18305 
228 ,41.6717 ,0.86075 ,1.95164 ,19.14948 
229 ,41.8637 ,0.86260 ,1.90715 ,18.71296 
230 ,42.0397 ,0.86442 ,1.90031 ,18.64580 
231 ,42.2320 ,0.86620 ,1.89688 ,18.61222 
232 ,42.4399 ,0.86838 ,1.86608 ,18.31002 
233 ,42.6160 ,0.87016 ,1.86266 ,18.27644 
234 ,42.7921 ,0.87194 ,1.85924 ,18.24286 
235 ,42.9681 ,0.87372 ,1.83871 ,18.04139 
236 ,43.1443 ,0.87547 ,1.81817 ,17.83992 
237 ,43.3363 ,0.87736 ,1.81475 ,17.80634 
238 ,43.5123 ,0.87912 ,1.79422 ,17.60487 
239 ,43.6885 ,0.88087 ,1.78053 ,17.47056 
240 ,43.8644 ,0.88265 ,1.74973 ,17.16836 
241 ,44.0407 ,0.88442 ,1.76000 ,17.26909 
242 ,44.2327 ,0.88628 ,1.74973 ,17.16836 
243 ,44.4245 ,0.88818 ,1.71893 ,16.86615 
244 ,44.5846 ,0.88995 ,1.70866 ,16.76542 
245 ,44.7770 ,0.89172 ,1.70524 ,16.73184 
246 ,44.9689 ,0.89364 ,1.67786 ,16.46321 
247 ,45.1452 ,0.89545 ,1.66418 ,16.32890 
248 ,45.3211 ,0.89724 ,1.65733 ,16.26174 
249 ,45.4971 ,0.89898 ,1.65733 ,16.26174 
250 ,45.6732 ,0.90073 ,1.64364 ,16.12743 
251 ,45.8654 ,0.90268 ,1.61627 ,15.85880 
252 ,46.0414 ,0.90441 ,1.59573 ,15.65733 
253 ,46.2172 ,0.90629 ,1.59916 ,15.69091 
254 ,46.3934 ,0.90788 ,1.57862 ,15.48944 
255 ,46.5695 ,0.90965 ,1.55809 ,15.28797 
256 ,46.7611 ,0.91157 ,1.55809 ,15.28797 
257 ,46.9538 ,0.91339 ,1.56151 ,15.32155 
258 ,47.1454 ,0.91540 ,1.51702 ,14.88503 
259 ,47.3215 ,0.91721 ,1.50333 ,14.75072 
260 ,47.4814 ,0.91893 ,1.50676 ,14.78430 
261 ,47.6580 ,0.92062 ,1.49991 ,14.71714 
262 ,47.8663 ,0.92260 ,1.46569 ,14.38136 
263 ,48.0902 ,0.92473 ,1.45885 ,14.31420 
264 ,48.2662 ,0.92666 ,1.43489 ,14.07915 
265 ,48.4424 ,0.92836 ,1.42805 ,14.01199 
266 ,48.6345 ,0.93039 ,1.41436 ,13.87768 
267 ,48.8100 ,0.93212 ,1.41094 ,13.84410 
268 ,49.0027 ,0.93390 ,1.36645 ,13.40759 
269 ,49.1947 ,0.93585 ,1.38014 ,13.54190 
270 ,49.3704 ,0.93770 ,1.36645 ,13.40759 
271 ,49.5470 ,0.93942 ,1.34591 ,13.20612 
272 ,49.7550 ,0.94146 ,1.32880 ,13.03822 
273 ,49.9470 ,0.94336 ,1.30485 ,12.80318 
274 ,50.1232 ,0.94527 ,1.29800 ,12.73602 
275 ,50.2991 ,0.94700 ,1.28774 ,12.63528 
276 ,50.4909 ,0.94877 ,1.28089 ,12.56813 
277 ,50.6672 ,0.95065 ,1.23983 ,12.16519 
278 ,50.8433 ,0.95241 ,1.25694 ,12.33308 
279 ,51.0355 ,0.95433 ,1.23983 ,12.16519 
280 ,51.2434 ,0.95636 ,1.22956 ,12.06445 
281 ,51.4356 ,0.95828 ,1.21587 ,11.93014 
282 ,51.6116 ,0.96009 ,1.18850 ,11.66151 
283 ,51.7877 ,0.96184 ,1.17481 ,11.52720 
284 ,51.9635 ,0.96362 ,1.17823 ,11.56078 
285 ,52.1400 ,0.96543 ,1.16112 ,11.39289 
286 ,52.3160 ,0.96713 ,1.15427 ,11.32573 
287 ,52.5241 ,0.96916 ,1.12690 ,11.05710 
288 ,52.7002 ,0.97104 ,1.12347 ,11.02353 
289 ,52.8923 ,0.97283 ,1.09610 ,10.75490 
290 ,53.0682 ,0.97467 ,1.08241 ,10.62059 
291 ,53.2445 ,0.97640 ,1.07214 ,10.51985 
292 ,53.4204 ,0.97821 ,1.08925 ,10.68774 
293 ,53.6124 ,0.98002 ,1.04476 ,10.25123 
294 ,53.8047 ,0.98188 ,1.04134 ,10.21765 
295 ,53.9966 ,0.98386 ,1.02423 ,10.04976 
296 ,54.1565 ,0.98561 ,1.00712 ,9.88186 
297 ,54.3326 ,0.98730 ,1.00370 ,9.84829 
298 ,54.5249 ,0.98917 ,0.99343 ,9.74755 
299 ,54.7167 ,0.99109 ,0.98317 ,9.64682 
300 ,54.8930 ,0.99290 ,0.97632 ,9.57966 
301 ,55.0691 ,0.99468 ,0.94552 ,9.27745 
302 ,55.2611 ,0.99655 ,0.94894 ,9.31103 
303 ,55.4692 ,0.99863 ,0.92841 ,9.10956 
304 ,55.6453 ,1.00041 ,0.90788 ,8.90809 
305 ,55.8215 ,1.00210 ,0.90788 ,8.90809 
306 ,55.9974 ,1.00394 ,0.89761 ,8.80736 
307 ,56.1732 ,1.00571 ,0.87366 ,8.57231 
308 ,56.3497 ,1.00745 ,0.85312 ,8.37084 
309 ,56.5257 ,1.00923 ,0.83601 ,8.20295 
310 ,56.7177 ,1.01106 ,0.85312 ,8.37084 
311 ,56.9259 ,1.01321 ,0.84286 ,8.27011 
312 ,57.1019 ,1.01501 ,0.82232 ,8.06864 
313 ,57.2776 ,1.01672 ,0.80863 ,7.93432 
314 ,57.4537 ,1.01853 ,0.78468 ,7.69927 
315 ,57.6301 ,1.02025 ,0.77099 ,7.56496 
316 ,57.8060 ,1.02198 ,0.77099 ,7.56496 
317 ,57.9983 ,1.02385 ,0.76072 ,7.46423 
318 ,58.1741 ,1.02570 ,0.73677 ,7.22918 
319 ,58.3661 ,1.02761 ,0.72308 ,7.09486 
320 ,58.5426 ,1.02938 ,0.72308 ,7.09486 
321 ,58.7186 ,1.03113 ,0.70255 ,6.89340 
322 ,58.8947 ,1.03290 ,0.69228 ,6.79266 
323 ,59.0706 ,1.03463 ,0.67517 ,6.62477 
324 ,59.2468 ,1.03640 ,0.66490 ,6.52403 
325 ,59.4385 ,1.03825 ,0.67517 ,6.62477 
326 ,59.6149 ,1.04013 ,0.65121 ,6.38972 
327 ,59.7911 ,1.04188 ,0.63410 ,6.22183 
328 ,59.9831 ,1.04377 ,0.62384 ,6.12109 
329 ,60.1591 ,1.04550 ,0.61699 ,6.05394 
330 ,60.3352 ,1.04731 ,0.60673 ,5.95320 
331 ,60.4950 ,1.04899 ,0.58277 ,5.71815 
332 ,60.6714 ,1.05068 ,0.56908 ,5.58384 
333 ,60.8634 ,1.05253 ,0.57935 ,5.68458 
334 ,61.0396 ,1.05431 ,0.55882 ,5.48311 
335 ,61.2316 ,1.05625 ,0.53486 ,5.24806 
336 ,61.4075 ,1.05803 ,0.52802 ,5.18090 
337 ,61.5833 ,1.05975 ,0.51433 ,5.04659 
338 ,61.7594 ,1.06157 ,0.50406 ,4.94585 
339 ,61.9356 ,1.06324 ,0.49722 ,4.87870 
340 ,62.1280 ,1.06523 ,0.49380 ,4.84512 
341 ,62.3041 ,1.06702 ,0.46984 ,4.61007 
342 ,62.4962 ,1.06887 ,0.45957 ,4.50934 
343 ,62.6722 ,1.07072 ,0.43562 ,4.27429 
344 ,62.8484 ,1.07238 ,0.43220 ,4.24071 
345 ,63.0405 ,1.07435 ,0.43562 ,4.27429 
346 ,63.2163 ,1.07608 ,0.41851 ,4.10640 
347 ,63.4085 ,1.07801 ,0.39113 ,3.83777 
348 ,63.5844 ,1.07984 ,0.39455 ,3.87135 
349 ,63.7606 ,1.08152 ,0.39455 ,3.87135 
350 ,63.9531 ,1.08334 ,0.36718 ,3.60272 
351 ,64.1449 ,1.08538 ,0.35006 ,3.43483 
352 ,64.3210 ,1.08718 ,0.35349 ,3.46841 
353 ,64.4967 ,1.08890 ,0.33295 ,3.26694 
354 ,64.6731 ,1.09065 ,0.30558 ,2.99831 
355 ,64.8812 ,1.09266 ,0.30900 ,3.03189 
356 ,65.0733 ,1.09464 ,0.28847 ,2.83042 
357 ,65.2653 ,1.09658 ,0.29189 ,2.86400 
358 ,65.4414 ,1.09833 ,0.27820 ,2.72969 
359 ,65.6172 ,1.10021 ,0.26451 ,2.59537 
360 ,65.7933 ,1.10187 ,0.25082 ,2.46106 
361 ,65.9857 ,1.10372 ,0.25424 ,2.49464 
362 ,66.1617 ,1.10557 ,0.23713 ,2.32675 
363 ,66.3538 ,1.10747 ,0.21318 ,2.09170 
364 ,66.5297 ,1.10923 ,0.20633 ,2.02454 
365 ,66.7220 ,1.11115 ,0.20976 ,2.05812 
366 ,66.8816 ,1.11287 ,0.19607 ,1.92381 
367 ,67.0581 ,1.11449 ,0.18580 ,1.82307 
368 ,67.2501 ,1.11643 ,0.15158 ,1.48729 
369 ,67.4258 ,1.11812 ,0.15842 ,1.55445 
370 ,67.6023 ,1.11994 ,0.15842 ,1.55445 
371 ,67.7943 ,1.12181 ,0.12420 ,1.21866 
372 ,67.9702 ,1.12362 ,0.12762 ,1.25224 
373 ,68.1469 ,1.12536 ,0.11736 ,1.15151 
374 ,68.3387 ,1.12724 ,0.12420 ,1.21866 
375 ,68.5146 ,1.12907 ,0.10025 ,0.98361 
376 ,68.6906 ,1.13083 ,0.06945 ,0.68141 
377 ,68.8827 ,1.13275 ,0.07629 ,0.74857 
378 ,69.0587 ,1.13450 ,0.06945 ,0.68141 
379 ,69.2350 ,1.13622 ,0.04891 ,0.47994 
380 ,69.4430 ,1.13816 ,0.04549 ,0.44636 
381 ,69.6350 ,1.14022 ,0.01469 ,0.14416 
382 ,69.7952 ,1.14197 ,0.01127 ,0.11058 
383 ,69.9872 ,1.14374 ,0.01127 ,0.11058 
384 ,70.1793 ,1.14564 ,-0.00242 ,-0.02373 
385 ,70.3714 ,1.14764 ,-0.02295 ,-0.22520 
386 ,70.5795 ,1.14959 ,-0.01269 ,-0.12447 
387 ,70.7716 ,1.15153 ,-0.03664 ,-0.35952 
388 ,70.9637 ,1.15352 ,-0.03664 ,-0.35952 
389 ,71.1553 ,1.15540 ,-0.05717 ,-0.56099 
390 ,71.3317 ,1.15718 ,-0.06744 ,-0.66172 
391 ,71.5238 ,1.15908 ,-0.05717 ,-0.56099 
392 ,71.6997 ,1.16086 ,-0.07428 ,-0.72888 
393 ,71.8920 ,1.16285 ,-0.10166 ,-0.99751 
394 ,72.0678 ,1.16459 ,-0.10508 ,-1.03108 
395 ,72.2280 ,1.16631 ,-0.11193 ,-1.09824 
396 ,72.4041 ,1.16793 ,-0.10851 ,-1.06466 
397 ,72.5803 ,1.16970 ,-0.11535 ,-1.13182 
398 ,72.7724 ,1.17164 ,-0.14957 ,-1.46760 
399 ,72.9487 ,1.17338 ,-0.15984 ,-1.56834 
400 ,73.1405 ,1.17533 ,-0.14273 ,-1.40045 
401 ,73.3164 ,1.17708 ,-0.15984 ,-1.56834 
402 ,73.4926 ,1.17877 ,-0.18379 ,-1.80338 
403 ,73.7007 ,1.18084 ,-0.18037 ,-1.76981 
404 ,73.8928 ,1.18284 ,-0.19748 ,-1.93770 
405 ,74.1008 ,1.18477 ,-0.20090 ,-1.97128 
406 ,74.2768 ,1.18665 ,-0.20775 ,-2.03843 
407 ,74.4691 ,1.18852 ,-0.22486 ,-2.20632 
408 ,74.6611 ,1.19050 ,-0.23513 ,-2.30706 
409 ,74.8210 ,1.19219 ,-0.23855 ,-2.34064 
410 ,74.9970 ,1.19385 ,-0.25908 ,-2.54211 
411 ,75.1732 ,1.19562 ,-0.27277 ,-2.67642 
412 ,75.3650 ,1.19757 ,-0.26935 ,-2.64284 
413 ,75.5414 ,1.19931 ,-0.26593 ,-2.60926 
414 ,75.7496 ,1.20130 ,-0.27961 ,-2.74358 
415 ,75.9414 ,1.20320 ,-0.29330 ,-2.87789 
416 ,76.1337 ,1.20524 ,-0.32068 ,-3.14652 
417 ,76.3255 ,1.20707 ,-0.31726 ,-3.11294 
418 ,76.5177 ,1.20909 ,-0.34464 ,-3.38156 
419 ,76.6939 ,1.21082 ,-0.35148 ,-3.44872 
420 ,76.8700 ,1.21261 ,-0.36175 ,-3.54946 
421 ,77.0461 ,1.21438 ,-0.35832 ,-3.51588 
422 ,77.2382 ,1.21630 ,-0.36517 ,-3.58303 
423 ,77.4140 ,1.21806 ,-0.37201 ,-3.65019 
424 ,77.6223 ,1.22002 ,-0.38228 ,-3.75093 
425 ,77.8142 ,1.22201 ,-0.39939 ,-3.91882 
426 ,77.9904 ,1.22375 ,-0.41308 ,-4.05313 
427 ,78.1665 ,1.22554 ,-0.41308 ,-4.05313 
428 ,78.3425 ,1.22732 ,-0.41992 ,-4.12029 
429 ,78.5186 ,1.22904 ,-0.43019 ,-4.22102 
430 ,78.7104 ,1.23095 ,-0.44730 ,-4.38891 
431 ,78.9028 ,1.23290 ,-0.44388 ,-4.35534 
432 ,79.0948 ,1.23481 ,-0.47126 ,-4.62396 
433 ,79.2710 ,1.23661 ,-0.47468 ,-4.65754 
434 ,79.4789 ,1.23862 ,-0.48152 ,-4.72470 
435 ,79.6548 ,1.24038 ,-0.49521 ,-4.85901 
436 ,79.8310 ,1.24213 ,-0.51232 ,-5.02690 
437 ,80.0073 ,1.24391 ,-0.49863 ,-4.89259 
438 ,80.2153 ,1.24595 ,-0.52259 ,-5.12764 
439 ,80.3913 ,1.24781 ,-0.53285 ,-5.22837 
440 ,80.5672 ,1.24953 ,-0.53285 ,-5.22837 
441 ,80.7435 ,1.25128 ,-0.52943 ,-5.19479 
442 ,80.9196 ,1.25302 ,-0.53970 ,-5.29553 
443 ,81.1117 ,1.25488 ,-0.54997 ,-5.39626 
444 ,81.3037 ,1.25681 ,-0.55339 ,-5.42984 
445 ,81.4798 ,1.25864 ,-0.57392 ,-5.63131 
446 ,81.6719 ,1.26054 ,-0.60472 ,-5.93352 
447 ,81.8478 ,1.26233 ,-0.60130 ,-5.89994 
448 ,82.0402 ,1.26431 ,-0.59788 ,-5.86636 
449 ,82.2161 ,1.26602 ,-0.61499 ,-6.03425 
450 ,82.4081 ,1.26787 ,-0.61841 ,-6.06783 
451 ,82.6003 ,1.26985 ,-0.62525 ,-6.13499 
452 ,82.7761 ,1.27160 ,-0.64579 ,-6.33646 
453 ,82.9529 ,1.27338 ,-0.66290 ,-6.50435 
454 ,83.1285 ,1.27513 ,-0.66632 ,-6.53793 
455 ,83.3206 ,1.27702 ,-0.65263 ,-6.40361 
456 ,83.5287 ,1.27905 ,-0.67659 ,-6.63866 
457 ,83.7208 ,1.28096 ,-0.68343 ,-6.70582 
458 ,83.9127 ,1.28297 ,-0.69370 ,-6.80655 
459 ,84.0889 ,1.28473 ,-0.69712 ,-6.84013 
460 ,84.2809 ,1.28669 ,-0.70054 ,-6.87371 
461 ,84.4568 ,1.28839 ,-0.72107 ,-7.07518 
462 ,84.6331 ,1.29017 ,-0.73818 ,-7.24307 
463 ,84.8413 ,1.29220 ,-0.72792 ,-7.14233 
