Data stamp = , 06-04-2022 00:55:43 427

Calibration Values: 
Slope = , 26.54 , g/V 
Offset Voltage at no contact = , -0.501760 , V 

No , Time , Stage Position ,   Mass , Force 
   ,  (s) ,      (mm)      ,   (g)  , (mN)  

1 ,0.0000 ,0.44939 ,5.19927 ,51.01528 
2 ,0.2082 ,0.44945 ,5.20612 ,51.08244 
3 ,0.5445 ,0.45034 ,5.21981 ,51.21675 
4 ,0.7365 ,0.45184 ,5.21296 ,51.14960 
5 ,0.9123 ,0.45326 ,5.19585 ,50.98170 
6 ,1.0887 ,0.45503 ,5.19585 ,50.98170 
7 ,1.2647 ,0.45677 ,5.20612 ,51.08244 
8 ,1.4405 ,0.45850 ,5.21296 ,51.14960 
9 ,1.6169 ,0.46031 ,5.19585 ,50.98170 
10 ,1.7929 ,0.46210 ,5.18559 ,50.88097 
11 ,1.9689 ,0.46385 ,5.16505 ,50.67950 
12 ,2.1450 ,0.46560 ,5.16848 ,50.71308 
13 ,2.3211 ,0.46735 ,5.16848 ,50.71308 
14 ,2.5133 ,0.46929 ,5.15479 ,50.57876 
15 ,2.6893 ,0.47107 ,5.13083 ,50.34372 
16 ,2.8494 ,0.47277 ,5.13768 ,50.41087 
17 ,3.0413 ,0.47455 ,5.13083 ,50.34372 
18 ,3.2175 ,0.47634 ,5.10345 ,50.07509 
19 ,3.3937 ,0.47809 ,5.07950 ,49.84004 
20 ,3.6018 ,0.48015 ,5.07265 ,49.77289 
21 ,3.7937 ,0.48203 ,5.04528 ,49.50426 
22 ,3.9698 ,0.48385 ,5.02132 ,49.26921 
23 ,4.1459 ,0.48561 ,5.00763 ,49.13490 
24 ,4.3058 ,0.48733 ,5.01106 ,49.16848 
25 ,4.4819 ,0.48894 ,4.99737 ,49.03416 
26 ,4.6738 ,0.49079 ,4.98368 ,48.89985 
27 ,4.8505 ,0.49264 ,4.93919 ,48.46333 
28 ,5.0420 ,0.49458 ,4.93919 ,48.46333 
29 ,5.2181 ,0.49637 ,4.93919 ,48.46333 
30 ,5.3944 ,0.49806 ,4.89470 ,48.02681 
31 ,5.5864 ,0.50004 ,4.87759 ,47.85892 
32 ,5.7625 ,0.50179 ,4.88101 ,47.89250 
33 ,5.9384 ,0.50354 ,4.85706 ,47.65745 
34 ,6.1146 ,0.50531 ,4.83652 ,47.45598 
35 ,6.2905 ,0.50705 ,4.81941 ,47.28809 
36 ,6.4669 ,0.50886 ,4.78861 ,46.98589 
37 ,6.6589 ,0.51065 ,4.79204 ,47.01946 
38 ,6.8349 ,0.51252 ,4.78177 ,46.91873 
39 ,7.0270 ,0.51444 ,4.74755 ,46.58295 
40 ,7.2200 ,0.51635 ,4.74413 ,46.54937 
41 ,7.4109 ,0.51819 ,4.72017 ,46.31432 
42 ,7.6031 ,0.52009 ,4.68595 ,45.97854 
43 ,7.7795 ,0.52195 ,4.69964 ,46.11285 
44 ,7.9871 ,0.52396 ,4.66884 ,45.81065 
45 ,8.1636 ,0.52578 ,4.64831 ,45.60918 
46 ,8.3396 ,0.52756 ,4.65173 ,45.64275 
47 ,8.5315 ,0.52944 ,4.61751 ,45.30697 
48 ,8.7077 ,0.53119 ,4.60382 ,45.17266 
49 ,8.8838 ,0.53300 ,4.58671 ,45.00477 
50 ,9.0599 ,0.53473 ,4.58671 ,45.00477 
51 ,9.2357 ,0.53653 ,4.56275 ,44.76972 
52 ,9.4285 ,0.53844 ,4.54222 ,44.56825 
53 ,9.6197 ,0.54029 ,4.52511 ,44.40036 
54 ,9.7957 ,0.54209 ,4.53195 ,44.46751 
55 ,9.9720 ,0.54381 ,4.50457 ,44.19889 
56 ,10.1800 ,0.54593 ,4.46351 ,43.79595 
57 ,10.3563 ,0.54771 ,4.47035 ,43.86310 
58 ,10.5324 ,0.54943 ,4.44640 ,43.62806 
59 ,10.7084 ,0.55123 ,4.42586 ,43.42659 
60 ,10.9004 ,0.55310 ,4.42586 ,43.42659 
61 ,11.0925 ,0.55496 ,4.41560 ,43.32585 
62 ,11.2688 ,0.55682 ,4.38480 ,43.02365 
63 ,11.4448 ,0.55859 ,4.36427 ,42.82218 
64 ,11.6366 ,0.56055 ,4.35400 ,42.72144 
65 ,11.8127 ,0.56228 ,4.33689 ,42.55355 
66 ,12.0210 ,0.56434 ,4.31293 ,42.31850 
67 ,12.1972 ,0.56611 ,4.31636 ,42.35208 
68 ,12.4050 ,0.56808 ,4.28556 ,42.04988 
69 ,12.5813 ,0.56992 ,4.26845 ,41.88198 
70 ,12.7572 ,0.57170 ,4.26502 ,41.84841 
71 ,12.9339 ,0.57345 ,4.23422 ,41.54620 
72 ,13.1095 ,0.57522 ,4.21369 ,41.34473 
73 ,13.3175 ,0.57722 ,4.21711 ,41.37831 
74 ,13.5095 ,0.57916 ,4.18289 ,41.04253 
75 ,13.6857 ,0.58101 ,4.16920 ,40.90821 
76 ,13.8457 ,0.58269 ,4.15551 ,40.77390 
77 ,14.0375 ,0.58445 ,4.15551 ,40.77390 
78 ,14.2140 ,0.58623 ,4.13840 ,40.60601 
79 ,14.4058 ,0.58814 ,4.10418 ,40.27023 
80 ,14.5820 ,0.58993 ,4.10076 ,40.23665 
81 ,14.7741 ,0.59184 ,4.09049 ,40.13591 
82 ,14.9501 ,0.59360 ,4.07338 ,39.96802 
83 ,15.1262 ,0.59538 ,4.03916 ,39.63224 
84 ,15.3020 ,0.59712 ,4.02547 ,39.49793 
85 ,15.4779 ,0.59890 ,4.02889 ,39.53150 
86 ,15.6545 ,0.60062 ,4.01520 ,39.39719 
87 ,15.8783 ,0.60285 ,3.99125 ,39.16214 
88 ,16.0704 ,0.60471 ,3.98098 ,39.06141 
89 ,16.2787 ,0.60682 ,3.97072 ,38.96067 
90 ,16.4384 ,0.60860 ,3.93992 ,38.65847 
91 ,16.5985 ,0.61019 ,3.92623 ,38.52415 
92 ,16.7746 ,0.61187 ,3.91596 ,38.42342 
93 ,16.9506 ,0.61360 ,3.91254 ,38.38984 
94 ,17.1430 ,0.61551 ,3.87147 ,37.98690 
95 ,17.3192 ,0.61732 ,3.86805 ,37.95332 
96 ,17.4952 ,0.61910 ,3.86463 ,37.91975 
97 ,17.6711 ,0.62077 ,3.84067 ,37.68470 
98 ,17.8473 ,0.62254 ,3.81672 ,37.44965 
99 ,18.0231 ,0.62431 ,3.79619 ,37.24818 
100 ,18.1994 ,0.62614 ,3.78250 ,37.11387 
101 ,18.3756 ,0.62790 ,3.77223 ,37.01313 
102 ,18.5514 ,0.62964 ,3.76539 ,36.94597 
103 ,18.7435 ,0.63157 ,3.74143 ,36.71093 
104 ,18.9353 ,0.63344 ,3.72432 ,36.54303 
105 ,19.1114 ,0.63523 ,3.71748 ,36.47588 
106 ,19.2873 ,0.63704 ,3.69694 ,36.27441 
107 ,19.4634 ,0.63876 ,3.66614 ,35.97220 
108 ,19.6399 ,0.64052 ,3.65588 ,35.87147 
109 ,19.8482 ,0.64258 ,3.64219 ,35.73716 
110 ,20.0561 ,0.64463 ,3.63877 ,35.70358 
111 ,20.2482 ,0.64662 ,3.60797 ,35.40137 
112 ,20.4241 ,0.64832 ,3.60797 ,35.40137 
113 ,20.6004 ,0.65011 ,3.58401 ,35.16632 
114 ,20.7924 ,0.65198 ,3.56348 ,34.96485 
115 ,20.9685 ,0.65377 ,3.56348 ,34.96485 
116 ,21.1604 ,0.65564 ,3.54637 ,34.79696 
117 ,21.3366 ,0.65759 ,3.53268 ,34.66265 
118 ,21.5127 ,0.65927 ,3.51215 ,34.46118 
119 ,21.7048 ,0.66113 ,3.49161 ,34.25971 
120 ,21.8807 ,0.66290 ,3.48135 ,34.15898 
121 ,22.0889 ,0.66484 ,3.45739 ,33.92393 
122 ,22.2808 ,0.66688 ,3.44713 ,33.82319 
123 ,22.4572 ,0.66865 ,3.43001 ,33.65530 
124 ,22.6491 ,0.67061 ,3.41290 ,33.48741 
125 ,22.8254 ,0.67230 ,3.39579 ,33.31952 
126 ,23.0013 ,0.67411 ,3.37868 ,33.15163 
127 ,23.1931 ,0.67591 ,3.37184 ,33.08447 
128 ,23.3691 ,0.67773 ,3.35473 ,32.91658 
129 ,23.5455 ,0.67957 ,3.32735 ,32.64795 
130 ,23.7214 ,0.68135 ,3.33077 ,32.68153 
131 ,23.8978 ,0.68305 ,3.31708 ,32.54722 
132 ,24.1218 ,0.68508 ,3.29655 ,32.34575 
133 ,24.3457 ,0.68737 ,3.28971 ,32.27859 
134 ,24.5380 ,0.68945 ,3.26575 ,32.04354 
135 ,24.7459 ,0.69149 ,3.22811 ,31.67418 
136 ,24.9221 ,0.69330 ,3.22126 ,31.60702 
137 ,25.0981 ,0.69512 ,3.21442 ,31.53987 
138 ,25.2578 ,0.69677 ,3.21100 ,31.50629 
139 ,25.4342 ,0.69842 ,3.19731 ,31.37198 
140 ,25.6424 ,0.70041 ,3.16651 ,31.06977 
141 ,25.8501 ,0.70257 ,3.14597 ,30.86830 
142 ,26.0264 ,0.70433 ,3.13229 ,30.73399 
143 ,26.2187 ,0.70627 ,3.12886 ,30.70041 
144 ,26.3947 ,0.70804 ,3.11518 ,30.56610 
145 ,26.5705 ,0.70974 ,3.09464 ,30.36463 
146 ,26.7470 ,0.71154 ,3.08095 ,30.23031 
147 ,26.9389 ,0.71339 ,3.07753 ,30.19674 
148 ,27.1151 ,0.71522 ,3.06384 ,30.06242 
149 ,27.2910 ,0.71697 ,3.05015 ,29.92811 
150 ,27.4672 ,0.71874 ,3.01935 ,29.62590 
151 ,27.6432 ,0.72047 ,2.99882 ,29.42444 
152 ,27.8353 ,0.72231 ,2.98855 ,29.32370 
153 ,28.0272 ,0.72433 ,2.97144 ,29.15581 
154 ,28.2032 ,0.72607 ,2.94064 ,28.85360 
155 ,28.4115 ,0.72817 ,2.94407 ,28.88718 
156 ,28.5874 ,0.72997 ,2.92353 ,28.68571 
157 ,28.7476 ,0.73168 ,2.89958 ,28.45066 
158 ,28.9556 ,0.73353 ,2.90642 ,28.51782 
159 ,29.1319 ,0.73538 ,2.89273 ,28.38351 
160 ,29.3240 ,0.73733 ,2.86193 ,28.08130 
161 ,29.5159 ,0.73924 ,2.85851 ,28.04772 
162 ,29.6919 ,0.74096 ,2.86193 ,28.08130 
163 ,29.8682 ,0.74277 ,2.82429 ,27.71194 
164 ,30.0602 ,0.74465 ,2.81745 ,27.64479 
165 ,30.2361 ,0.74647 ,2.80718 ,27.54405 
166 ,30.4287 ,0.74835 ,2.77296 ,27.20827 
167 ,30.6205 ,0.75028 ,2.76954 ,27.17469 
168 ,30.8120 ,0.75217 ,2.75243 ,27.00680 
169 ,30.9885 ,0.75395 ,2.73874 ,26.87248 
170 ,31.1647 ,0.75570 ,2.72163 ,26.70459 
171 ,31.3567 ,0.75754 ,2.71820 ,26.67101 
172 ,31.5328 ,0.75936 ,2.71478 ,26.63744 
173 ,31.7085 ,0.76111 ,2.68056 ,26.30165 
174 ,31.8846 ,0.76288 ,2.67029 ,26.20092 
175 ,32.0607 ,0.76463 ,2.64976 ,25.99945 
176 ,32.2367 ,0.76640 ,2.64292 ,25.93229 
177 ,32.4128 ,0.76818 ,2.63949 ,25.89871 
178 ,32.5728 ,0.76990 ,2.62238 ,25.73082 
179 ,32.7489 ,0.77151 ,2.59843 ,25.49577 
180 ,32.9251 ,0.77329 ,2.58474 ,25.36146 
181 ,33.1175 ,0.77513 ,2.55052 ,25.02568 
182 ,33.3256 ,0.77723 ,2.54367 ,24.95852 
183 ,33.5017 ,0.77906 ,2.52998 ,24.82421 
184 ,33.6936 ,0.78091 ,2.52314 ,24.75705 
185 ,33.8700 ,0.78274 ,2.50261 ,24.55558 
186 ,34.0457 ,0.78454 ,2.48892 ,24.42127 
187 ,34.2216 ,0.78626 ,2.46154 ,24.15264 
188 ,34.4140 ,0.78816 ,2.46496 ,24.18622 
189 ,34.6061 ,0.79005 ,2.44101 ,23.95117 
190 ,34.7981 ,0.79205 ,2.42732 ,23.81686 
191 ,34.9742 ,0.79376 ,2.43759 ,23.91759 
192 ,35.1500 ,0.79549 ,2.41705 ,23.71612 
193 ,35.3424 ,0.79741 ,2.38968 ,23.44750 
194 ,35.5344 ,0.79929 ,2.36572 ,23.21245 
195 ,35.7267 ,0.80134 ,2.34519 ,23.01098 
196 ,35.9186 ,0.80317 ,2.34861 ,23.04456 
197 ,36.1104 ,0.80502 ,2.33492 ,22.91024 
198 ,36.2868 ,0.80693 ,2.32123 ,22.77593 
199 ,36.4790 ,0.80884 ,2.29728 ,22.54088 
200 ,36.6546 ,0.81061 ,2.29385 ,22.50731 
201 ,36.8312 ,0.81234 ,2.28017 ,22.37299 
202 ,37.0231 ,0.81428 ,2.25279 ,22.10437 
203 ,37.1988 ,0.81606 ,2.23568 ,21.93647 
204 ,37.3754 ,0.81781 ,2.21857 ,21.76858 
205 ,37.5673 ,0.81971 ,2.20830 ,21.66785 
206 ,37.7435 ,0.82145 ,2.18777 ,21.46638 
207 ,37.9516 ,0.82349 ,2.20488 ,21.63427 
208 ,38.1437 ,0.82537 ,2.17066 ,21.29849 
209 ,38.3357 ,0.82729 ,2.15697 ,21.16417 
210 ,38.5275 ,0.82933 ,2.14670 ,21.06344 
211 ,38.7038 ,0.83103 ,2.11590 ,20.76123 
212 ,38.8799 ,0.83282 ,2.09879 ,20.59334 
213 ,39.0560 ,0.83454 ,2.10906 ,20.69408 
214 ,39.2322 ,0.83635 ,2.09537 ,20.55976 
215 ,39.4238 ,0.83818 ,2.06457 ,20.25756 
216 ,39.6003 ,0.84002 ,2.04404 ,20.05609 
217 ,39.7920 ,0.84196 ,2.05088 ,20.12325 
218 ,39.9684 ,0.84369 ,2.03377 ,19.95535 
219 ,40.1444 ,0.84548 ,2.00297 ,19.65315 
220 ,40.3365 ,0.84731 ,1.98244 ,19.45168 
221 ,40.5287 ,0.84932 ,1.99270 ,19.55241 
222 ,40.7367 ,0.85134 ,1.97559 ,19.38452 
223 ,40.9128 ,0.85312 ,1.95848 ,19.21663 
224 ,41.0889 ,0.85493 ,1.94822 ,19.11590 
225 ,41.2969 ,0.85681 ,1.92426 ,18.88085 
226 ,41.4730 ,0.85876 ,1.91057 ,18.74654 
227 ,41.6492 ,0.86048 ,1.91057 ,18.74654 
228 ,41.8250 ,0.86229 ,1.89004 ,18.54507 
229 ,41.9851 ,0.86397 ,1.86608 ,18.31002 
230 ,42.1610 ,0.86561 ,1.84555 ,18.10855 
231 ,42.3374 ,0.86736 ,1.83528 ,18.00781 
232 ,42.4970 ,0.86910 ,1.83871 ,18.04139 
233 ,42.6734 ,0.87074 ,1.81817 ,17.83992 
234 ,42.8655 ,0.87265 ,1.80449 ,17.70561 
235 ,43.0415 ,0.87442 ,1.77711 ,17.43698 
236 ,43.2176 ,0.87618 ,1.77369 ,17.40340 
237 ,43.4099 ,0.87812 ,1.77711 ,17.43698 
238 ,43.5854 ,0.87994 ,1.73946 ,17.06762 
239 ,43.7618 ,0.88163 ,1.72578 ,16.93331 
240 ,43.9381 ,0.88341 ,1.71209 ,16.79899 
241 ,44.1462 ,0.88533 ,1.71209 ,16.79899 
242 ,44.3223 ,0.88729 ,1.68471 ,16.53037 
243 ,44.5141 ,0.88905 ,1.67786 ,16.46321 
244 ,44.6899 ,0.89089 ,1.65733 ,16.26174 
245 ,44.8659 ,0.89264 ,1.66418 ,16.32890 
246 ,45.0420 ,0.89452 ,1.63338 ,16.02669 
247 ,45.2181 ,0.89615 ,1.61627 ,15.85880 
248 ,45.3943 ,0.89793 ,1.62311 ,15.92596 
249 ,45.5703 ,0.89966 ,1.60942 ,15.79164 
250 ,45.7463 ,0.90144 ,1.58547 ,15.55660 
251 ,45.9228 ,0.90326 ,1.57520 ,15.45586 
252 ,46.1145 ,0.90510 ,1.57178 ,15.42228 
253 ,46.2909 ,0.90694 ,1.53756 ,15.08650 
254 ,46.4666 ,0.90867 ,1.52729 ,14.98577 
255 ,46.6428 ,0.91042 ,1.52045 ,14.91861 
256 ,46.8191 ,0.91215 ,1.49649 ,14.68356 
257 ,46.9952 ,0.91393 ,1.49307 ,14.64998 
258 ,47.1712 ,0.91567 ,1.49307 ,14.64998 
259 ,47.3474 ,0.91746 ,1.45200 ,14.24704 
260 ,47.5396 ,0.91932 ,1.45885 ,14.31420 
261 ,47.7155 ,0.92113 ,1.45542 ,14.28062 
262 ,47.9076 ,0.92303 ,1.42805 ,14.01199 
263 ,48.0837 ,0.92488 ,1.39725 ,13.70979 
264 ,48.2755 ,0.92670 ,1.40751 ,13.81053 
265 ,48.4678 ,0.92865 ,1.39383 ,13.67621 
266 ,48.6436 ,0.93045 ,1.36987 ,13.44116 
267 ,48.8198 ,0.93222 ,1.33907 ,13.13896 
268 ,48.9960 ,0.93397 ,1.34934 ,13.23969 
269 ,49.1882 ,0.93587 ,1.34591 ,13.20612 
270 ,49.3801 ,0.93776 ,1.32538 ,13.00465 
271 ,49.5722 ,0.93973 ,1.31854 ,12.93749 
272 ,49.7643 ,0.94162 ,1.28774 ,12.63528 
273 ,49.9399 ,0.94337 ,1.27405 ,12.50097 
274 ,50.1164 ,0.94515 ,1.27747 ,12.53455 
275 ,50.3085 ,0.94708 ,1.26036 ,12.36666 
276 ,50.4846 ,0.94885 ,1.24667 ,12.23235 
277 ,50.6767 ,0.95073 ,1.23641 ,12.13161 
278 ,50.8527 ,0.95251 ,1.22614 ,12.03088 
279 ,51.0287 ,0.95439 ,1.19534 ,11.72867 
280 ,51.2049 ,0.95604 ,1.17138 ,11.49362 
281 ,51.3809 ,0.95777 ,1.17481 ,11.52720 
282 ,51.5571 ,0.95957 ,1.15770 ,11.35931 
283 ,51.7328 ,0.96127 ,1.16454 ,11.42647 
284 ,51.9093 ,0.96305 ,1.16112 ,11.39289 
285 ,52.1172 ,0.96508 ,1.12690 ,11.05710 
286 ,52.2933 ,0.96690 ,1.12690 ,11.05710 
287 ,52.4854 ,0.96868 ,1.10979 ,10.88921 
288 ,52.6776 ,0.97070 ,1.09610 ,10.75490 
289 ,52.8535 ,0.97248 ,1.08241 ,10.62059 
290 ,53.0296 ,0.97424 ,1.07556 ,10.55343 
291 ,53.2216 ,0.97618 ,1.05161 ,10.31838 
292 ,53.3978 ,0.97793 ,1.03450 ,10.15049 
293 ,53.5739 ,0.97967 ,1.03108 ,10.11691 
294 ,53.7660 ,0.98166 ,1.02423 ,10.04976 
295 ,53.9420 ,0.98337 ,1.00712 ,9.88186 
296 ,54.1498 ,0.98540 ,0.99343 ,9.74755 
297 ,54.3264 ,0.98725 ,0.97632 ,9.57966 
298 ,54.5182 ,0.98910 ,0.96605 ,9.47892 
299 ,54.6944 ,0.99086 ,0.97290 ,9.54608 
300 ,54.8704 ,0.99270 ,0.95579 ,9.37819 
301 ,55.0465 ,0.99439 ,0.92157 ,9.04241 
302 ,55.2383 ,0.99633 ,0.90788 ,8.90809 
303 ,55.4146 ,0.99808 ,0.91130 ,8.94167 
304 ,55.6065 ,0.99994 ,0.89077 ,8.74020 
305 ,55.7988 ,1.00194 ,0.87708 ,8.60589 
306 ,55.9748 ,1.00373 ,0.86339 ,8.47158 
307 ,56.1670 ,1.00564 ,0.87366 ,8.57231 
308 ,56.3589 ,1.00749 ,0.85312 ,8.37084 
309 ,56.5351 ,1.00934 ,0.82575 ,8.10221 
310 ,56.7109 ,1.01106 ,0.83601 ,8.20295 
311 ,56.8872 ,1.01287 ,0.80521 ,7.90074 
312 ,57.0953 ,1.01484 ,0.80179 ,7.86717 
313 ,57.2870 ,1.01683 ,0.78126 ,7.66570 
314 ,57.4634 ,1.01864 ,0.77441 ,7.59854 
315 ,57.6556 ,1.02049 ,0.75730 ,7.43065 
316 ,57.8636 ,1.02252 ,0.73335 ,7.19560 
317 ,58.0716 ,1.02462 ,0.74361 ,7.29633 
318 ,58.2477 ,1.02644 ,0.72992 ,7.16202 
319 ,58.4393 ,1.02842 ,0.71281 ,6.99413 
320 ,58.6158 ,1.03013 ,0.70255 ,6.89340 
321 ,58.7919 ,1.03185 ,0.68886 ,6.75908 
322 ,58.9681 ,1.03363 ,0.67859 ,6.65835 
323 ,59.1442 ,1.03533 ,0.66490 ,6.52403 
324 ,59.3362 ,1.03730 ,0.65806 ,6.45688 
325 ,59.5439 ,1.03927 ,0.62726 ,6.15467 
326 ,59.7201 ,1.04115 ,0.62384 ,6.12109 
327 ,59.8964 ,1.04291 ,0.60330 ,5.91962 
328 ,60.1045 ,1.04489 ,0.60330 ,5.91962 
329 ,60.2966 ,1.04692 ,0.58619 ,5.75173 
330 ,60.4884 ,1.04889 ,0.57251 ,5.61742 
331 ,60.6648 ,1.05064 ,0.56566 ,5.55026 
332 ,60.8569 ,1.05252 ,0.56224 ,5.51668 
333 ,61.0489 ,1.05440 ,0.53828 ,5.28164 
334 ,61.2251 ,1.05625 ,0.53486 ,5.24806 
335 ,61.4171 ,1.05803 ,0.52459 ,5.14732 
336 ,61.6091 ,1.06008 ,0.50064 ,4.91228 
337 ,61.7849 ,1.06177 ,0.49722 ,4.87870 
338 ,61.9610 ,1.06351 ,0.48011 ,4.71081 
339 ,62.1373 ,1.06534 ,0.46984 ,4.61007 
340 ,62.3295 ,1.06722 ,0.46642 ,4.57649 
341 ,62.5054 ,1.06900 ,0.44588 ,4.37502 
342 ,62.6977 ,1.07091 ,0.43562 ,4.27429 
343 ,62.8897 ,1.07285 ,0.42535 ,4.17355 
344 ,63.0658 ,1.07463 ,0.42535 ,4.17355 
345 ,63.2578 ,1.07648 ,0.39797 ,3.90493 
346 ,63.4337 ,1.07829 ,0.40482 ,3.97208 
347 ,63.6100 ,1.08005 ,0.38771 ,3.80419 
348 ,63.8019 ,1.08184 ,0.35691 ,3.50199 
349 ,63.9941 ,1.08382 ,0.37402 ,3.66988 
350 ,64.1701 ,1.08565 ,0.36718 ,3.60272 
351 ,64.3462 ,1.08740 ,0.33638 ,3.30052 
352 ,64.5224 ,1.08919 ,0.31584 ,3.09905 
353 ,64.7141 ,1.09098 ,0.30900 ,3.03189 
354 ,64.8905 ,1.09283 ,0.30900 ,3.03189 
355 ,65.0986 ,1.09489 ,0.29531 ,2.89758 
356 ,65.2747 ,1.09672 ,0.29531 ,2.89758 
357 ,65.4667 ,1.09860 ,0.27135 ,2.66253 
358 ,65.6427 ,1.10037 ,0.25767 ,2.52822 
359 ,65.8347 ,1.10228 ,0.25767 ,2.52822 
360 ,66.0108 ,1.10404 ,0.25424 ,2.49464 
361 ,66.1870 ,1.10582 ,0.22344 ,2.19243 
362 ,66.3631 ,1.10754 ,0.20291 ,1.99096 
363 ,66.5551 ,1.10949 ,0.21318 ,2.09170 
364 ,66.7311 ,1.11123 ,0.19607 ,1.92381 
365 ,66.9073 ,1.11298 ,0.18580 ,1.82307 
366 ,67.0834 ,1.11472 ,0.16527 ,1.62160 
367 ,67.2595 ,1.11649 ,0.16869 ,1.65518 
368 ,67.4675 ,1.11859 ,0.15500 ,1.52087 
369 ,67.6596 ,1.12048 ,0.14131 ,1.38655 
370 ,67.8516 ,1.12236 ,0.12420 ,1.21866 
371 ,68.0278 ,1.12426 ,0.10709 ,1.05077 
372 ,68.2199 ,1.12612 ,0.09682 ,0.95004 
373 ,68.3959 ,1.12790 ,0.10025 ,0.98361 
374 ,68.5718 ,1.12961 ,0.08656 ,0.84930 
375 ,68.7643 ,1.13157 ,0.06945 ,0.68141 
376 ,68.9402 ,1.13334 ,0.06260 ,0.61425 
377 ,69.1320 ,1.13517 ,0.06602 ,0.64783 
378 ,69.3083 ,1.13700 ,0.04549 ,0.44636 
379 ,69.5002 ,1.13889 ,0.02154 ,0.21131 
380 ,69.6764 ,1.14067 ,0.02154 ,0.21131 
381 ,69.8524 ,1.14242 ,0.01811 ,0.17773 
382 ,70.0281 ,1.14417 ,0.00785 ,0.07700 
383 ,70.2042 ,1.14595 ,-0.01269 ,-0.12447 
384 ,70.3802 ,1.14768 ,-0.03322 ,-0.32594 
385 ,70.5728 ,1.14953 ,-0.02295 ,-0.22520 
386 ,70.8128 ,1.15192 ,-0.04006 ,-0.39310 
387 ,70.9889 ,1.15379 ,-0.05033 ,-0.49383 
388 ,71.1810 ,1.15562 ,-0.06744 ,-0.66172 
389 ,71.3571 ,1.15747 ,-0.06402 ,-0.62814 
390 ,71.5331 ,1.15925 ,-0.07086 ,-0.69530 
391 ,71.7092 ,1.16097 ,-0.08797 ,-0.86319 
392 ,71.9013 ,1.16291 ,-0.11193 ,-1.09824 
393 ,72.0774 ,1.16467 ,-0.11193 ,-1.09824 
394 ,72.2694 ,1.16658 ,-0.11535 ,-1.13182 
395 ,72.4614 ,1.16851 ,-0.13246 ,-1.29971 
396 ,72.6695 ,1.17043 ,-0.13588 ,-1.33329 
397 ,72.8454 ,1.17231 ,-0.15984 ,-1.56834 
398 ,73.0375 ,1.17424 ,-0.14957 ,-1.46760 
399 ,73.2133 ,1.17604 ,-0.17353 ,-1.70265 
400 ,73.3898 ,1.17775 ,-0.18722 ,-1.83696 
401 ,73.5819 ,1.17966 ,-0.19748 ,-1.93770 
402 ,73.7576 ,1.18149 ,-0.20775 ,-2.03843 
403 ,73.9347 ,1.18319 ,-0.20090 ,-1.97128 
404 ,74.1259 ,1.18511 ,-0.23513 ,-2.30706 
405 ,74.3181 ,1.18703 ,-0.21802 ,-2.13917 
406 ,74.4942 ,1.18888 ,-0.22828 ,-2.23990 
407 ,74.6704 ,1.19060 ,-0.24881 ,-2.44137 
408 ,74.8783 ,1.19263 ,-0.26250 ,-2.57569 
409 ,75.0545 ,1.19441 ,-0.26250 ,-2.57569 
410 ,75.2304 ,1.19620 ,-0.26935 ,-2.64284 
411 ,75.4384 ,1.19823 ,-0.28646 ,-2.81073 
412 ,75.6308 ,1.20011 ,-0.30015 ,-2.94505 
413 ,75.8068 ,1.20196 ,-0.31726 ,-3.11294 
414 ,75.9828 ,1.20366 ,-0.33095 ,-3.24725 
415 ,76.1589 ,1.20546 ,-0.33095 ,-3.24725 
416 ,76.3666 ,1.20753 ,-0.35148 ,-3.44872 
417 ,76.5427 ,1.20931 ,-0.37201 ,-3.65019 
418 ,76.7188 ,1.21104 ,-0.36517 ,-3.58303 
419 ,76.8948 ,1.21283 ,-0.36175 ,-3.54946 
420 ,77.0712 ,1.21455 ,-0.37201 ,-3.65019 
421 ,77.2793 ,1.21665 ,-0.38912 ,-3.81808 
422 ,77.4551 ,1.21844 ,-0.38912 ,-3.81808 
423 ,77.6475 ,1.22027 ,-0.42335 ,-4.15387 
424 ,77.8716 ,1.22244 ,-0.41992 ,-4.12029 
425 ,78.0636 ,1.22452 ,-0.43703 ,-4.28818 
426 ,78.2557 ,1.22640 ,-0.43019 ,-4.22102 
427 ,78.4476 ,1.22836 ,-0.45757 ,-4.48965 
428 ,78.6398 ,1.23026 ,-0.46441 ,-4.55681 
429 ,78.8317 ,1.23223 ,-0.48837 ,-4.79185 
430 ,79.0081 ,1.23397 ,-0.48837 ,-4.79185 
431 ,79.2002 ,1.23582 ,-0.48837 ,-4.79185 
432 ,79.3920 ,1.23776 ,-0.51917 ,-5.09406 
433 ,79.5839 ,1.23968 ,-0.51574 ,-5.06048 
434 ,79.7764 ,1.24158 ,-0.51574 ,-5.06048 
435 ,79.9683 ,1.24356 ,-0.53628 ,-5.26195 
436 ,80.1446 ,1.24529 ,-0.54997 ,-5.39626 
437 ,80.3368 ,1.24725 ,-0.53628 ,-5.26195 
438 ,80.5127 ,1.24904 ,-0.56023 ,-5.49700 
439 ,80.6883 ,1.25074 ,-0.57392 ,-5.63131 
440 ,80.8649 ,1.25252 ,-0.59445 ,-5.83278 
441 ,81.0568 ,1.25440 ,-0.57392 ,-5.63131 
442 ,81.2329 ,1.25617 ,-0.59103 ,-5.79920 
443 ,81.4251 ,1.25809 ,-0.60130 ,-5.89994 
444 ,81.6011 ,1.25987 ,-0.62868 ,-6.16856 
445 ,81.7771 ,1.26163 ,-0.61841 ,-6.06783 
446 ,81.9533 ,1.26339 ,-0.61841 ,-6.06783 
447 ,82.1293 ,1.26514 ,-0.64579 ,-6.33646 
448 ,82.2893 ,1.26685 ,-0.66632 ,-6.53793 
449 ,82.6254 ,1.27009 ,-0.67316 ,-6.60508 
450 ,82.8175 ,1.27208 ,-0.67316 ,-6.60508 
451 ,82.9935 ,1.27380 ,-0.68001 ,-6.67224 
452 ,83.1857 ,1.27570 ,-0.69027 ,-6.77297 
453 ,83.3618 ,1.27750 ,-0.69712 ,-6.84013 
454 ,83.5540 ,1.27941 ,-0.70054 ,-6.87371 
455 ,83.7460 ,1.28134 ,-0.73818 ,-7.24307 
456 ,83.9219 ,1.28304 ,-0.72450 ,-7.10876 
457 ,84.1142 ,1.28489 ,-0.72450 ,-7.10876 
458 ,84.3063 ,1.28695 ,-0.76214 ,-7.47812 
459 ,84.4983 ,1.28880 ,-0.75187 ,-7.37738 
460 ,84.6742 ,1.29059 ,-0.75530 ,-7.41096 
461 ,84.8502 ,1.29236 ,-0.76898 ,-7.54527 
462 ,85.0424 ,1.29430 ,-0.77583 ,-7.61243 
463 ,85.2186 ,1.29604 ,-0.78267 ,-7.67959 
