Data stamp = , 05-04-2022 17:27:24 604

Calibration Values: 
Slope = , 26.54 , g/V 
Offset Voltage at no contact = , -0.501760 , V 

No , Time , Stage Position ,   Mass , Force 
   ,  (s) ,      (mm)      ,   (g)  , (mN)  

1 ,0.0000 ,0.44951 ,5.33616 ,52.35841 
2 ,0.2167 ,0.44957 ,5.34985 ,52.49273 
3 ,0.5211 ,0.45036 ,5.33616 ,52.35841 
4 ,0.7134 ,0.45177 ,5.34301 ,52.42557 
5 ,0.9211 ,0.45343 ,5.36696 ,52.66062 
6 ,1.0974 ,0.45524 ,5.35327 ,52.52631 
7 ,1.2895 ,0.45712 ,5.33958 ,52.39199 
8 ,1.4656 ,0.45888 ,5.33958 ,52.39199 
9 ,1.6419 ,0.46069 ,5.31563 ,52.15694 
10 ,1.8338 ,0.46263 ,5.28483 ,51.85474 
11 ,2.0257 ,0.46457 ,5.28825 ,51.88832 
12 ,2.2179 ,0.46635 ,5.26772 ,51.68685 
13 ,2.4101 ,0.46843 ,5.23007 ,51.31749 
14 ,2.5859 ,0.47022 ,5.22665 ,51.28391 
15 ,2.7778 ,0.47199 ,5.19927 ,51.01528 
16 ,2.9541 ,0.47378 ,5.18216 ,50.84739 
17 ,3.1301 ,0.47559 ,5.17532 ,50.78023 
18 ,3.3224 ,0.47745 ,5.16163 ,50.64592 
19 ,3.4983 ,0.47930 ,5.14452 ,50.47803 
20 ,3.6905 ,0.48112 ,5.12056 ,50.24298 
21 ,3.8666 ,0.48296 ,5.11372 ,50.17583 
22 ,4.0587 ,0.48483 ,5.09661 ,50.00793 
23 ,4.2348 ,0.48661 ,5.08292 ,49.87362 
24 ,4.4269 ,0.48843 ,5.06239 ,49.67215 
25 ,4.6026 ,0.49038 ,5.05212 ,49.57142 
26 ,4.7790 ,0.49204 ,5.03159 ,49.36995 
27 ,4.9551 ,0.49382 ,5.01790 ,49.23563 
28 ,5.1627 ,0.49585 ,5.01790 ,49.23563 
29 ,5.3229 ,0.49761 ,4.98710 ,48.93343 
30 ,5.4993 ,0.49927 ,4.98368 ,48.89985 
31 ,5.6908 ,0.50122 ,4.96315 ,48.69838 
32 ,5.8673 ,0.50292 ,4.93577 ,48.42975 
33 ,6.0594 ,0.50478 ,4.92550 ,48.32902 
34 ,6.2352 ,0.50659 ,4.88786 ,47.95966 
35 ,6.4119 ,0.50837 ,4.88444 ,47.92608 
36 ,6.6036 ,0.51029 ,4.87417 ,47.82534 
37 ,6.7797 ,0.51205 ,4.87417 ,47.82534 
38 ,6.9558 ,0.51374 ,4.83652 ,47.45598 
39 ,7.1319 ,0.51552 ,4.81599 ,47.25451 
40 ,7.3080 ,0.51730 ,4.79888 ,47.08662 
41 ,7.5000 ,0.51921 ,4.79888 ,47.08662 
42 ,7.6758 ,0.52100 ,4.78177 ,46.91873 
43 ,7.8522 ,0.52274 ,4.75782 ,46.68368 
44 ,8.0281 ,0.52449 ,4.74070 ,46.51579 
45 ,8.2044 ,0.52628 ,4.73044 ,46.41506 
46 ,8.3965 ,0.52820 ,4.71675 ,46.28074 
47 ,8.6046 ,0.53013 ,4.70648 ,46.18001 
48 ,8.7806 ,0.53208 ,4.69279 ,46.04569 
49 ,8.9565 ,0.53374 ,4.65857 ,45.70991 
50 ,9.1647 ,0.53586 ,4.65515 ,45.67633 
51 ,9.3407 ,0.53766 ,4.63462 ,45.47486 
52 ,9.5327 ,0.53956 ,4.61751 ,45.30697 
53 ,9.7088 ,0.54137 ,4.58328 ,44.97119 
54 ,9.8847 ,0.54306 ,4.59697 ,45.10550 
55 ,10.0611 ,0.54488 ,4.57302 ,44.87045 
56 ,10.2691 ,0.54685 ,4.56275 ,44.76972 
57 ,10.4452 ,0.54867 ,4.54222 ,44.56825 
58 ,10.6372 ,0.55052 ,4.52511 ,44.40036 
59 ,10.8136 ,0.55238 ,4.49089 ,44.06457 
60 ,10.9891 ,0.55413 ,4.48404 ,43.99742 
61 ,11.1654 ,0.55588 ,4.45666 ,43.72879 
62 ,11.3577 ,0.55779 ,4.46009 ,43.76237 
63 ,11.5338 ,0.55958 ,4.44298 ,43.59448 
64 ,11.7257 ,0.56141 ,4.42586 ,43.42659 
65 ,11.9340 ,0.56351 ,4.39507 ,43.12438 
66 ,12.1098 ,0.56534 ,4.38138 ,42.99007 
67 ,12.2860 ,0.56708 ,4.35742 ,42.75502 
68 ,12.4621 ,0.56884 ,4.36084 ,42.78860 
69 ,12.6382 ,0.57062 ,4.34373 ,42.62071 
70 ,12.8141 ,0.57237 ,4.32662 ,42.45282 
71 ,13.0059 ,0.57419 ,4.30951 ,42.28492 
72 ,13.1822 ,0.57600 ,4.29924 ,42.18419 
73 ,13.3585 ,0.57778 ,4.28556 ,42.04988 
74 ,13.5345 ,0.57957 ,4.27187 ,41.91556 
75 ,13.7427 ,0.58156 ,4.24791 ,41.68051 
76 ,13.9346 ,0.58349 ,4.21369 ,41.34473 
77 ,14.1266 ,0.58549 ,4.21369 ,41.34473 
78 ,14.3189 ,0.58737 ,4.20000 ,41.21042 
79 ,14.5111 ,0.58932 ,4.16236 ,40.84106 
80 ,14.6870 ,0.59111 ,4.14867 ,40.70674 
81 ,14.8790 ,0.59299 ,4.15209 ,40.74032 
82 ,15.0552 ,0.59476 ,4.12814 ,40.50527 
83 ,15.2309 ,0.59650 ,4.10760 ,40.30380 
84 ,15.4073 ,0.59833 ,4.09391 ,40.16949 
85 ,15.5834 ,0.60005 ,4.09049 ,40.13591 
86 ,15.7595 ,0.60181 ,4.09049 ,40.13591 
87 ,15.9354 ,0.60354 ,4.04600 ,39.69940 
88 ,16.1117 ,0.60534 ,4.03916 ,39.63224 
89 ,16.2873 ,0.60719 ,4.02205 ,39.46435 
90 ,16.4637 ,0.60886 ,4.00152 ,39.26288 
91 ,16.6557 ,0.61077 ,3.98441 ,39.09499 
92 ,16.8478 ,0.61268 ,3.96729 ,38.92709 
93 ,17.0240 ,0.61442 ,3.95018 ,38.75920 
94 ,17.1840 ,0.61615 ,3.95361 ,38.79278 
95 ,17.3598 ,0.61783 ,3.93992 ,38.65847 
96 ,17.5361 ,0.61959 ,3.92281 ,38.49058 
97 ,17.7122 ,0.62134 ,3.89201 ,38.18837 
98 ,17.8884 ,0.62312 ,3.87832 ,38.05406 
99 ,18.0645 ,0.62481 ,3.86805 ,37.95332 
100 ,18.2406 ,0.62663 ,3.85779 ,37.85259 
101 ,18.4323 ,0.62863 ,3.82014 ,37.48323 
102 ,18.6248 ,0.63033 ,3.81330 ,37.41607 
103 ,18.8167 ,0.63238 ,3.80303 ,37.31534 
104 ,19.0089 ,0.63420 ,3.77565 ,37.04671 
105 ,19.2009 ,0.63621 ,3.78250 ,37.11387 
106 ,19.3769 ,0.63794 ,3.76196 ,36.91240 
107 ,19.5527 ,0.63972 ,3.74143 ,36.71093 
108 ,19.7289 ,0.64146 ,3.71405 ,36.44230 
109 ,19.9052 ,0.64322 ,3.70721 ,36.37514 
110 ,20.0812 ,0.64501 ,3.70037 ,36.30799 
111 ,20.2734 ,0.64689 ,3.67983 ,36.10652 
112 ,20.4495 ,0.64873 ,3.65588 ,35.87147 
113 ,20.6413 ,0.65059 ,3.65246 ,35.83789 
114 ,20.8174 ,0.65234 ,3.64219 ,35.73716 
115 ,21.0097 ,0.65418 ,3.61481 ,35.46853 
116 ,21.2018 ,0.65616 ,3.62166 ,35.53569 
117 ,21.3938 ,0.65813 ,3.58059 ,35.13275 
118 ,21.5699 ,0.65989 ,3.56348 ,34.96485 
119 ,21.7780 ,0.66189 ,3.55663 ,34.89770 
120 ,21.9701 ,0.66384 ,3.53610 ,34.69623 
121 ,22.1460 ,0.66556 ,3.51557 ,34.49476 
122 ,22.3223 ,0.66741 ,3.51215 ,34.46118 
123 ,22.5142 ,0.66934 ,3.50188 ,34.36045 
124 ,22.6900 ,0.67110 ,3.47792 ,34.12540 
125 ,22.8665 ,0.67282 ,3.45739 ,33.92393 
126 ,23.0745 ,0.67486 ,3.44713 ,33.82319 
127 ,23.2509 ,0.67670 ,3.43344 ,33.68888 
128 ,23.4266 ,0.67846 ,3.39921 ,33.35310 
129 ,23.6026 ,0.68018 ,3.40264 ,33.38667 
130 ,23.7785 ,0.68199 ,3.39237 ,33.28594 
131 ,23.9548 ,0.68375 ,3.38210 ,33.18520 
132 ,24.1469 ,0.68558 ,3.34788 ,32.84942 
133 ,24.3230 ,0.68744 ,3.33762 ,32.74869 
134 ,24.5152 ,0.68939 ,3.31708 ,32.54722 
135 ,24.6913 ,0.69110 ,3.32393 ,32.61437 
136 ,24.8669 ,0.69283 ,3.28286 ,32.21143 
137 ,25.0432 ,0.69461 ,3.27944 ,32.17786 
138 ,25.2354 ,0.69648 ,3.27944 ,32.17786 
139 ,25.4115 ,0.69829 ,3.25891 ,31.97639 
140 ,25.5875 ,0.70001 ,3.22811 ,31.67418 
141 ,25.7797 ,0.70186 ,3.21442 ,31.53987 
142 ,26.0032 ,0.70406 ,3.19388 ,31.33840 
143 ,26.1959 ,0.70611 ,3.19731 ,31.37198 
144 ,26.3720 ,0.70793 ,3.18362 ,31.23766 
145 ,26.5958 ,0.70996 ,3.17677 ,31.17051 
146 ,26.7720 ,0.71187 ,3.14255 ,30.83472 
147 ,26.9479 ,0.71363 ,3.12886 ,30.70041 
148 ,27.1403 ,0.71549 ,3.12886 ,30.70041 
149 ,27.3322 ,0.71747 ,3.10491 ,30.46536 
150 ,27.5244 ,0.71929 ,3.07411 ,30.16316 
151 ,27.7166 ,0.72132 ,3.08095 ,30.23031 
152 ,27.9244 ,0.72333 ,3.05015 ,29.92811 
153 ,28.1005 ,0.72515 ,3.03989 ,29.82737 
154 ,28.2927 ,0.72707 ,3.04673 ,29.89453 
155 ,28.4688 ,0.72888 ,3.01593 ,29.59233 
156 ,28.6611 ,0.73079 ,2.99198 ,29.35728 
157 ,28.8369 ,0.73257 ,2.97829 ,29.22297 
158 ,29.0286 ,0.73438 ,2.98513 ,29.29012 
159 ,29.1890 ,0.73614 ,2.93380 ,28.78645 
160 ,29.3809 ,0.73795 ,2.94064 ,28.85360 
161 ,29.5732 ,0.73978 ,2.93380 ,28.78645 
162 ,29.7652 ,0.74181 ,2.89958 ,28.45066 
163 ,29.9570 ,0.74373 ,2.90300 ,28.48424 
164 ,30.1334 ,0.74551 ,2.88589 ,28.31635 
165 ,30.3257 ,0.74738 ,2.84482 ,27.91341 
166 ,30.5174 ,0.74939 ,2.83456 ,27.81268 
167 ,30.6936 ,0.75108 ,2.83456 ,27.81268 
168 ,30.8698 ,0.75280 ,2.80718 ,27.54405 
169 ,31.0619 ,0.75480 ,2.79007 ,27.37616 
170 ,31.2538 ,0.75669 ,2.79349 ,27.40974 
171 ,31.4300 ,0.75847 ,2.76954 ,27.17469 
172 ,31.6060 ,0.76020 ,2.74900 ,26.97322 
173 ,31.7821 ,0.76197 ,2.73531 ,26.83891 
174 ,31.9582 ,0.76372 ,2.73531 ,26.83891 
175 ,32.1661 ,0.76581 ,2.70794 ,26.57028 
176 ,32.3584 ,0.76777 ,2.69767 ,26.46954 
177 ,32.5505 ,0.76968 ,2.70109 ,26.50312 
178 ,32.7264 ,0.77141 ,2.64976 ,25.99945 
179 ,32.9026 ,0.77313 ,2.66003 ,26.10018 
180 ,33.0947 ,0.77511 ,2.65318 ,26.03303 
181 ,33.2703 ,0.77685 ,2.62238 ,25.73082 
182 ,33.4468 ,0.77860 ,2.60527 ,25.56293 
183 ,33.6385 ,0.78045 ,2.60527 ,25.56293 
184 ,33.8310 ,0.78231 ,2.58816 ,25.39504 
185 ,34.0389 ,0.78449 ,2.57789 ,25.29430 
186 ,34.2311 ,0.78647 ,2.56421 ,25.15999 
187 ,34.4551 ,0.78851 ,2.52998 ,24.82421 
188 ,34.6472 ,0.79055 ,2.51287 ,24.65632 
189 ,34.8393 ,0.79241 ,2.48892 ,24.42127 
190 ,35.0149 ,0.79425 ,2.49576 ,24.48842 
191 ,35.2071 ,0.79613 ,2.47523 ,24.28696 
192 ,35.3832 ,0.79800 ,2.45470 ,24.08549 
193 ,35.5433 ,0.79966 ,2.44101 ,23.95117 
194 ,35.7193 ,0.80134 ,2.42732 ,23.81686 
195 ,35.9115 ,0.80323 ,2.43416 ,23.88402 
196 ,36.0877 ,0.80501 ,2.40679 ,23.61539 
197 ,36.2639 ,0.80676 ,2.38625 ,23.41392 
198 ,36.4400 ,0.80851 ,2.37941 ,23.34676 
199 ,36.6480 ,0.81055 ,2.36230 ,23.17887 
200 ,36.8400 ,0.81256 ,2.34861 ,23.04456 
201 ,37.0164 ,0.81429 ,2.34519 ,23.01098 
202 ,37.2082 ,0.81613 ,2.31097 ,22.67520 
203 ,37.3843 ,0.81797 ,2.30070 ,22.57446 
204 ,37.5605 ,0.81973 ,2.28701 ,22.44015 
205 ,37.7686 ,0.82173 ,2.26990 ,22.27226 
206 ,37.9765 ,0.82383 ,2.24937 ,22.07079 
207 ,38.2007 ,0.82600 ,2.22883 ,21.86932 
208 ,38.3766 ,0.82789 ,2.23226 ,21.90290 
209 ,38.5528 ,0.82966 ,2.22883 ,21.86932 
210 ,38.7289 ,0.83145 ,2.19461 ,21.53353 
211 ,38.9210 ,0.83327 ,2.18092 ,21.39922 
212 ,39.0969 ,0.83508 ,2.16381 ,21.23133 
213 ,39.2732 ,0.83686 ,2.17066 ,21.29849 
214 ,39.4491 ,0.83865 ,2.15012 ,21.09702 
215 ,39.6255 ,0.84038 ,2.12959 ,20.89555 
216 ,39.8012 ,0.84213 ,2.09879 ,20.59334 
217 ,39.9933 ,0.84406 ,2.10564 ,20.66050 
218 ,40.1695 ,0.84586 ,2.09195 ,20.52619 
219 ,40.3455 ,0.84766 ,2.07141 ,20.32472 
220 ,40.5375 ,0.84943 ,2.07141 ,20.32472 
221 ,40.7137 ,0.85124 ,2.05430 ,20.15682 
222 ,40.8898 ,0.85303 ,2.03035 ,19.92178 
223 ,41.0978 ,0.85505 ,2.04061 ,20.02251 
224 ,41.2896 ,0.85706 ,2.00639 ,19.68673 
225 ,41.4659 ,0.85875 ,1.98586 ,19.48526 
226 ,41.6421 ,0.86056 ,1.96533 ,19.28379 
227 ,41.8179 ,0.86230 ,1.96533 ,19.28379 
228 ,41.9942 ,0.86407 ,1.96533 ,19.28379 
229 ,42.1862 ,0.86595 ,1.93453 ,18.98158 
230 ,42.3624 ,0.86773 ,1.90715 ,18.71296 
231 ,42.5705 ,0.86967 ,1.91057 ,18.74654 
232 ,42.7466 ,0.87156 ,1.88662 ,18.51149 
233 ,42.9546 ,0.87362 ,1.88319 ,18.47791 
234 ,43.1305 ,0.87541 ,1.87977 ,18.44433 
235 ,43.3224 ,0.87730 ,1.86608 ,18.31002 
236 ,43.4988 ,0.87910 ,1.83528 ,18.00781 
237 ,43.6747 ,0.88082 ,1.83528 ,18.00781 
238 ,43.8510 ,0.88261 ,1.81133 ,17.77276 
239 ,44.0266 ,0.88434 ,1.79764 ,17.63845 
240 ,44.2030 ,0.88614 ,1.78053 ,17.47056 
241 ,44.3792 ,0.88793 ,1.76342 ,17.30267 
242 ,44.5713 ,0.88982 ,1.77369 ,17.40340 
243 ,44.7471 ,0.89157 ,1.73946 ,17.06762 
244 ,44.9237 ,0.89335 ,1.72235 ,16.89973 
245 ,45.1155 ,0.89527 ,1.72578 ,16.93331 
246 ,45.3233 ,0.89727 ,1.69498 ,16.63110 
247 ,45.5155 ,0.89921 ,1.70524 ,16.73184 
248 ,45.6918 ,0.90102 ,1.68129 ,16.49679 
249 ,45.8678 ,0.90282 ,1.66418 ,16.32890 
250 ,46.0596 ,0.90469 ,1.62995 ,15.99311 
251 ,46.2520 ,0.90661 ,1.64022 ,16.09385 
252 ,46.4440 ,0.90852 ,1.60258 ,15.72449 
253 ,46.6203 ,0.91032 ,1.61284 ,15.82522 
254 ,46.8121 ,0.91224 ,1.60258 ,15.72449 
255 ,46.9721 ,0.91389 ,1.56836 ,15.38871 
256 ,47.1320 ,0.91549 ,1.55467 ,15.25439 
257 ,47.3084 ,0.91718 ,1.53756 ,15.08650 
258 ,47.5005 ,0.91906 ,1.54782 ,15.18724 
259 ,47.6764 ,0.92087 ,1.53413 ,15.05292 
260 ,47.8527 ,0.92262 ,1.53756 ,15.08650 
261 ,48.0287 ,0.92441 ,1.50676 ,14.78430 
262 ,48.2043 ,0.92612 ,1.47253 ,14.44851 
263 ,48.3809 ,0.92792 ,1.47938 ,14.51567 
264 ,48.5725 ,0.92977 ,1.47938 ,14.51567 
265 ,48.7485 ,0.93157 ,1.45885 ,14.31420 
266 ,48.9246 ,0.93333 ,1.43831 ,14.11273 
267 ,49.1172 ,0.93515 ,1.42805 ,14.01199 
268 ,49.3251 ,0.93733 ,1.41436 ,13.87768 
269 ,49.5174 ,0.93926 ,1.40409 ,13.77695 
270 ,49.6933 ,0.94106 ,1.39725 ,13.70979 
271 ,49.8695 ,0.94278 ,1.37671 ,13.50832 
272 ,50.0455 ,0.94454 ,1.34934 ,13.23969 
273 ,50.2215 ,0.94627 ,1.34249 ,13.17254 
274 ,50.3815 ,0.94802 ,1.35276 ,13.27327 
275 ,50.5577 ,0.94963 ,1.33565 ,13.10538 
276 ,50.7339 ,0.95145 ,1.31512 ,12.90391 
277 ,50.9099 ,0.95320 ,1.29800 ,12.73602 
278 ,51.0859 ,0.95495 ,1.27747 ,12.53455 
279 ,51.2621 ,0.95670 ,1.26720 ,12.43381 
280 ,51.4381 ,0.95846 ,1.26036 ,12.36666 
281 ,51.6139 ,0.96021 ,1.27063 ,12.46739 
282 ,51.7898 ,0.96206 ,1.22614 ,12.03088 
283 ,51.9660 ,0.96369 ,1.21929 ,11.96372 
284 ,52.1422 ,0.96546 ,1.20903 ,11.86298 
285 ,52.3184 ,0.96729 ,1.19534 ,11.72867 
286 ,52.4945 ,0.96898 ,1.19192 ,11.69509 
287 ,52.6707 ,0.97079 ,1.17823 ,11.56078 
288 ,52.8789 ,0.97274 ,1.15085 ,11.29215 
289 ,53.0544 ,0.97467 ,1.15427 ,11.32573 
290 ,53.2310 ,0.97639 ,1.13374 ,11.12426 
291 ,53.4389 ,0.97834 ,1.11321 ,10.92279 
292 ,53.6151 ,0.98031 ,1.11321 ,10.92279 
293 ,53.8391 ,0.98228 ,1.09952 ,10.78848 
294 ,54.0152 ,0.98423 ,1.07899 ,10.58701 
295 ,54.1913 ,0.98599 ,1.07214 ,10.51985 
296 ,54.3994 ,0.98796 ,1.05503 ,10.35196 
297 ,54.5915 ,0.99004 ,1.03792 ,10.18407 
298 ,54.7674 ,0.99169 ,1.00712 ,9.88186 
299 ,54.9597 ,0.99354 ,1.00370 ,9.84829 
300 ,55.1517 ,0.99561 ,1.00712 ,9.88186 
301 ,55.3276 ,0.99733 ,0.99001 ,9.71397 
302 ,55.5038 ,0.99910 ,0.96605 ,9.47892 
303 ,55.6956 ,1.00090 ,0.97290 ,9.54608 
304 ,55.8880 ,1.00294 ,0.94210 ,9.24388 
305 ,56.0637 ,1.00475 ,0.93868 ,9.21030 
306 ,56.2401 ,1.00640 ,0.91814 ,9.00883 
307 ,56.4322 ,1.00840 ,0.92499 ,9.07598 
308 ,56.6243 ,1.01030 ,0.88392 ,8.67305 
309 ,56.8001 ,1.01210 ,0.89077 ,8.74020 
310 ,57.0083 ,1.01402 ,0.88392 ,8.67305 
311 ,57.1843 ,1.01590 ,0.84970 ,8.33726 
312 ,57.3606 ,1.01768 ,0.85312 ,8.37084 
313 ,57.5843 ,1.01974 ,0.82917 ,8.13579 
314 ,57.7607 ,1.02164 ,0.81206 ,7.96790 
315 ,57.9367 ,1.02338 ,0.81548 ,8.00148 
316 ,58.1128 ,1.02517 ,0.81206 ,7.96790 
317 ,58.2890 ,1.02691 ,0.78810 ,7.73285 
318 ,58.4970 ,1.02896 ,0.79152 ,7.76643 
319 ,58.6892 ,1.03086 ,0.75730 ,7.43065 
320 ,58.8651 ,1.03278 ,0.74361 ,7.29633 
321 ,59.0572 ,1.03462 ,0.73677 ,7.22918 
322 ,59.2334 ,1.03637 ,0.74019 ,7.26276 
323 ,59.4415 ,1.03829 ,0.70939 ,6.96055 
324 ,59.6335 ,1.04036 ,0.70597 ,6.92697 
325 ,59.8093 ,1.04212 ,0.69228 ,6.79266 
326 ,60.0016 ,1.04400 ,0.66833 ,6.55761 
327 ,60.1778 ,1.04578 ,0.66833 ,6.55761 
328 ,60.3540 ,1.04759 ,0.65806 ,6.45688 
329 ,60.5460 ,1.04947 ,0.62726 ,6.15467 
330 ,60.7380 ,1.05132 ,0.63068 ,6.18825 
331 ,60.9299 ,1.05329 ,0.62384 ,6.12109 
332 ,61.1058 ,1.05505 ,0.59304 ,5.81889 
333 ,61.2823 ,1.05689 ,0.59304 ,5.81889 
334 ,61.4744 ,1.05871 ,0.58962 ,5.78531 
335 ,61.6660 ,1.06066 ,0.55882 ,5.48311 
336 ,61.8425 ,1.06246 ,0.53144 ,5.21448 
337 ,62.0185 ,1.06423 ,0.54171 ,5.31522 
338 ,62.1945 ,1.06597 ,0.53144 ,5.21448 
339 ,62.4026 ,1.06808 ,0.52802 ,5.18090 
340 ,62.5786 ,1.06988 ,0.50406 ,4.94585 
341 ,62.7709 ,1.07171 ,0.50406 ,4.94585 
342 ,62.9468 ,1.07353 ,0.49037 ,4.81154 
343 ,63.1228 ,1.07524 ,0.45273 ,4.44218 
344 ,63.2988 ,1.07702 ,0.45273 ,4.44218 
345 ,63.4751 ,1.07878 ,0.45615 ,4.47576 
346 ,63.6671 ,1.08063 ,0.43904 ,4.30787 
347 ,63.8593 ,1.08266 ,0.40824 ,4.00566 
348 ,64.0350 ,1.08436 ,0.40482 ,3.97208 
349 ,64.2114 ,1.08611 ,0.41509 ,4.07282 
350 ,64.4034 ,1.08807 ,0.37402 ,3.66988 
351 ,64.5796 ,1.08980 ,0.36718 ,3.60272 
352 ,64.7555 ,1.09171 ,0.36033 ,3.53557 
353 ,64.9316 ,1.09333 ,0.35006 ,3.43483 
354 ,65.0915 ,1.09502 ,0.33980 ,3.33410 
355 ,65.2678 ,1.09674 ,0.33980 ,3.33410 
356 ,65.4760 ,1.09865 ,0.30900 ,3.03189 
357 ,65.6839 ,1.10082 ,0.28504 ,2.79684 
358 ,65.8600 ,1.10263 ,0.27478 ,2.69611 
359 ,66.0360 ,1.10436 ,0.28847 ,2.83042 
360 ,66.2120 ,1.10614 ,0.27478 ,2.69611 
361 ,66.4043 ,1.10796 ,0.23713 ,2.32675 
362 ,66.5804 ,1.10986 ,0.22687 ,2.22601 
363 ,66.7724 ,1.11174 ,0.23029 ,2.25959 
364 ,66.9486 ,1.11349 ,0.21660 ,2.12528 
365 ,67.1566 ,1.11557 ,0.21318 ,2.09170 
366 ,67.3322 ,1.11739 ,0.19264 ,1.89023 
367 ,67.5086 ,1.11908 ,0.20291 ,1.99096 
368 ,67.6846 ,1.12086 ,0.17553 ,1.72234 
369 ,67.8609 ,1.12262 ,0.15842 ,1.55445 
370 ,68.0369 ,1.12437 ,0.15158 ,1.48729 
371 ,68.2291 ,1.12631 ,0.15158 ,1.48729 
372 ,68.4050 ,1.12805 ,0.12762 ,1.25224 
373 ,68.5971 ,1.12997 ,0.11393 ,1.11793 
374 ,68.7732 ,1.13178 ,0.11051 ,1.08435 
375 ,68.9814 ,1.13376 ,0.08314 ,0.81572 
376 ,69.1573 ,1.13563 ,0.07629 ,0.74857 
377 ,69.3494 ,1.13752 ,0.07287 ,0.71499 
378 ,69.5256 ,1.13921 ,0.05918 ,0.58067 
379 ,69.7017 ,1.14102 ,0.02838 ,0.27847 
380 ,69.8937 ,1.14296 ,0.04891 ,0.47994 
381 ,70.0698 ,1.14471 ,0.03180 ,0.31205 
382 ,70.2459 ,1.14646 ,0.00100 ,0.00984 
383 ,70.4219 ,1.14820 ,0.00443 ,0.04342 
384 ,70.5980 ,1.15001 ,-0.00926 ,-0.09089 
385 ,70.7901 ,1.15186 ,-0.02295 ,-0.22520 
386 ,70.9822 ,1.15382 ,-0.04006 ,-0.39310 
387 ,71.1742 ,1.15578 ,-0.03322 ,-0.32594 
388 ,71.3663 ,1.15763 ,-0.06402 ,-0.62814 
389 ,71.5419 ,1.15938 ,-0.07086 ,-0.69530 
390 ,71.7186 ,1.16121 ,-0.06060 ,-0.59457 
391 ,71.9105 ,1.16307 ,-0.07086 ,-0.69530 
392 ,72.0866 ,1.16486 ,-0.07771 ,-0.76246 
393 ,72.2628 ,1.16663 ,-0.10166 ,-0.99751 
394 ,72.4387 ,1.16844 ,-0.10851 ,-1.06466 
395 ,72.6305 ,1.17029 ,-0.10166 ,-0.99751 
396 ,72.8068 ,1.17202 ,-0.12562 ,-1.23255 
397 ,72.9827 ,1.17384 ,-0.13931 ,-1.36687 
398 ,73.1750 ,1.17572 ,-0.14273 ,-1.40045 
399 ,73.3671 ,1.17759 ,-0.14957 ,-1.46760 
400 ,73.5593 ,1.17954 ,-0.18037 ,-1.76981 
401 ,73.7352 ,1.18133 ,-0.18722 ,-1.83696 
402 ,73.9113 ,1.18307 ,-0.19064 ,-1.87054 
403 ,74.0714 ,1.18480 ,-0.19748 ,-1.93770 
404 ,74.2474 ,1.18642 ,-0.20433 ,-2.00485 
405 ,74.4236 ,1.18821 ,-0.23855 ,-2.34064 
406 ,74.5996 ,1.19002 ,-0.23855 ,-2.34064 
407 ,74.7756 ,1.19168 ,-0.24197 ,-2.37422 
408 ,74.9679 ,1.19359 ,-0.25566 ,-2.50853 
409 ,75.1439 ,1.19539 ,-0.25566 ,-2.50853 
410 ,75.3359 ,1.19732 ,-0.26250 ,-2.57569 
411 ,75.5121 ,1.19912 ,-0.28304 ,-2.77716 
412 ,75.6880 ,1.20084 ,-0.27619 ,-2.71000 
413 ,75.8642 ,1.20261 ,-0.30015 ,-2.94505 
414 ,76.0559 ,1.20460 ,-0.30015 ,-2.94505 
415 ,76.2323 ,1.20629 ,-0.31041 ,-3.04578 
416 ,76.4084 ,1.20804 ,-0.32410 ,-3.18010 
417 ,76.6005 ,1.20995 ,-0.34464 ,-3.38156 
418 ,76.7922 ,1.21188 ,-0.35490 ,-3.48230 
419 ,76.9687 ,1.21369 ,-0.34806 ,-3.41514 
420 ,77.1605 ,1.21562 ,-0.38570 ,-3.78450 
421 ,77.3528 ,1.21753 ,-0.37544 ,-3.68377 
422 ,77.5609 ,1.21958 ,-0.40966 ,-4.01955 
423 ,77.7530 ,1.22145 ,-0.39597 ,-3.88524 
424 ,77.9290 ,1.22337 ,-0.41992 ,-4.12029 
425 ,78.1050 ,1.22502 ,-0.41308 ,-4.05313 
426 ,78.2812 ,1.22680 ,-0.43703 ,-4.28818 
427 ,78.4572 ,1.22859 ,-0.45757 ,-4.48965 
428 ,78.6493 ,1.23044 ,-0.44388 ,-4.35534 
429 ,78.8255 ,1.23219 ,-0.46783 ,-4.59038 
430 ,79.0174 ,1.23414 ,-0.48152 ,-4.72470 
431 ,79.2097 ,1.23599 ,-0.47810 ,-4.69112 
432 ,79.3857 ,1.23780 ,-0.48837 ,-4.79185 
433 ,79.5617 ,1.23956 ,-0.51917 ,-5.09406 
434 ,79.7217 ,1.24128 ,-0.52259 ,-5.12764 
435 ,79.9139 ,1.24308 ,-0.51574 ,-5.06048 
436 ,80.1058 ,1.24496 ,-0.52943 ,-5.19479 
437 ,80.2821 ,1.24676 ,-0.54312 ,-5.32911 
438 ,80.4582 ,1.24859 ,-0.56023 ,-5.49700 
439 ,80.6503 ,1.25047 ,-0.54312 ,-5.32911 
440 ,80.8263 ,1.25224 ,-0.56365 ,-5.53058 
441 ,81.0023 ,1.25396 ,-0.57050 ,-5.59773 
442 ,81.1624 ,1.25567 ,-0.59103 ,-5.79920 
443 ,81.3546 ,1.25746 ,-0.59445 ,-5.83278 
444 ,81.5306 ,1.25927 ,-0.58761 ,-5.76562 
445 ,81.7227 ,1.26111 ,-0.62183 ,-6.10141 
446 ,81.8986 ,1.26297 ,-0.62868 ,-6.16856 
447 ,82.0908 ,1.26490 ,-0.62868 ,-6.16856 
448 ,82.2668 ,1.26660 ,-0.62183 ,-6.10141 
449 ,82.4589 ,1.26857 ,-0.65263 ,-6.40361 
450 ,82.6349 ,1.27027 ,-0.65605 ,-6.43719 
451 ,82.8112 ,1.27207 ,-0.65263 ,-6.40361 
452 ,82.9872 ,1.27379 ,-0.66632 ,-6.53793 
453 ,83.1789 ,1.27575 ,-0.69712 ,-6.84013 
454 ,83.3714 ,1.27761 ,-0.68685 ,-6.73940 
455 ,83.5474 ,1.27944 ,-0.67659 ,-6.63866 
456 ,83.7234 ,1.28118 ,-0.70396 ,-6.90729 
457 ,83.9155 ,1.28306 ,-0.72450 ,-7.10876 
458 ,84.0917 ,1.28488 ,-0.72107 ,-7.07518 
459 ,84.2833 ,1.28682 ,-0.73476 ,-7.20949 
460 ,84.4598 ,1.28858 ,-0.74161 ,-7.27665 
461 ,84.6519 ,1.29049 ,-0.73476 ,-7.20949 
462 ,84.8439 ,1.29233 ,-0.76214 ,-7.47812 
463 ,85.0202 ,1.29416 ,-0.76556 ,-7.51170 
