Data stamp = , 02-05-2022 00:16:38 083

Calibration Values: 
Slope = , 26.54 , g/V 
Offset Voltage at no contact = , -0.501760 , V 

No , Time , Stage Position ,   Mass , Force 
   ,  (s) ,      (mm)      ,   (g)  , (mN)  

1 ,0.0000 ,0.99956 ,5.34985 ,52.49273 
2 ,0.2097 ,0.99964 ,5.35327 ,52.52631 
3 ,0.7703 ,1.00184 ,5.33274 ,52.32484 
4 ,0.9784 ,1.00412 ,5.34643 ,52.45915 
5 ,1.2825 ,1.00659 ,5.34985 ,52.49273 
6 ,1.4901 ,1.00918 ,5.31905 ,52.19052 
7 ,1.6825 ,1.01115 ,5.29167 ,51.92190 
8 ,1.8747 ,1.01307 ,5.29167 ,51.92190 
9 ,2.0671 ,1.01498 ,5.26087 ,51.61969 
10 ,2.2586 ,1.01695 ,5.25061 ,51.51896 
11 ,2.4348 ,1.01882 ,5.24718 ,51.48538 
12 ,2.6269 ,1.02057 ,5.22323 ,51.25033 
13 ,2.8189 ,1.02252 ,5.19927 ,51.01528 
14 ,3.0111 ,1.02443 ,5.19927 ,51.01528 
15 ,3.2032 ,1.02634 ,5.15136 ,50.54519 
16 ,3.3793 ,1.02822 ,5.15136 ,50.54519 
17 ,3.5719 ,1.03008 ,5.13425 ,50.37729 
18 ,3.7795 ,1.03210 ,5.12056 ,50.24298 
19 ,3.9876 ,1.03421 ,5.07950 ,49.84004 
20 ,4.1795 ,1.03612 ,5.07950 ,49.84004 
21 ,4.3713 ,1.03804 ,5.05212 ,49.57142 
22 ,4.5640 ,1.04000 ,5.01106 ,49.16848 
23 ,4.7719 ,1.04204 ,5.02474 ,49.30279 
24 ,4.9638 ,1.04397 ,4.99737 ,49.03416 
25 ,5.1556 ,1.04587 ,4.98026 ,48.86627 
26 ,5.3480 ,1.04775 ,4.94603 ,48.53049 
27 ,5.5399 ,1.04969 ,4.93235 ,48.39618 
28 ,5.7322 ,1.05163 ,4.92892 ,48.36260 
29 ,5.9278 ,1.05361 ,4.90155 ,48.09397 
30 ,6.1483 ,1.05578 ,4.86048 ,47.69103 
31 ,6.3562 ,1.05786 ,4.86048 ,47.69103 
32 ,6.5481 ,1.05977 ,4.83310 ,47.42240 
33 ,6.7406 ,1.06171 ,4.81941 ,47.28809 
34 ,6.9484 ,1.06378 ,4.79204 ,47.01946 
35 ,7.1408 ,1.06566 ,4.78177 ,46.91873 
36 ,7.3329 ,1.06766 ,4.77150 ,46.81800 
37 ,7.5250 ,1.06960 ,4.74755 ,46.58295 
38 ,7.7330 ,1.07162 ,4.74070 ,46.51579 
39 ,7.9251 ,1.07355 ,4.70648 ,46.18001 
40 ,8.1332 ,1.07563 ,4.70306 ,46.14643 
41 ,8.3251 ,1.07754 ,4.66884 ,45.81065 
42 ,8.5174 ,1.07948 ,4.67226 ,45.84422 
43 ,8.7090 ,1.08136 ,4.63462 ,45.47486 
44 ,8.9174 ,1.08339 ,4.62777 ,45.40771 
45 ,9.1737 ,1.08592 ,4.61751 ,45.30697 
46 ,9.3819 ,1.08814 ,4.57644 ,44.90403 
47 ,9.5738 ,1.09008 ,4.55933 ,44.73614 
48 ,9.7659 ,1.09197 ,4.54222 ,44.56825 
49 ,9.9900 ,1.09416 ,4.51826 ,44.33320 
50 ,10.1979 ,1.09624 ,4.52511 ,44.40036 
51 ,10.3901 ,1.09825 ,4.47720 ,43.93026 
52 ,10.5822 ,1.10006 ,4.48062 ,43.96384 
53 ,10.7743 ,1.10201 ,4.45666 ,43.72879 
54 ,10.9665 ,1.10394 ,4.42929 ,43.46016 
55 ,11.1745 ,1.10604 ,4.42244 ,43.39301 
56 ,11.3822 ,1.10803 ,4.40533 ,43.22512 
57 ,11.5747 ,1.11006 ,4.38138 ,42.99007 
58 ,11.7665 ,1.11193 ,4.36427 ,42.82218 
59 ,11.9585 ,1.11382 ,4.35058 ,42.68786 
60 ,12.1829 ,1.11612 ,4.34031 ,42.58713 
61 ,12.3908 ,1.11819 ,4.29924 ,42.18419 
62 ,12.5671 ,1.12010 ,4.30609 ,42.25135 
63 ,12.7589 ,1.12185 ,4.28556 ,42.04988 
64 ,12.9510 ,1.12380 ,4.25476 ,41.74767 
65 ,13.1432 ,1.12571 ,4.23422 ,41.54620 
66 ,13.3513 ,1.12781 ,4.22053 ,41.41189 
67 ,13.5434 ,1.12969 ,4.21711 ,41.37831 
68 ,13.7355 ,1.13165 ,4.18631 ,41.07611 
69 ,13.9276 ,1.13359 ,4.17947 ,41.00895 
70 ,14.1352 ,1.13564 ,4.15894 ,40.80748 
71 ,14.3598 ,1.13777 ,4.14867 ,40.70674 
72 ,14.5680 ,1.13995 ,4.11445 ,40.37096 
73 ,14.7596 ,1.14185 ,4.10076 ,40.23665 
74 ,14.9517 ,1.14377 ,4.07338 ,39.96802 
75 ,15.1601 ,1.14580 ,4.07680 ,40.00160 
76 ,15.3679 ,1.14801 ,4.06312 ,39.86729 
77 ,15.5602 ,1.14988 ,4.01863 ,39.43077 
78 ,15.7520 ,1.15175 ,4.00494 ,39.29646 
79 ,15.9445 ,1.15373 ,3.99467 ,39.19572 
80 ,16.1526 ,1.15578 ,3.96387 ,38.89352 
81 ,16.3442 ,1.15771 ,3.96045 ,38.85994 
82 ,16.5367 ,1.15963 ,3.93992 ,38.65847 
83 ,16.7444 ,1.16172 ,3.93650 ,38.62489 
84 ,16.9368 ,1.16363 ,3.89201 ,38.18837 
85 ,17.1287 ,1.16553 ,3.90227 ,38.28911 
86 ,17.3206 ,1.16744 ,3.88858 ,38.15479 
87 ,17.5131 ,1.16935 ,3.85779 ,37.85259 
88 ,17.7051 ,1.17144 ,3.84067 ,37.68470 
89 ,17.9291 ,1.17359 ,3.84067 ,37.68470 
90 ,18.1374 ,1.17562 ,3.79961 ,37.28176 
91 ,18.3292 ,1.17754 ,3.80303 ,37.31534 
92 ,18.5369 ,1.17964 ,3.75854 ,36.87882 
93 ,18.7294 ,1.18152 ,3.75170 ,36.81166 
94 ,18.9056 ,1.18346 ,3.73117 ,36.61019 
95 ,19.0976 ,1.18518 ,3.71405 ,36.44230 
96 ,19.2895 ,1.18716 ,3.69352 ,36.24083 
97 ,19.4817 ,1.18907 ,3.68668 ,36.17367 
98 ,19.6740 ,1.19098 ,3.65930 ,35.90505 
99 ,19.8820 ,1.19308 ,3.65930 ,35.90505 
100 ,20.0899 ,1.19512 ,3.65246 ,35.83789 
101 ,20.2822 ,1.19711 ,3.61139 ,35.43495 
102 ,20.4902 ,1.19912 ,3.60797 ,35.40137 
103 ,20.6819 ,1.20106 ,3.59086 ,35.23348 
104 ,20.8904 ,1.20317 ,3.57375 ,35.06559 
105 ,21.0983 ,1.20527 ,3.55321 ,34.86412 
106 ,21.3064 ,1.20728 ,3.54979 ,34.83054 
107 ,21.4984 ,1.20923 ,3.51557 ,34.49476 
108 ,21.6904 ,1.21116 ,3.51215 ,34.46118 
109 ,21.8824 ,1.21311 ,3.47792 ,34.12540 
110 ,22.0745 ,1.21497 ,3.47792 ,34.12540 
111 ,22.2666 ,1.21686 ,3.45739 ,33.92393 
112 ,22.4588 ,1.21885 ,3.43686 ,33.72246 
113 ,22.6509 ,1.22079 ,3.43686 ,33.72246 
114 ,22.8432 ,1.22267 ,3.40264 ,33.38667 
115 ,23.0513 ,1.22476 ,3.40264 ,33.38667 
116 ,23.2592 ,1.22681 ,3.36842 ,33.05089 
117 ,23.4835 ,1.22894 ,3.36499 ,33.01731 
118 ,23.6756 ,1.23101 ,3.34446 ,32.81584 
119 ,23.8837 ,1.23306 ,3.32393 ,32.61437 
120 ,24.0756 ,1.23496 ,3.29997 ,32.37933 
121 ,24.2838 ,1.23695 ,3.29313 ,32.31217 
122 ,24.4758 ,1.23898 ,3.27259 ,32.11070 
123 ,24.6677 ,1.24093 ,3.26917 ,32.07712 
124 ,24.8602 ,1.24286 ,3.23153 ,31.70776 
125 ,25.0518 ,1.24480 ,3.23153 ,31.70776 
126 ,25.2602 ,1.24681 ,3.19731 ,31.37198 
127 ,25.4681 ,1.24895 ,3.19388 ,31.33840 
128 ,25.6763 ,1.25089 ,3.16993 ,31.10335 
129 ,25.8681 ,1.25292 ,3.15966 ,31.00262 
130 ,26.0444 ,1.25478 ,3.12886 ,30.70041 
131 ,26.2365 ,1.25654 ,3.13229 ,30.73399 
132 ,26.4282 ,1.25847 ,3.11518 ,30.56610 
133 ,26.6206 ,1.26042 ,3.08780 ,30.29747 
134 ,26.8128 ,1.26235 ,3.09122 ,30.33105 
135 ,27.0206 ,1.26443 ,3.05700 ,29.99527 
136 ,27.2128 ,1.26635 ,3.05358 ,29.96169 
137 ,27.4210 ,1.26848 ,3.02962 ,29.72664 
138 ,27.6291 ,1.27054 ,3.01935 ,29.62590 
139 ,27.8211 ,1.27246 ,2.99882 ,29.42444 
140 ,28.0134 ,1.27436 ,2.98855 ,29.32370 
141 ,28.2212 ,1.27641 ,2.96802 ,29.12223 
142 ,28.4133 ,1.27832 ,2.96460 ,29.08865 
143 ,28.6055 ,1.28026 ,2.92353 ,28.68571 
144 ,28.7976 ,1.28217 ,2.93038 ,28.75287 
145 ,28.9895 ,1.28405 ,2.90985 ,28.55140 
146 ,29.1976 ,1.28609 ,2.87905 ,28.24919 
147 ,29.3897 ,1.28817 ,2.86878 ,28.14846 
148 ,29.6139 ,1.29020 ,2.86193 ,28.08130 
149 ,29.8378 ,1.29249 ,2.83456 ,27.81268 
150 ,30.0140 ,1.29448 ,2.81745 ,27.64479 
151 ,30.2058 ,1.29626 ,2.79349 ,27.40974 
152 ,30.4143 ,1.29822 ,2.80718 ,27.54405 
153 ,30.6382 ,1.30055 ,2.77638 ,27.24185 
154 ,30.8465 ,1.30269 ,2.74558 ,26.93964 
155 ,31.0384 ,1.30459 ,2.75243 ,27.00680 
156 ,31.2467 ,1.30658 ,2.71820 ,26.67101 
157 ,31.4387 ,1.30858 ,2.72163 ,26.70459 
158 ,31.6304 ,1.31055 ,2.69425 ,26.43597 
159 ,31.8228 ,1.31246 ,2.68056 ,26.30165 
160 ,32.0148 ,1.31448 ,2.65660 ,26.06661 
161 ,32.2069 ,1.31625 ,2.64292 ,25.93229 
162 ,32.3990 ,1.31813 ,2.65660 ,26.06661 
163 ,32.5912 ,1.32005 ,2.61896 ,25.69724 
164 ,32.7832 ,1.32203 ,2.60527 ,25.56293 
165 ,32.9747 ,1.32397 ,2.60527 ,25.56293 
166 ,33.1994 ,1.32622 ,2.58474 ,25.36146 
167 ,33.3916 ,1.32815 ,2.56421 ,25.15999 
168 ,33.5995 ,1.33012 ,2.54710 ,24.99210 
169 ,33.7912 ,1.33216 ,2.52314 ,24.75705 
170 ,33.9997 ,1.33420 ,2.52314 ,24.75705 
171 ,34.2077 ,1.33621 ,2.48550 ,24.38769 
172 ,34.3997 ,1.33818 ,2.48550 ,24.38769 
173 ,34.6077 ,1.34027 ,2.45470 ,24.08549 
174 ,34.7999 ,1.34219 ,2.46154 ,24.15264 
175 ,35.0079 ,1.34423 ,2.44101 ,23.95117 
176 ,35.2000 ,1.34620 ,2.43074 ,23.85044 
177 ,35.3923 ,1.34812 ,2.41363 ,23.68255 
178 ,35.5842 ,1.35003 ,2.38968 ,23.44750 
179 ,35.7765 ,1.35194 ,2.37941 ,23.34676 
180 ,35.9840 ,1.35404 ,2.36914 ,23.24603 
181 ,36.1927 ,1.35608 ,2.32808 ,22.84309 
182 ,36.4006 ,1.35824 ,2.34177 ,22.97740 
183 ,36.5929 ,1.36012 ,2.30754 ,22.64162 
184 ,36.8168 ,1.36229 ,2.29385 ,22.50731 
185 ,37.0085 ,1.36424 ,2.27332 ,22.30584 
186 ,37.2009 ,1.36618 ,2.26990 ,22.27226 
187 ,37.4252 ,1.36843 ,2.25621 ,22.13794 
188 ,37.6332 ,1.37055 ,2.22883 ,21.86932 
189 ,37.8413 ,1.37258 ,2.23226 ,21.90290 
190 ,38.0332 ,1.37461 ,2.21515 ,21.73500 
191 ,38.2254 ,1.37640 ,2.19461 ,21.53353 
192 ,38.4173 ,1.37831 ,2.17408 ,21.33206 
193 ,38.6096 ,1.38025 ,2.16381 ,21.23133 
194 ,38.8177 ,1.38235 ,2.15355 ,21.13059 
195 ,39.0094 ,1.38430 ,2.13301 ,20.92912 
196 ,39.2018 ,1.38621 ,2.11932 ,20.79481 
197 ,39.4098 ,1.38822 ,2.09879 ,20.59334 
198 ,39.5859 ,1.39016 ,2.09195 ,20.52619 
199 ,39.7780 ,1.39195 ,2.07484 ,20.35829 
200 ,39.9701 ,1.39389 ,2.06115 ,20.22398 
201 ,40.1622 ,1.39581 ,2.05773 ,20.19040 
202 ,40.3539 ,1.39768 ,2.03035 ,19.92178 
203 ,40.5464 ,1.39965 ,2.02693 ,19.88820 
204 ,40.7544 ,1.40173 ,2.00639 ,19.68673 
205 ,40.9465 ,1.40360 ,2.00297 ,19.65315 
206 ,41.1386 ,1.40561 ,1.96875 ,19.31737 
207 ,41.3307 ,1.40749 ,1.97559 ,19.38452 
208 ,41.5385 ,1.40953 ,1.93453 ,18.98158 
209 ,41.7308 ,1.41148 ,1.92426 ,18.88085 
210 ,41.9229 ,1.41345 ,1.92768 ,18.91443 
211 ,42.1309 ,1.41552 ,1.91399 ,18.78011 
212 ,42.3390 ,1.41753 ,1.89688 ,18.61222 
213 ,42.5308 ,1.41948 ,1.87635 ,18.41075 
214 ,42.7393 ,1.42158 ,1.85924 ,18.24286 
215 ,42.9475 ,1.42365 ,1.86266 ,18.27644 
216 ,43.1393 ,1.42558 ,1.82844 ,17.94066 
217 ,43.3311 ,1.42752 ,1.83871 ,18.04139 
218 ,43.5230 ,1.42947 ,1.80449 ,17.70561 
219 ,43.7151 ,1.43135 ,1.80449 ,17.70561 
220 ,43.9075 ,1.43324 ,1.79080 ,17.57129 
221 ,44.1160 ,1.43530 ,1.75657 ,17.23551 
222 ,44.3238 ,1.43741 ,1.74289 ,17.10120 
223 ,44.5159 ,1.43926 ,1.73262 ,17.00046 
224 ,44.7237 ,1.44138 ,1.72578 ,16.93331 
225 ,44.9162 ,1.44334 ,1.70866 ,16.76542 
226 ,45.1242 ,1.44540 ,1.69498 ,16.63110 
227 ,45.3164 ,1.44732 ,1.67102 ,16.39605 
228 ,45.5082 ,1.44925 ,1.67102 ,16.39605 
229 ,45.7004 ,1.45114 ,1.65391 ,16.22816 
230 ,45.8921 ,1.45304 ,1.66075 ,16.29532 
231 ,46.0847 ,1.45496 ,1.63680 ,16.06027 
232 ,46.2767 ,1.45693 ,1.61284 ,15.82522 
233 ,46.4847 ,1.45901 ,1.60600 ,15.75807 
234 ,46.6929 ,1.46108 ,1.60600 ,15.75807 
235 ,46.9010 ,1.46318 ,1.56493 ,15.35513 
236 ,47.1088 ,1.46527 ,1.56836 ,15.38871 
237 ,47.3012 ,1.46712 ,1.53756 ,15.08650 
238 ,47.4930 ,1.46906 ,1.54098 ,15.12008 
239 ,47.7012 ,1.47113 ,1.51702 ,14.88503 
240 ,47.8932 ,1.47305 ,1.50676 ,14.78430 
241 ,48.1013 ,1.47518 ,1.48622 ,14.58283 
242 ,48.2933 ,1.47707 ,1.48622 ,14.58283 
243 ,48.4857 ,1.47897 ,1.46227 ,14.34778 
244 ,48.6935 ,1.48111 ,1.45885 ,14.31420 
245 ,48.8858 ,1.48302 ,1.41778 ,13.91126 
246 ,49.0935 ,1.48506 ,1.43489 ,14.07915 
247 ,49.3020 ,1.48713 ,1.39725 ,13.70979 
248 ,49.5101 ,1.48924 ,1.40067 ,13.74337 
249 ,49.7021 ,1.49117 ,1.36303 ,13.37401 
250 ,49.8939 ,1.49319 ,1.37671 ,13.50832 
251 ,50.0860 ,1.49500 ,1.35276 ,13.27327 
252 ,50.2940 ,1.49701 ,1.34591 ,13.20612 
253 ,50.4863 ,1.49898 ,1.33565 ,13.10538 
254 ,50.6781 ,1.50089 ,1.31854 ,12.93749 
255 ,50.8865 ,1.50299 ,1.29116 ,12.66886 
256 ,51.0627 ,1.50488 ,1.29800 ,12.73602 
257 ,51.2547 ,1.50668 ,1.29458 ,12.70244 
258 ,51.4630 ,1.50876 ,1.25694 ,12.33308 
259 ,51.6709 ,1.51083 ,1.26378 ,12.40024 
260 ,51.8631 ,1.51280 ,1.22956 ,12.06445 
261 ,52.0710 ,1.51487 ,1.22956 ,12.06445 
262 ,52.2949 ,1.51702 ,1.22956 ,12.06445 
263 ,52.4869 ,1.51914 ,1.19192 ,11.69509 
264 ,52.6792 ,1.52089 ,1.18165 ,11.59436 
265 ,52.8713 ,1.52284 ,1.17823 ,11.56078 
266 ,53.0637 ,1.52476 ,1.15085 ,11.29215 
267 ,53.2553 ,1.52664 ,1.15427 ,11.32573 
268 ,53.4474 ,1.52858 ,1.13716 ,11.15784 
269 ,53.6558 ,1.53067 ,1.13716 ,11.15784 
270 ,53.8640 ,1.53277 ,1.09952 ,10.78848 
271 ,54.0555 ,1.53468 ,1.10636 ,10.85563 
272 ,54.2478 ,1.53660 ,1.06530 ,10.45270 
273 ,54.4400 ,1.53848 ,1.07556 ,10.55343 
274 ,54.6315 ,1.54043 ,1.06187 ,10.41912 
275 ,54.8243 ,1.54234 ,1.03450 ,10.15049 
276 ,55.0322 ,1.54446 ,1.02765 ,10.08333 
277 ,55.2079 ,1.54631 ,1.00028 ,9.81471 
278 ,55.4004 ,1.54807 ,1.02081 ,10.01618 
279 ,55.6082 ,1.55020 ,0.99343 ,9.74755 
280 ,55.8004 ,1.55212 ,0.98659 ,9.68039 
281 ,56.0084 ,1.55422 ,0.94894 ,9.31103 
282 ,56.2170 ,1.55629 ,0.96263 ,9.44535 
283 ,56.4088 ,1.55821 ,0.93183 ,9.14314 
284 ,56.6169 ,1.56024 ,0.93183 ,9.14314 
285 ,56.7927 ,1.56212 ,0.90103 ,8.84094 
286 ,56.9848 ,1.56396 ,0.89419 ,8.77378 
287 ,57.2252 ,1.56639 ,0.90103 ,8.84094 
288 ,57.4327 ,1.56842 ,0.87708 ,8.60589 
289 ,57.6572 ,1.57056 ,0.87023 ,8.53873 
290 ,57.8650 ,1.57276 ,0.83943 ,8.23653 
291 ,58.0734 ,1.57474 ,0.84286 ,8.27011 
292 ,58.2657 ,1.57678 ,0.82575 ,8.10221 
293 ,58.4737 ,1.57884 ,0.80521 ,7.90074 
294 ,58.6659 ,1.58076 ,0.79837 ,7.83359 
295 ,58.8578 ,1.58269 ,0.79495 ,7.80001 
296 ,59.0498 ,1.58457 ,0.76757 ,7.53138 
297 ,59.2420 ,1.58655 ,0.78468 ,7.69927 
298 ,59.4500 ,1.58858 ,0.74019 ,7.26276 
299 ,59.6261 ,1.59050 ,0.75388 ,7.39707 
300 ,59.8180 ,1.59223 ,0.73335 ,7.19560 
301 ,60.0098 ,1.59419 ,0.71281 ,6.99413 
302 ,60.2345 ,1.59630 ,0.70255 ,6.89340 
303 ,60.4425 ,1.59849 ,0.69570 ,6.82624 
304 ,60.6345 ,1.60043 ,0.66490 ,6.52403 
305 ,60.8264 ,1.60232 ,0.66148 ,6.49046 
306 ,61.0186 ,1.60426 ,0.67175 ,6.59119 
307 ,61.1947 ,1.60617 ,0.63068 ,6.18825 
308 ,61.3869 ,1.60795 ,0.63410 ,6.22183 
309 ,61.5789 ,1.60989 ,0.62042 ,6.08752 
310 ,61.7710 ,1.61178 ,0.60673 ,5.95320 
311 ,61.9633 ,1.61375 ,0.60673 ,5.95320 
312 ,62.1551 ,1.61564 ,0.56908 ,5.58384 
313 ,62.3634 ,1.61773 ,0.58277 ,5.71815 
314 ,62.5714 ,1.61981 ,0.56566 ,5.55026 
315 ,62.7955 ,1.62197 ,0.54171 ,5.31522 
316 ,63.0034 ,1.62413 ,0.55197 ,5.41595 
317 ,63.1956 ,1.62603 ,0.51775 ,5.08017 
318 ,63.4036 ,1.62806 ,0.52117 ,5.11375 
319 ,63.5958 ,1.63006 ,0.50406 ,4.94585 
320 ,63.8038 ,1.63208 ,0.50064 ,4.91228 
321 ,63.9959 ,1.63404 ,0.47326 ,4.64365 
322 ,64.2039 ,1.63611 ,0.46984 ,4.61007 
323 ,64.3956 ,1.63803 ,0.44588 ,4.37502 
324 ,64.5879 ,1.63993 ,0.44931 ,4.40860 
325 ,64.7962 ,1.64201 ,0.42877 ,4.20713 
326 ,64.9883 ,1.64395 ,0.42535 ,4.17355 
327 ,65.1804 ,1.64590 ,0.41851 ,4.10640 
328 ,65.3726 ,1.64783 ,0.39455 ,3.87135 
329 ,65.5641 ,1.64973 ,0.40140 ,3.93850 
330 ,65.7727 ,1.65166 ,0.37744 ,3.70346 
331 ,65.9645 ,1.65370 ,0.37744 ,3.70346 
332 ,66.1729 ,1.65571 ,0.34322 ,3.36767 
333 ,66.3809 ,1.65785 ,0.34322 ,3.36767 
334 ,66.5731 ,1.65979 ,0.33295 ,3.26694 
335 ,66.7650 ,1.66179 ,0.32269 ,3.16620 
336 ,66.9570 ,1.66363 ,0.28847 ,2.83042 
337 ,67.1491 ,1.66552 ,0.30215 ,2.96473 
338 ,67.3573 ,1.66762 ,0.27478 ,2.69611 
339 ,67.5493 ,1.66956 ,0.28504 ,2.79684 
340 ,67.7569 ,1.67158 ,0.26109 ,2.56179 
341 ,67.9495 ,1.67354 ,0.26109 ,2.56179 
342 ,68.1416 ,1.67549 ,0.24398 ,2.39390 
343 ,68.3336 ,1.67741 ,0.23371 ,2.29317 
344 ,68.5257 ,1.67934 ,0.22344 ,2.19243 
345 ,68.7177 ,1.68120 ,0.20633 ,2.02454 
346 ,68.9259 ,1.68326 ,0.20976 ,2.05812 
347 ,69.1180 ,1.68527 ,0.18238 ,1.78949 
348 ,69.3101 ,1.68712 ,0.17896 ,1.75592 
349 ,69.4860 ,1.68905 ,0.16185 ,1.58802 
350 ,69.6780 ,1.69084 ,0.16185 ,1.58802 
351 ,69.8859 ,1.69288 ,0.15842 ,1.55445 
352 ,70.0782 ,1.69483 ,0.13105 ,1.28582 
353 ,70.2864 ,1.69692 ,0.13105 ,1.28582 
354 ,70.4784 ,1.69884 ,0.12420 ,1.21866 
355 ,70.6866 ,1.70094 ,0.12420 ,1.21866 
356 ,70.8946 ,1.70298 ,0.09682 ,0.95004 
357 ,71.1024 ,1.70508 ,0.06602 ,0.64783 
358 ,71.2949 ,1.70702 ,0.07629 ,0.74857 
359 ,71.4865 ,1.70893 ,0.06260 ,0.61425 
360 ,71.6790 ,1.71082 ,0.04549 ,0.44636 
361 ,71.8710 ,1.71277 ,0.05918 ,0.58067 
362 ,72.0949 ,1.71479 ,0.03180 ,0.31205 
363 ,72.3034 ,1.71694 ,0.03180 ,0.31205 
364 ,72.5114 ,1.71916 ,0.02496 ,0.24489 
365 ,72.7036 ,1.72111 ,-0.00242 ,-0.02373 
366 ,72.9116 ,1.72317 ,-0.01269 ,-0.12447 
367 ,73.1034 ,1.72510 ,-0.03322 ,-0.32594 
368 ,73.2956 ,1.72707 ,-0.00926 ,-0.09089 
369 ,73.5039 ,1.72904 ,-0.05375 ,-0.52741 
370 ,73.6959 ,1.73101 ,-0.04691 ,-0.46025 
371 ,73.9041 ,1.73305 ,-0.06402 ,-0.62814 
372 ,74.0959 ,1.73513 ,-0.06060 ,-0.59457 
373 ,74.2880 ,1.73688 ,-0.07771 ,-0.76246 
374 ,74.4960 ,1.73900 ,-0.09824 ,-0.96393 
375 ,74.7044 ,1.74102 ,-0.10508 ,-1.03108 
376 ,74.8963 ,1.74300 ,-0.10508 ,-1.03108 
377 ,75.0884 ,1.74493 ,-0.12562 ,-1.23255 
378 ,75.2804 ,1.74687 ,-0.14273 ,-1.40045 
379 ,75.4885 ,1.74895 ,-0.14615 ,-1.43402 
380 ,75.6966 ,1.75102 ,-0.14615 ,-1.43402 
381 ,75.8888 ,1.75294 ,-0.15984 ,-1.56834 
382 ,76.0968 ,1.75497 ,-0.16668 ,-1.63549 
383 ,76.3051 ,1.75698 ,-0.19064 ,-1.87054 
384 ,76.4968 ,1.75911 ,-0.18722 ,-1.83696 
385 ,76.6889 ,1.76090 ,-0.20775 ,-2.03843 
386 ,76.8811 ,1.76288 ,-0.21802 ,-2.13917 
387 ,77.0890 ,1.76488 ,-0.23513 ,-2.30706 
388 ,77.2813 ,1.76685 ,-0.23513 ,-2.30706 
389 ,77.4734 ,1.76874 ,-0.23513 ,-2.30706 
390 ,77.6815 ,1.77084 ,-0.26593 ,-2.60926 
391 ,77.8895 ,1.77297 ,-0.26593 ,-2.60926 
392 ,78.0655 ,1.77479 ,-0.26593 ,-2.60926 
393 ,78.2576 ,1.77656 ,-0.26935 ,-2.64284 
394 ,78.4496 ,1.77852 ,-0.29673 ,-2.91147 
395 ,78.6413 ,1.78043 ,-0.30357 ,-2.97863 
396 ,78.8337 ,1.78237 ,-0.30357 ,-2.97863 
397 ,79.0421 ,1.78441 ,-0.32752 ,-3.21367 
398 ,79.2342 ,1.78640 ,-0.32752 ,-3.21367 
399 ,79.4420 ,1.78848 ,-0.34806 ,-3.41514 
400 ,79.6343 ,1.79037 ,-0.34464 ,-3.38156 
401 ,79.8420 ,1.79247 ,-0.36175 ,-3.54946 
402 ,80.0344 ,1.79435 ,-0.35490 ,-3.48230 
403 ,80.2266 ,1.79628 ,-0.38570 ,-3.78450 
404 ,80.4346 ,1.79836 ,-0.39939 ,-3.91882 
405 ,80.6266 ,1.80027 ,-0.40966 ,-4.01955 
406 ,80.8183 ,1.80221 ,-0.39597 ,-3.88524 
407 ,81.0108 ,1.80408 ,-0.42335 ,-4.15387 
408 ,81.2349 ,1.80633 ,-0.41650 ,-4.08671 
409 ,81.4272 ,1.80826 ,-0.45757 ,-4.48965 
410 ,81.6191 ,1.81021 ,-0.43361 ,-4.25460 
411 ,81.8267 ,1.81225 ,-0.46099 ,-4.52323 
412 ,82.0026 ,1.81415 ,-0.44730 ,-4.38891 
413 ,82.1950 ,1.81594 ,-0.47468 ,-4.65754 
414 ,82.3871 ,1.81791 ,-0.48152 ,-4.72470 
415 ,82.5955 ,1.81996 ,-0.48837 ,-4.79185 
416 ,82.8036 ,1.82203 ,-0.49863 ,-4.89259 
417 ,83.0112 ,1.82412 ,-0.52259 ,-5.12764 
418 ,83.2037 ,1.82604 ,-0.52601 ,-5.16121 
419 ,83.3957 ,1.82801 ,-0.53285 ,-5.22837 
420 ,83.6038 ,1.83001 ,-0.54312 ,-5.32911 
421 ,83.7959 ,1.83196 ,-0.56023 ,-5.49700 
422 ,83.9878 ,1.83390 ,-0.54997 ,-5.39626 
423 ,84.2120 ,1.83594 ,-0.55339 ,-5.42984 
424 ,84.4202 ,1.83823 ,-0.56365 ,-5.53058 
425 ,84.6121 ,1.84009 ,-0.59103 ,-5.79920 
426 ,84.8203 ,1.84225 ,-0.58761 ,-5.76562 
427 ,85.0125 ,1.84413 ,-0.62183 ,-6.10141 
428 ,85.2041 ,1.84599 ,-0.61156 ,-6.00067 
429 ,85.3967 ,1.84796 ,-0.63210 ,-6.20214 
430 ,85.6047 ,1.85000 ,-0.61499 ,-6.03425 
431 ,85.8128 ,1.85212 ,-0.65263 ,-6.40361 
432 ,86.0048 ,1.85408 ,-0.64579 ,-6.33646 
433 ,86.2129 ,1.85615 ,-0.66632 ,-6.53793 
434 ,86.4210 ,1.85825 ,-0.65947 ,-6.47077 
435 ,86.6131 ,1.86015 ,-0.68685 ,-6.73940 
436 ,86.8052 ,1.86207 ,-0.66974 ,-6.57150 
437 ,86.9971 ,1.86397 ,-0.71081 ,-6.97444 
438 ,87.1733 ,1.86580 ,-0.70739 ,-6.94086 
439 ,87.3650 ,1.86761 ,-0.70739 ,-6.94086 
440 ,87.5737 ,1.86965 ,-0.73134 ,-7.17591 
441 ,87.7655 ,1.87178 ,-0.73134 ,-7.17591 
442 ,87.9574 ,1.87351 ,-0.73476 ,-7.20949 
443 ,88.1491 ,1.87548 ,-0.75530 ,-7.41096 
444 ,88.3417 ,1.87740 ,-0.75187 ,-7.37738 
445 ,88.5338 ,1.87927 ,-0.77925 ,-7.64601 
446 ,88.7580 ,1.88143 ,-0.76898 ,-7.54527 
447 ,88.9500 ,1.88345 ,-0.78952 ,-7.74674 
448 ,89.1577 ,1.88554 ,-0.80663 ,-7.91464 
449 ,89.3502 ,1.88749 ,-0.81005 ,-7.94821 
450 ,89.5418 ,1.88939 ,-0.80663 ,-7.91464 
451 ,89.7343 ,1.89134 ,-0.82716 ,-8.11611 
452 ,89.9425 ,1.89338 ,-0.82716 ,-8.11611 
453 ,90.1505 ,1.89539 ,-0.84085 ,-8.25042 
454 ,90.3426 ,1.89743 ,-0.84427 ,-8.28400 
455 ,90.5507 ,1.89952 ,-0.86481 ,-8.48547 
456 ,90.7427 ,1.90147 ,-0.86823 ,-8.51904 
457 ,90.9508 ,1.90347 ,-0.88192 ,-8.65336 
458 ,91.1429 ,1.90539 ,-0.87849 ,-8.61978 
459 ,91.3511 ,1.90743 ,-0.89560 ,-8.78767 
460 ,91.5587 ,1.90949 ,-0.91614 ,-8.98914 
461 ,91.7506 ,1.91144 ,-0.91272 ,-8.95556 
462 ,91.9429 ,1.91336 ,-0.91956 ,-9.02272 
463 ,92.1513 ,1.91546 ,-0.93667 ,-9.19061 
