Data stamp = , 02-05-2022 06:51:25 224

Calibration Values: 
Slope = , 26.54 , g/V 
Offset Voltage at no contact = , -0.501760 , V 

No , Time , Stage Position ,   Mass , Force 
   ,  (s) ,      (mm)      ,   (g)  , (mN)  

1 ,0.0000 ,0.99945 ,5.34301 ,52.42557 
2 ,0.2236 ,0.99952 ,5.36354 ,52.62704 
3 ,0.7682 ,1.00171 ,5.34301 ,52.42557 
4 ,0.9759 ,1.00395 ,5.34985 ,52.49273 
5 ,1.2003 ,1.00599 ,5.36354 ,52.62704 
6 ,1.4245 ,1.00829 ,5.33958 ,52.39199 
7 ,1.6323 ,1.01049 ,5.30536 ,52.05621 
8 ,1.8247 ,1.01239 ,5.28483 ,51.85474 
9 ,2.0166 ,1.01436 ,5.26772 ,51.68685 
10 ,2.2088 ,1.01638 ,5.26430 ,51.65327 
11 ,2.4008 ,1.01818 ,5.24034 ,51.41822 
12 ,2.5930 ,1.02010 ,5.22665 ,51.28391 
13 ,2.8009 ,1.02207 ,5.20954 ,51.11602 
14 ,2.9931 ,1.02411 ,5.17874 ,50.81381 
15 ,3.1852 ,1.02603 ,5.17190 ,50.74666 
16 ,3.3774 ,1.02794 ,5.13425 ,50.37729 
17 ,3.5857 ,1.03007 ,5.12741 ,50.31014 
18 ,3.7934 ,1.03215 ,5.10345 ,50.07509 
19 ,4.0013 ,1.03418 ,5.08977 ,49.94078 
20 ,4.2251 ,1.03645 ,5.06239 ,49.67215 
21 ,4.4492 ,1.03857 ,5.04185 ,49.47068 
22 ,4.6412 ,1.04061 ,5.01448 ,49.20205 
23 ,4.8337 ,1.04255 ,5.00421 ,49.10132 
24 ,5.0579 ,1.04475 ,4.97341 ,48.79911 
25 ,5.2500 ,1.04664 ,4.96999 ,48.76554 
26 ,5.4577 ,1.04873 ,4.93577 ,48.42975 
27 ,5.6660 ,1.05081 ,4.92208 ,48.29544 
28 ,5.8740 ,1.05292 ,4.90155 ,48.09397 
29 ,6.0825 ,1.05499 ,4.88444 ,47.92608 
30 ,6.2905 ,1.05706 ,4.87417 ,47.82534 
31 ,6.4984 ,1.05915 ,4.82626 ,47.35525 
32 ,6.6905 ,1.06100 ,4.82284 ,47.32167 
33 ,6.8826 ,1.06301 ,4.80573 ,47.15378 
34 ,7.0747 ,1.06492 ,4.77835 ,46.88515 
35 ,7.2669 ,1.06687 ,4.77150 ,46.81800 
36 ,7.4749 ,1.06904 ,4.75439 ,46.65010 
37 ,7.6666 ,1.07094 ,4.73728 ,46.48221 
38 ,7.8590 ,1.07275 ,4.70648 ,46.18001 
39 ,8.0513 ,1.07466 ,4.69279 ,46.04569 
40 ,8.2593 ,1.07677 ,4.65515 ,45.67633 
41 ,8.4514 ,1.07866 ,4.66884 ,45.81065 
42 ,8.6435 ,1.08059 ,4.64488 ,45.57560 
43 ,8.8352 ,1.08248 ,4.61408 ,45.27339 
44 ,9.0276 ,1.08441 ,4.60724 ,45.20624 
45 ,9.2357 ,1.08652 ,4.58328 ,44.97119 
46 ,9.4279 ,1.08846 ,4.58671 ,45.00477 
47 ,9.6513 ,1.09067 ,4.54906 ,44.63541 
48 ,9.8594 ,1.09266 ,4.53537 ,44.50109 
49 ,10.0679 ,1.09483 ,4.51826 ,44.33320 
50 ,10.3236 ,1.09741 ,4.50115 ,44.16531 
51 ,10.7564 ,1.10155 ,4.44982 ,43.66163 
52 ,10.9483 ,1.10362 ,4.43613 ,43.52732 
53 ,11.1565 ,1.10566 ,4.40875 ,43.25870 
54 ,11.3646 ,1.10780 ,4.38822 ,43.05723 
55 ,11.5727 ,1.10980 ,4.37111 ,42.88933 
56 ,11.7483 ,1.11174 ,4.36769 ,42.85576 
57 ,11.9404 ,1.11356 ,4.33004 ,42.48639 
58 ,12.1485 ,1.11566 ,4.34373 ,42.62071 
59 ,12.3405 ,1.11752 ,4.29240 ,42.11703 
60 ,12.5164 ,1.11940 ,4.29924 ,42.18419 
61 ,12.7091 ,1.12124 ,4.28556 ,42.04988 
62 ,12.9172 ,1.12328 ,4.25476 ,41.74767 
63 ,13.1091 ,1.12517 ,4.25476 ,41.74767 
64 ,13.2853 ,1.12710 ,4.22053 ,41.41189 
65 ,13.4773 ,1.12889 ,4.19658 ,41.17684 
66 ,13.6695 ,1.13083 ,4.21027 ,41.31115 
67 ,13.8774 ,1.13291 ,4.17605 ,40.97537 
68 ,14.0697 ,1.13478 ,4.15894 ,40.80748 
69 ,14.2773 ,1.13689 ,4.12814 ,40.50527 
70 ,14.4697 ,1.13883 ,4.13156 ,40.53885 
71 ,14.6779 ,1.14093 ,4.10076 ,40.23665 
72 ,14.8860 ,1.14302 ,4.08707 ,40.10233 
73 ,15.0780 ,1.14490 ,4.06312 ,39.86729 
74 ,15.2862 ,1.14698 ,4.06312 ,39.86729 
75 ,15.4781 ,1.14893 ,4.03574 ,39.59866 
76 ,15.6703 ,1.15080 ,4.01178 ,39.36361 
77 ,15.8784 ,1.15294 ,3.98441 ,39.09499 
78 ,16.0703 ,1.15481 ,3.99809 ,39.22930 
79 ,16.3102 ,1.15707 ,3.96729 ,38.92709 
80 ,16.5022 ,1.15912 ,3.94676 ,38.72562 
81 ,16.7105 ,1.16116 ,3.94676 ,38.72562 
82 ,16.9189 ,1.16332 ,3.91254 ,38.38984 
83 ,17.1107 ,1.16521 ,3.89885 ,38.25553 
84 ,17.3030 ,1.16715 ,3.86463 ,37.91975 
85 ,17.4951 ,1.16909 ,3.87147 ,37.98690 
86 ,17.6707 ,1.17093 ,3.85436 ,37.81901 
87 ,17.8632 ,1.17276 ,3.82699 ,37.55038 
88 ,18.0553 ,1.17466 ,3.81330 ,37.41607 
89 ,18.2633 ,1.17667 ,3.80303 ,37.31534 
90 ,18.4553 ,1.17865 ,3.77565 ,37.04671 
91 ,18.6475 ,1.18061 ,3.76196 ,36.91240 
92 ,18.8553 ,1.18268 ,3.74828 ,36.77808 
93 ,19.0634 ,1.18477 ,3.73117 ,36.61019 
94 ,19.2716 ,1.18683 ,3.71748 ,36.47588 
95 ,19.5119 ,1.18926 ,3.70037 ,36.30799 
96 ,19.7199 ,1.19126 ,3.67299 ,36.03936 
97 ,19.9118 ,1.19321 ,3.66614 ,35.97220 
98 ,20.1199 ,1.19530 ,3.61823 ,35.50211 
99 ,20.3122 ,1.19727 ,3.62850 ,35.60284 
100 ,20.5200 ,1.19926 ,3.59428 ,35.26706 
101 ,20.7123 ,1.20122 ,3.60112 ,35.33422 
102 ,20.9201 ,1.20330 ,3.57375 ,35.06559 
103 ,21.1124 ,1.20524 ,3.55663 ,34.89770 
104 ,21.3204 ,1.20725 ,3.51899 ,34.52834 
105 ,21.5125 ,1.20925 ,3.53610 ,34.69623 
106 ,21.7203 ,1.21127 ,3.50188 ,34.36045 
107 ,21.9128 ,1.21320 ,3.48477 ,34.19255 
108 ,22.1048 ,1.21515 ,3.46424 ,33.99108 
109 ,22.2970 ,1.21704 ,3.46424 ,33.99108 
110 ,22.5210 ,1.21936 ,3.43344 ,33.68888 
111 ,22.7291 ,1.22139 ,3.43001 ,33.65530 
112 ,22.9210 ,1.22328 ,3.38210 ,33.18520 
113 ,23.1289 ,1.22537 ,3.39237 ,33.28594 
114 ,23.3213 ,1.22728 ,3.36499 ,33.01731 
115 ,23.5135 ,1.22927 ,3.36157 ,32.98374 
116 ,23.7215 ,1.23126 ,3.32735 ,32.64795 
117 ,23.9136 ,1.23325 ,3.32393 ,32.61437 
118 ,24.1216 ,1.23525 ,3.29655 ,32.34575 
119 ,24.3137 ,1.23723 ,3.29997 ,32.37933 
120 ,24.5218 ,1.23923 ,3.26575 ,32.04354 
121 ,24.7140 ,1.24123 ,3.25891 ,31.97639 
122 ,24.9221 ,1.24332 ,3.22811 ,31.67418 
123 ,25.1140 ,1.24525 ,3.22811 ,31.67418 
124 ,25.3057 ,1.24726 ,3.21100 ,31.50629 
125 ,25.4983 ,1.24911 ,3.18020 ,31.20409 
126 ,25.6901 ,1.25095 ,3.19046 ,31.30482 
127 ,25.8820 ,1.25289 ,3.14597 ,30.86830 
128 ,26.0744 ,1.25482 ,3.16651 ,31.06977 
129 ,26.2666 ,1.25676 ,3.12544 ,30.66683 
130 ,26.4422 ,1.25863 ,3.10833 ,30.49894 
131 ,26.6346 ,1.26041 ,3.09806 ,30.39821 
132 ,26.8269 ,1.26232 ,3.08095 ,30.23031 
133 ,27.0190 ,1.26427 ,3.06384 ,30.06242 
134 ,27.2107 ,1.26618 ,3.06726 ,30.09600 
135 ,27.4030 ,1.26810 ,3.01935 ,29.62590 
136 ,27.5953 ,1.27003 ,3.01935 ,29.62590 
137 ,27.7869 ,1.27194 ,2.99198 ,29.35728 
138 ,27.9794 ,1.27383 ,2.98513 ,29.29012 
139 ,28.1714 ,1.27580 ,2.98513 ,29.29012 
140 ,28.3630 ,1.27771 ,2.95091 ,28.95434 
141 ,28.5553 ,1.27962 ,2.95091 ,28.95434 
142 ,28.7636 ,1.28175 ,2.92353 ,28.68571 
143 ,28.9716 ,1.28374 ,2.92011 ,28.65213 
144 ,29.1637 ,1.28575 ,2.88589 ,28.31635 
145 ,29.3556 ,1.28768 ,2.87905 ,28.24919 
146 ,29.5479 ,1.28954 ,2.85509 ,28.01415 
147 ,29.7559 ,1.29160 ,2.85509 ,28.01415 
148 ,29.9481 ,1.29352 ,2.82771 ,27.74552 
149 ,30.1401 ,1.29550 ,2.82771 ,27.74552 
150 ,30.3482 ,1.29759 ,2.80034 ,27.47689 
151 ,30.5401 ,1.29947 ,2.79349 ,27.40974 
152 ,30.7319 ,1.30135 ,2.77980 ,27.27542 
153 ,30.9243 ,1.30330 ,2.74900 ,26.97322 
154 ,31.1324 ,1.30539 ,2.74900 ,26.97322 
155 ,31.3402 ,1.30750 ,2.72847 ,26.77175 
156 ,31.5805 ,1.30979 ,2.70109 ,26.50312 
157 ,31.7729 ,1.31176 ,2.70452 ,26.53670 
158 ,31.9968 ,1.31399 ,2.69083 ,26.40239 
159 ,32.2048 ,1.31606 ,2.64634 ,25.96587 
160 ,32.3971 ,1.31801 ,2.66003 ,26.10018 
161 ,32.5894 ,1.31996 ,2.62923 ,25.79798 
162 ,32.7973 ,1.32206 ,2.61896 ,25.69724 
163 ,33.0048 ,1.32409 ,2.57447 ,25.26073 
164 ,33.1974 ,1.32603 ,2.59843 ,25.49577 
165 ,33.4055 ,1.32813 ,2.56421 ,25.15999 
166 ,33.5975 ,1.33003 ,2.56421 ,25.15999 
167 ,33.8057 ,1.33212 ,2.52656 ,24.79063 
168 ,33.9976 ,1.33403 ,2.53341 ,24.85779 
169 ,34.1896 ,1.33592 ,2.50261 ,24.55558 
170 ,34.3818 ,1.33789 ,2.48892 ,24.42127 
171 ,34.5901 ,1.33990 ,2.48550 ,24.38769 
172 ,34.7976 ,1.34197 ,2.46154 ,24.15264 
173 ,34.9897 ,1.34395 ,2.43074 ,23.85044 
174 ,35.1659 ,1.34581 ,2.42732 ,23.81686 
175 ,35.3582 ,1.34767 ,2.42390 ,23.78328 
176 ,35.5662 ,1.34973 ,2.39652 ,23.51465 
177 ,35.7744 ,1.35166 ,2.39652 ,23.51465 
178 ,35.9822 ,1.35378 ,2.36230 ,23.17887 
179 ,36.1747 ,1.35580 ,2.36230 ,23.17887 
180 ,36.3828 ,1.35792 ,2.34177 ,22.97740 
181 ,36.5908 ,1.35994 ,2.32465 ,22.80951 
182 ,36.7825 ,1.36191 ,2.31781 ,22.74235 
183 ,36.9750 ,1.36379 ,2.30754 ,22.64162 
184 ,37.1831 ,1.36582 ,2.29043 ,22.47373 
185 ,37.3908 ,1.36796 ,2.26648 ,22.23868 
186 ,37.5834 ,1.36988 ,2.24252 ,22.00363 
187 ,37.7911 ,1.37197 ,2.22199 ,21.80216 
188 ,37.9989 ,1.37404 ,2.22541 ,21.83574 
189 ,38.1913 ,1.37595 ,2.20146 ,21.60069 
190 ,38.3835 ,1.37789 ,2.18777 ,21.46638 
191 ,38.5756 ,1.37980 ,2.19461 ,21.53353 
192 ,38.7838 ,1.38191 ,2.17408 ,21.33206 
193 ,38.9756 ,1.38379 ,2.15355 ,21.13059 
194 ,39.1839 ,1.38589 ,2.14670 ,21.06344 
195 ,39.3922 ,1.38797 ,2.12275 ,20.82839 
196 ,39.5835 ,1.38990 ,2.10564 ,20.66050 
197 ,39.7761 ,1.39176 ,2.09879 ,20.59334 
198 ,39.9682 ,1.39373 ,2.07484 ,20.35829 
199 ,40.1602 ,1.39564 ,2.07484 ,20.35829 
200 ,40.3681 ,1.39761 ,2.04061 ,20.02251 
201 ,40.5604 ,1.39962 ,2.05088 ,20.12325 
202 ,40.8165 ,1.40204 ,2.03035 ,19.92178 
203 ,41.0404 ,1.40437 ,2.02008 ,19.82104 
204 ,41.2486 ,1.40645 ,1.97559 ,19.38452 
205 ,41.4567 ,1.40847 ,1.97217 ,19.35094 
206 ,41.6648 ,1.41065 ,1.95164 ,19.14948 
207 ,41.8727 ,1.41272 ,1.93111 ,18.94801 
208 ,42.0809 ,1.41485 ,1.93453 ,18.98158 
209 ,42.2890 ,1.41689 ,1.90031 ,18.64580 
210 ,42.4970 ,1.41896 ,1.90715 ,18.71296 
211 ,42.6893 ,1.42087 ,1.86951 ,18.34360 
212 ,42.8812 ,1.42287 ,1.87977 ,18.44433 
213 ,43.0732 ,1.42472 ,1.84555 ,18.10855 
214 ,43.2812 ,1.42687 ,1.85582 ,18.20928 
215 ,43.4734 ,1.42877 ,1.81817 ,17.83992 
216 ,43.6974 ,1.43084 ,1.82160 ,17.87350 
217 ,43.9052 ,1.43310 ,1.80106 ,17.67203 
218 ,44.1137 ,1.43517 ,1.76342 ,17.30267 
219 ,44.3216 ,1.43722 ,1.77026 ,17.36983 
220 ,44.5138 ,1.43916 ,1.75657 ,17.23551 
221 ,44.7059 ,1.44106 ,1.73946 ,17.06762 
222 ,44.9140 ,1.44314 ,1.71893 ,16.86615 
223 ,45.1059 ,1.44508 ,1.71893 ,16.86615 
224 ,45.3140 ,1.44715 ,1.69498 ,16.63110 
225 ,45.5063 ,1.44909 ,1.67786 ,16.46321 
226 ,45.6984 ,1.45097 ,1.67102 ,16.39605 
227 ,45.8741 ,1.45286 ,1.64707 ,16.16101 
228 ,46.0661 ,1.45467 ,1.64364 ,16.12743 
229 ,46.2586 ,1.45656 ,1.63338 ,16.02669 
230 ,46.4828 ,1.45877 ,1.61969 ,15.89238 
231 ,46.6904 ,1.46091 ,1.59573 ,15.65733 
232 ,46.8825 ,1.46286 ,1.59573 ,15.65733 
233 ,47.0744 ,1.46480 ,1.56493 ,15.35513 
234 ,47.2664 ,1.46671 ,1.56493 ,15.35513 
235 ,47.4750 ,1.46863 ,1.55124 ,15.22081 
236 ,47.6832 ,1.47078 ,1.52045 ,14.91861 
237 ,47.8913 ,1.47289 ,1.50676 ,14.78430 
238 ,48.0834 ,1.47480 ,1.50676 ,14.78430 
239 ,48.2751 ,1.47675 ,1.48622 ,14.58283 
240 ,48.4675 ,1.47865 ,1.46569 ,14.38136 
241 ,48.6753 ,1.48073 ,1.45200 ,14.24704 
242 ,48.8676 ,1.48264 ,1.44516 ,14.17989 
243 ,49.0596 ,1.48456 ,1.43831 ,14.11273 
244 ,49.2518 ,1.48652 ,1.41436 ,13.87768 
245 ,49.4594 ,1.48851 ,1.42120 ,13.94484 
246 ,49.6519 ,1.49048 ,1.39383 ,13.67621 
247 ,49.8439 ,1.49244 ,1.39040 ,13.64263 
248 ,50.0361 ,1.49436 ,1.36987 ,13.44116 
249 ,50.2440 ,1.49644 ,1.36987 ,13.44116 
250 ,50.4684 ,1.49859 ,1.34249 ,13.17254 
251 ,50.7085 ,1.50095 ,1.31169 ,12.87033 
252 ,50.9165 ,1.50315 ,1.29800 ,12.73602 
253 ,51.1246 ,1.50525 ,1.31512 ,12.90391 
254 ,51.3162 ,1.50714 ,1.27405 ,12.50097 
255 ,51.5088 ,1.50902 ,1.26720 ,12.43381 
256 ,51.6843 ,1.51095 ,1.27063 ,12.46739 
257 ,51.8766 ,1.51277 ,1.24325 ,12.19877 
258 ,52.0687 ,1.51462 ,1.23298 ,12.09803 
259 ,52.2608 ,1.51656 ,1.21587 ,11.93014 
260 ,52.4531 ,1.51851 ,1.20903 ,11.86298 
261 ,52.6452 ,1.52043 ,1.20218 ,11.79583 
262 ,52.8372 ,1.52248 ,1.16454 ,11.42647 
263 ,53.0293 ,1.52425 ,1.17138 ,11.49362 
264 ,53.2213 ,1.52616 ,1.16454 ,11.42647 
265 ,53.4135 ,1.52813 ,1.13716 ,11.15784 
266 ,53.6216 ,1.53016 ,1.12690 ,11.05710 
267 ,53.8132 ,1.53211 ,1.10294 ,10.82206 
268 ,54.0214 ,1.53411 ,1.09610 ,10.75490 
269 ,54.2298 ,1.53628 ,1.08241 ,10.62059 
270 ,54.4378 ,1.53835 ,1.06872 ,10.48627 
271 ,54.6301 ,1.54030 ,1.06530 ,10.45270 
272 ,54.8220 ,1.54215 ,1.04819 ,10.28480 
273 ,54.9979 ,1.54406 ,1.03108 ,10.11691 
274 ,55.1902 ,1.54584 ,1.03450 ,10.15049 
275 ,55.3822 ,1.54784 ,1.00370 ,9.84829 
276 ,55.5743 ,1.54969 ,1.00370 ,9.84829 
277 ,55.7665 ,1.55167 ,0.99685 ,9.78113 
278 ,55.9585 ,1.55354 ,0.97290 ,9.54608 
279 ,56.1667 ,1.55566 ,0.97632 ,9.57966 
280 ,56.3748 ,1.55775 ,0.94210 ,9.24388 
281 ,56.5506 ,1.55958 ,0.94894 ,9.31103 
282 ,56.7267 ,1.56132 ,0.93183 ,9.14314 
283 ,56.9190 ,1.56316 ,0.90446 ,8.87451 
284 ,57.1266 ,1.56523 ,0.90788 ,8.90809 
285 ,57.3350 ,1.56727 ,0.88734 ,8.70662 
286 ,57.5272 ,1.56926 ,0.88050 ,8.63947 
287 ,57.7193 ,1.57117 ,0.85654 ,8.40442 
288 ,57.9112 ,1.57307 ,0.85654 ,8.40442 
289 ,58.1033 ,1.57499 ,0.84628 ,8.30368 
290 ,58.2789 ,1.57689 ,0.81890 ,8.03506 
291 ,58.4712 ,1.57865 ,0.83601 ,8.20295 
292 ,58.6796 ,1.58075 ,0.79837 ,7.83359 
293 ,58.8715 ,1.58263 ,0.80179 ,7.86717 
294 ,59.1115 ,1.58499 ,0.77441 ,7.59854 
295 ,59.3195 ,1.58719 ,0.76757 ,7.53138 
296 ,59.5119 ,1.58911 ,0.74704 ,7.32991 
297 ,59.7202 ,1.59116 ,0.73677 ,7.22918 
298 ,59.9120 ,1.59305 ,0.73677 ,7.22918 
299 ,60.1042 ,1.59497 ,0.70939 ,6.96055 
300 ,60.2962 ,1.59687 ,0.70597 ,6.92697 
301 ,60.4719 ,1.59878 ,0.70255 ,6.89340 
302 ,60.6643 ,1.60056 ,0.68886 ,6.75908 
303 ,60.8722 ,1.60270 ,0.67859 ,6.65835 
304 ,61.0643 ,1.60459 ,0.65464 ,6.42330 
305 ,61.2726 ,1.60672 ,0.64437 ,6.32256 
306 ,61.4483 ,1.60856 ,0.63068 ,6.18825 
307 ,61.6407 ,1.61035 ,0.61357 ,6.02036 
308 ,61.8489 ,1.61242 ,0.62042 ,6.08752 
309 ,62.0406 ,1.61433 ,0.58619 ,5.75173 
310 ,62.2330 ,1.61624 ,0.59646 ,5.85247 
311 ,62.4252 ,1.61818 ,0.56224 ,5.51668 
312 ,62.6168 ,1.62026 ,0.56908 ,5.58384 
313 ,62.8093 ,1.62210 ,0.56224 ,5.51668 
314 ,63.0175 ,1.62411 ,0.53486 ,5.24806 
315 ,63.2095 ,1.62603 ,0.53828 ,5.28164 
316 ,63.4175 ,1.62810 ,0.50406 ,4.94585 
317 ,63.6094 ,1.63004 ,0.51091 ,5.01301 
318 ,63.8013 ,1.63192 ,0.49380 ,4.84512 
319 ,63.9937 ,1.63388 ,0.48695 ,4.77796 
320 ,64.1858 ,1.63579 ,0.47668 ,4.67723 
321 ,64.3940 ,1.63775 ,0.44931 ,4.40860 
322 ,64.5859 ,1.63979 ,0.45957 ,4.50934 
323 ,64.7781 ,1.64167 ,0.43220 ,4.24071 
324 ,65.0020 ,1.64380 ,0.43904 ,4.30787 
325 ,65.2103 ,1.64603 ,0.41509 ,4.07282 
326 ,65.4023 ,1.64796 ,0.38771 ,3.80419 
327 ,65.6103 ,1.65003 ,0.39113 ,3.83777 
328 ,65.8026 ,1.65196 ,0.36375 ,3.56914 
329 ,65.9782 ,1.65380 ,0.37744 ,3.70346 
330 ,66.1707 ,1.65559 ,0.36033 ,3.53557 
331 ,66.3465 ,1.65752 ,0.33638 ,3.30052 
332 ,66.5388 ,1.65930 ,0.32611 ,3.19978 
333 ,66.7305 ,1.66121 ,0.32269 ,3.16620 
334 ,66.9231 ,1.66314 ,0.30215 ,2.96473 
335 ,67.1310 ,1.66523 ,0.31242 ,3.06547 
336 ,67.3392 ,1.66733 ,0.28847 ,2.83042 
337 ,67.5631 ,1.66953 ,0.27135 ,2.66253 
338 ,67.7712 ,1.67163 ,0.28847 ,2.83042 
339 ,67.9633 ,1.67357 ,0.24740 ,2.42748 
340 ,68.1550 ,1.67545 ,0.25424 ,2.49464 
341 ,68.3472 ,1.67738 ,0.24740 ,2.42748 
342 ,68.5396 ,1.67932 ,0.22344 ,2.19243 
343 ,68.7477 ,1.68139 ,0.21318 ,2.09170 
344 ,68.9393 ,1.68330 ,0.19264 ,1.89023 
345 ,69.1316 ,1.68520 ,0.20291 ,1.99096 
346 ,69.3398 ,1.68728 ,0.18238 ,1.78949 
347 ,69.5475 ,1.68937 ,0.17211 ,1.68876 
348 ,69.7401 ,1.69129 ,0.16185 ,1.58802 
349 ,69.9318 ,1.69326 ,0.15842 ,1.55445 
350 ,70.1236 ,1.69514 ,0.13105 ,1.28582 
351 ,70.3157 ,1.69705 ,0.14473 ,1.42013 
352 ,70.5243 ,1.69910 ,0.11736 ,1.15151 
353 ,70.7963 ,1.70174 ,0.10025 ,0.98361 
354 ,70.9887 ,1.70380 ,0.09682 ,0.95004 
355 ,71.1968 ,1.70588 ,0.07971 ,0.78214 
356 ,71.4044 ,1.70786 ,0.07287 ,0.71499 
357 ,71.6129 ,1.71000 ,0.06602 ,0.64783 
358 ,71.8207 ,1.71206 ,0.04207 ,0.41278 
359 ,72.0130 ,1.71403 ,0.05918 ,0.58067 
360 ,72.2050 ,1.71595 ,0.01469 ,0.14416 
361 ,72.3973 ,1.71788 ,0.03522 ,0.34563 
362 ,72.5888 ,1.71976 ,0.00100 ,0.00984 
363 ,72.7813 ,1.72169 ,0.00100 ,0.00984 
364 ,72.9733 ,1.72363 ,-0.00584 ,-0.05731 
365 ,73.1654 ,1.72557 ,-0.01953 ,-0.19163 
366 ,73.3891 ,1.72767 ,-0.02637 ,-0.25878 
367 ,73.5815 ,1.72970 ,-0.04348 ,-0.42667 
368 ,73.8056 ,1.73180 ,-0.04691 ,-0.46025 
369 ,74.0138 ,1.73405 ,-0.06402 ,-0.62814 
370 ,74.1896 ,1.73592 ,-0.08455 ,-0.82961 
371 ,74.3818 ,1.73764 ,-0.09140 ,-0.89677 
372 ,74.5738 ,1.73965 ,-0.08455 ,-0.82961 
373 ,74.7656 ,1.74153 ,-0.10851 ,-1.06466 
374 ,74.9579 ,1.74346 ,-0.11877 ,-1.16540 
375 ,75.1662 ,1.74555 ,-0.14273 ,-1.40045 
376 ,75.3582 ,1.74745 ,-0.13588 ,-1.33329 
377 ,75.5504 ,1.74937 ,-0.14615 ,-1.43402 
378 ,75.7426 ,1.75131 ,-0.16326 ,-1.60191 
379 ,75.9344 ,1.75326 ,-0.15299 ,-1.50118 
380 ,76.1426 ,1.75532 ,-0.17695 ,-1.73623 
381 ,76.3505 ,1.75740 ,-0.19406 ,-1.90412 
382 ,76.5588 ,1.75950 ,-0.19064 ,-1.87054 
383 ,76.7668 ,1.76157 ,-0.22486 ,-2.20632 
384 ,76.9585 ,1.76342 ,-0.20775 ,-2.03843 
385 ,77.1508 ,1.76539 ,-0.24539 ,-2.40779 
386 ,77.3431 ,1.76730 ,-0.23170 ,-2.27348 
387 ,77.5671 ,1.76943 ,-0.25224 ,-2.47495 
388 ,77.7593 ,1.77148 ,-0.25566 ,-2.50853 
389 ,77.9674 ,1.77354 ,-0.27619 ,-2.71000 
390 ,78.1754 ,1.77561 ,-0.26593 ,-2.60926 
391 ,78.3835 ,1.77772 ,-0.27961 ,-2.74358 
392 ,78.5757 ,1.77959 ,-0.29330 ,-2.87789 
393 ,78.7836 ,1.78175 ,-0.31726 ,-3.11294 
394 ,78.9758 ,1.78367 ,-0.31726 ,-3.11294 
395 ,79.1673 ,1.78551 ,-0.33779 ,-3.31441 
396 ,79.3756 ,1.78752 ,-0.31384 ,-3.07936 
397 ,79.6001 ,1.78983 ,-0.34806 ,-3.41514 
398 ,79.8081 ,1.79195 ,-0.36175 ,-3.54946 
399 ,80.0002 ,1.79389 ,-0.36175 ,-3.54946 
400 ,80.2079 ,1.79591 ,-0.38570 ,-3.78450 
401 ,80.4164 ,1.79800 ,-0.38570 ,-3.78450 
402 ,80.6244 ,1.80014 ,-0.39255 ,-3.85166 
403 ,80.8325 ,1.80208 ,-0.40966 ,-4.01955 
404 ,81.0404 ,1.80426 ,-0.40966 ,-4.01955 
405 ,81.2486 ,1.80631 ,-0.44730 ,-4.38891 
406 ,81.4406 ,1.80827 ,-0.44388 ,-4.35534 
407 ,81.6488 ,1.81034 ,-0.46441 ,-4.55681 
408 ,81.8408 ,1.81222 ,-0.44730 ,-4.38891 
409 ,82.0329 ,1.81418 ,-0.46783 ,-4.59038 
410 ,82.2410 ,1.81628 ,-0.47126 ,-4.62396 
411 ,82.4327 ,1.81823 ,-0.49521 ,-4.85901 
412 ,82.6251 ,1.82011 ,-0.49521 ,-4.85901 
413 ,82.8333 ,1.82216 ,-0.51917 ,-5.09406 
414 ,83.0253 ,1.82409 ,-0.50206 ,-4.92617 
415 ,83.2174 ,1.82606 ,-0.52601 ,-5.16121 
416 ,83.4093 ,1.82798 ,-0.52943 ,-5.19479 
417 ,83.6176 ,1.82996 ,-0.54312 ,-5.32911 
418 ,83.8094 ,1.83196 ,-0.54312 ,-5.32911 
419 ,84.0177 ,1.83398 ,-0.56023 ,-5.49700 
420 ,84.2099 ,1.83592 ,-0.58077 ,-5.69847 
421 ,84.4339 ,1.83811 ,-0.57734 ,-5.66489 
422 ,84.6256 ,1.84009 ,-0.58077 ,-5.69847 
423 ,84.8181 ,1.84204 ,-0.60130 ,-5.89994 
424 ,85.0741 ,1.84446 ,-0.60472 ,-5.93352 
425 ,85.2662 ,1.84652 ,-0.61499 ,-6.03425 
426 ,85.4582 ,1.84843 ,-0.63552 ,-6.23572 
427 ,85.6502 ,1.85035 ,-0.63552 ,-6.23572 
428 ,85.8424 ,1.85225 ,-0.63552 ,-6.23572 
429 ,86.0506 ,1.85435 ,-0.65947 ,-6.47077 
430 ,86.2426 ,1.85624 ,-0.64579 ,-6.33646 
431 ,86.4506 ,1.85833 ,-0.68343 ,-6.70582 
432 ,86.6428 ,1.86028 ,-0.68343 ,-6.70582 
433 ,86.8509 ,1.86236 ,-0.69370 ,-6.80655 
434 ,87.0430 ,1.86427 ,-0.69370 ,-6.80655 
435 ,87.2347 ,1.86617 ,-0.71081 ,-6.97444 
436 ,87.4272 ,1.86809 ,-0.71765 ,-7.04160 
437 ,87.6352 ,1.87020 ,-0.73818 ,-7.24307 
438 ,87.8271 ,1.87214 ,-0.74503 ,-7.31023 
439 ,88.0353 ,1.87417 ,-0.75872 ,-7.44454 
440 ,88.2432 ,1.87625 ,-0.74503 ,-7.31023 
441 ,88.4354 ,1.87818 ,-0.77241 ,-7.57885 
442 ,88.6274 ,1.88012 ,-0.77241 ,-7.57885 
443 ,88.8355 ,1.88216 ,-0.79978 ,-7.84748 
444 ,89.0435 ,1.88423 ,-0.78610 ,-7.71317 
445 ,89.2517 ,1.88633 ,-0.80663 ,-7.91464 
446 ,89.4439 ,1.88829 ,-0.80321 ,-7.88106 
447 ,89.6362 ,1.89019 ,-0.82032 ,-8.04895 
448 ,89.8440 ,1.89216 ,-0.82716 ,-8.11611 
449 ,90.0358 ,1.89420 ,-0.85112 ,-8.35115 
450 ,90.2443 ,1.89625 ,-0.84085 ,-8.25042 
451 ,90.4524 ,1.89836 ,-0.85796 ,-8.41831 
452 ,90.6601 ,1.90043 ,-0.87507 ,-8.58620 
453 ,90.8525 ,1.90237 ,-0.86481 ,-8.48547 
454 ,91.0604 ,1.90446 ,-0.88534 ,-8.68694 
455 ,91.2687 ,1.90648 ,-0.88876 ,-8.72051 
456 ,91.4764 ,1.90858 ,-0.90929 ,-8.92198 
457 ,91.6689 ,1.91054 ,-0.90587 ,-8.88841 
458 ,91.8611 ,1.91240 ,-0.93325 ,-9.15703 
459 ,92.0527 ,1.91430 ,-0.92298 ,-9.05630 
460 ,92.2447 ,1.91626 ,-0.92983 ,-9.12345 
461 ,92.4373 ,1.91823 ,-0.95036 ,-9.32492 
462 ,92.6450 ,1.92030 ,-0.93667 ,-9.19061 
463 ,92.8374 ,1.92220 ,-0.96405 ,-9.45924 
