Data stamp = , 30-04-2022 15:02:34 646

Calibration Values: 
Slope = , 26.54 , g/V 
Offset Voltage at no contact = , -0.501760 , V 

No , Time , Stage Position ,   Mass , Force 
   ,  (s) ,      (mm)      ,   (g)  , (mN)  

1 ,0.0000 ,0.99948 ,5.43198 ,53.29861 
2 ,0.2024 ,0.99955 ,5.42514 ,53.23145 
3 ,0.6990 ,1.00140 ,5.42514 ,53.23145 
4 ,0.9071 ,1.00334 ,5.42514 ,53.23145 
5 ,1.1152 ,1.00525 ,5.43198 ,53.29861 
6 ,1.3232 ,1.00742 ,5.41829 ,53.16429 
7 ,1.5153 ,1.00928 ,5.40118 ,52.99640 
8 ,1.7234 ,1.01140 ,5.37381 ,52.72778 
9 ,1.9152 ,1.01339 ,5.36696 ,52.66062 
10 ,2.1235 ,1.01544 ,5.32932 ,52.29126 
11 ,2.3153 ,1.01739 ,5.34301 ,52.42557 
12 ,2.5077 ,1.01924 ,5.31221 ,52.12337 
13 ,2.7315 ,1.02147 ,5.29852 ,51.98905 
14 ,2.9237 ,1.02347 ,5.26430 ,51.65327 
15 ,3.1479 ,1.02562 ,5.26772 ,51.68685 
16 ,3.3403 ,1.02759 ,5.23350 ,51.35107 
17 ,3.5320 ,1.02954 ,5.22323 ,51.25033 
18 ,3.7402 ,1.03159 ,5.18216 ,50.84739 
19 ,3.9322 ,1.03358 ,5.18216 ,50.84739 
20 ,4.1564 ,1.03574 ,5.15479 ,50.57876 
21 ,4.3486 ,1.03769 ,5.15136 ,50.54519 
22 ,4.5405 ,1.03962 ,5.10003 ,50.04151 
23 ,4.7323 ,1.04154 ,5.10345 ,50.07509 
24 ,4.9244 ,1.04345 ,5.07265 ,49.77289 
25 ,5.1168 ,1.04536 ,5.07608 ,49.80646 
26 ,5.3089 ,1.04731 ,5.05212 ,49.57142 
27 ,5.5010 ,1.04919 ,5.01790 ,49.23563 
28 ,5.6930 ,1.05113 ,5.00421 ,49.10132 
29 ,5.8851 ,1.05307 ,4.97341 ,48.79911 
30 ,6.0932 ,1.05512 ,4.97341 ,48.79911 
31 ,6.3013 ,1.05728 ,4.92892 ,48.36260 
32 ,6.5094 ,1.05928 ,4.93919 ,48.46333 
33 ,6.7174 ,1.06136 ,4.91866 ,48.26186 
34 ,6.9095 ,1.06332 ,4.90839 ,48.16113 
35 ,7.1016 ,1.06520 ,4.85364 ,47.62387 
36 ,7.3096 ,1.06715 ,4.87417 ,47.82534 
37 ,7.5018 ,1.06920 ,4.81941 ,47.28809 
38 ,7.7094 ,1.07127 ,4.80915 ,47.18736 
39 ,7.9177 ,1.07343 ,4.78861 ,46.98589 
40 ,8.1257 ,1.07549 ,4.78177 ,46.91873 
41 ,8.3340 ,1.07751 ,4.76466 ,46.75084 
42 ,8.5422 ,1.07964 ,4.73386 ,46.44863 
43 ,8.7339 ,1.08155 ,4.73044 ,46.41506 
44 ,8.9260 ,1.08340 ,4.70990 ,46.21359 
45 ,9.1183 ,1.08535 ,4.69622 ,46.07927 
46 ,9.2944 ,1.08722 ,4.66884 ,45.81065 
47 ,9.4861 ,1.08903 ,4.66199 ,45.74349 
48 ,9.6786 ,1.09095 ,4.62435 ,45.37413 
49 ,9.8863 ,1.09305 ,4.61066 ,45.23981 
50 ,10.0788 ,1.09499 ,4.59697 ,45.10550 
51 ,10.2863 ,1.09704 ,4.57302 ,44.87045 
52 ,10.4790 ,1.09895 ,4.55249 ,44.66898 
53 ,10.7030 ,1.10118 ,4.53880 ,44.53467 
54 ,10.9110 ,1.10320 ,4.53880 ,44.53467 
55 ,11.1030 ,1.10525 ,4.49431 ,44.09815 
56 ,11.2952 ,1.10713 ,4.49089 ,44.06457 
57 ,11.4712 ,1.10900 ,4.47378 ,43.89668 
58 ,11.6630 ,1.11080 ,4.44298 ,43.59448 
59 ,11.8556 ,1.11270 ,4.44982 ,43.66163 
60 ,12.0636 ,1.11480 ,4.41218 ,43.29227 
61 ,12.2557 ,1.11671 ,4.39849 ,43.15796 
62 ,12.4638 ,1.11882 ,4.37795 ,42.95649 
63 ,12.6719 ,1.12088 ,4.36769 ,42.85576 
64 ,12.8799 ,1.12292 ,4.33347 ,42.51997 
65 ,13.0879 ,1.12506 ,4.32662 ,42.45282 
66 ,13.2800 ,1.12692 ,4.30609 ,42.25135 
67 ,13.4720 ,1.12889 ,4.30267 ,42.21777 
68 ,13.6641 ,1.13079 ,4.26502 ,41.84841 
69 ,13.8562 ,1.13273 ,4.24791 ,41.68051 
70 ,14.0480 ,1.13468 ,4.25476 ,41.74767 
71 ,14.2405 ,1.13657 ,4.21027 ,41.31115 
72 ,14.4487 ,1.13854 ,4.21369 ,41.34473 
73 ,14.6405 ,1.14061 ,4.17947 ,41.00895 
74 ,14.8489 ,1.14259 ,4.18631 ,41.07611 
75 ,15.0565 ,1.14474 ,4.14183 ,40.63959 
76 ,15.2649 ,1.14681 ,4.13156 ,40.53885 
77 ,15.4729 ,1.14890 ,4.12129 ,40.43812 
78 ,15.6650 ,1.15080 ,4.09734 ,40.20307 
79 ,15.8411 ,1.15269 ,4.07680 ,40.00160 
80 ,16.0332 ,1.15449 ,4.07338 ,39.96802 
81 ,16.2252 ,1.15641 ,4.05285 ,39.76655 
82 ,16.4172 ,1.15829 ,4.03574 ,39.59866 
83 ,16.6095 ,1.16023 ,4.02547 ,39.49793 
84 ,16.8170 ,1.16239 ,3.98783 ,39.12856 
85 ,16.9935 ,1.16424 ,3.98783 ,39.12856 
86 ,17.2017 ,1.16618 ,3.95018 ,38.75920 
87 ,17.3938 ,1.16811 ,3.95703 ,38.82636 
88 ,17.6018 ,1.17021 ,3.91254 ,38.38984 
89 ,17.7939 ,1.17209 ,3.92623 ,38.52415 
90 ,17.9857 ,1.17400 ,3.90912 ,38.35626 
91 ,18.1940 ,1.17607 ,3.88516 ,38.12122 
92 ,18.3860 ,1.17801 ,3.86463 ,37.91975 
93 ,18.5782 ,1.17991 ,3.84410 ,37.71828 
94 ,18.7860 ,1.18203 ,3.85094 ,37.78543 
95 ,18.9782 ,1.18393 ,3.80987 ,37.38249 
96 ,19.2025 ,1.18609 ,3.78934 ,37.18102 
97 ,19.4100 ,1.18826 ,3.77908 ,37.08029 
98 ,19.6026 ,1.19017 ,3.74485 ,36.74450 
99 ,19.7944 ,1.19212 ,3.75170 ,36.81166 
100 ,20.0027 ,1.19416 ,3.72432 ,36.54303 
101 ,20.2109 ,1.19626 ,3.70037 ,36.30799 
102 ,20.4188 ,1.19834 ,3.67299 ,36.03936 
103 ,20.6108 ,1.20025 ,3.67983 ,36.10652 
104 ,20.8189 ,1.20232 ,3.64219 ,35.73716 
105 ,21.0112 ,1.20429 ,3.65246 ,35.83789 
106 ,21.2028 ,1.20620 ,3.60797 ,35.40137 
107 ,21.4114 ,1.20815 ,3.60454 ,35.36779 
108 ,21.6193 ,1.21033 ,3.57032 ,35.03201 
109 ,21.8116 ,1.21229 ,3.57717 ,35.09917 
110 ,22.0197 ,1.21435 ,3.53952 ,34.72981 
111 ,22.2117 ,1.21626 ,3.53952 ,34.72981 
112 ,22.4038 ,1.21814 ,3.51557 ,34.49476 
113 ,22.5958 ,1.22008 ,3.49161 ,34.25971 
114 ,22.7874 ,1.22199 ,3.48819 ,34.22613 
115 ,22.9961 ,1.22411 ,3.46081 ,33.95751 
116 ,23.1882 ,1.22601 ,3.46766 ,34.02466 
117 ,23.3800 ,1.22792 ,3.40948 ,33.45383 
118 ,23.5884 ,1.22999 ,3.42659 ,33.62172 
119 ,23.8125 ,1.23223 ,3.40948 ,33.45383 
120 ,24.0044 ,1.23417 ,3.37868 ,33.15163 
121 ,24.2126 ,1.23624 ,3.36842 ,33.05089 
122 ,24.4045 ,1.23821 ,3.34788 ,32.84942 
123 ,24.5806 ,1.24004 ,3.32393 ,32.61437 
124 ,24.7728 ,1.24184 ,3.32051 ,32.58080 
125 ,24.9649 ,1.24379 ,3.29655 ,32.34575 
126 ,25.1728 ,1.24586 ,3.28286 ,32.21143 
127 ,25.3807 ,1.24794 ,3.25206 ,31.90923 
128 ,25.5727 ,1.24984 ,3.26233 ,32.00996 
129 ,25.7648 ,1.25179 ,3.22468 ,31.64060 
130 ,25.9572 ,1.25370 ,3.21442 ,31.53987 
131 ,26.1653 ,1.25576 ,3.19046 ,31.30482 
132 ,26.3734 ,1.25783 ,3.18362 ,31.23766 
133 ,26.5655 ,1.25977 ,3.16651 ,31.06977 
134 ,26.7734 ,1.26186 ,3.13913 ,30.80115 
135 ,26.9815 ,1.26398 ,3.12202 ,30.63325 
136 ,27.1892 ,1.26603 ,3.11860 ,30.59968 
137 ,27.3812 ,1.26794 ,3.08780 ,30.29747 
138 ,27.5736 ,1.26987 ,3.08438 ,30.26389 
139 ,27.7815 ,1.27202 ,3.05358 ,29.96169 
140 ,27.9740 ,1.27390 ,3.03989 ,29.82737 
141 ,28.1660 ,1.27581 ,3.02620 ,29.69306 
142 ,28.3583 ,1.27774 ,3.00567 ,29.49159 
143 ,28.5502 ,1.27960 ,3.00567 ,29.49159 
144 ,28.7425 ,1.28156 ,2.97144 ,29.15581 
145 ,28.9342 ,1.28347 ,2.96460 ,29.08865 
146 ,29.1263 ,1.28535 ,2.96460 ,29.08865 
147 ,29.3184 ,1.28731 ,2.92011 ,28.65213 
148 ,29.5265 ,1.28937 ,2.93038 ,28.75287 
149 ,29.7187 ,1.29134 ,2.89273 ,28.38351 
150 ,29.9105 ,1.29323 ,2.88931 ,28.34993 
151 ,30.1027 ,1.29514 ,2.86536 ,28.11488 
152 ,30.3111 ,1.29724 ,2.86193 ,28.08130 
153 ,30.5033 ,1.29915 ,2.83456 ,27.81268 
154 ,30.7112 ,1.30126 ,2.82429 ,27.71194 
155 ,30.9032 ,1.30317 ,2.78665 ,27.34258 
156 ,31.0950 ,1.30501 ,2.78665 ,27.34258 
157 ,31.2872 ,1.30692 ,2.77638 ,27.24185 
158 ,31.4795 ,1.30884 ,2.75585 ,27.04038 
159 ,31.6713 ,1.31079 ,2.75585 ,27.04038 
160 ,31.8798 ,1.31278 ,2.72163 ,26.70459 
161 ,32.0713 ,1.31495 ,2.72163 ,26.70459 
162 ,32.2639 ,1.31676 ,2.69767 ,26.46954 
163 ,32.4880 ,1.31890 ,2.69767 ,26.46954 
164 ,32.6959 ,1.32103 ,2.66345 ,26.13376 
165 ,32.8882 ,1.32297 ,2.65318 ,26.03303 
166 ,33.0802 ,1.32495 ,2.62238 ,25.73082 
167 ,33.2724 ,1.32678 ,2.62581 ,25.76440 
168 ,33.4802 ,1.32878 ,2.60869 ,25.59651 
169 ,33.6726 ,1.33081 ,2.59501 ,25.46220 
170 ,33.8646 ,1.33277 ,2.58132 ,25.32788 
171 ,34.0567 ,1.33470 ,2.55736 ,25.09283 
172 ,34.2643 ,1.33672 ,2.53683 ,24.89136 
173 ,34.4567 ,1.33866 ,2.52656 ,24.79063 
174 ,34.6649 ,1.34073 ,2.50945 ,24.62274 
175 ,34.8569 ,1.34266 ,2.48550 ,24.38769 
176 ,35.0650 ,1.34470 ,2.48550 ,24.38769 
177 ,35.2572 ,1.34669 ,2.46154 ,24.15264 
178 ,35.4650 ,1.34869 ,2.44101 ,23.95117 
179 ,35.6573 ,1.35063 ,2.43759 ,23.91759 
180 ,35.8496 ,1.35260 ,2.42390 ,23.78328 
181 ,36.0416 ,1.35451 ,2.38968 ,23.44750 
182 ,36.2335 ,1.35640 ,2.39310 ,23.48108 
183 ,36.4253 ,1.35835 ,2.37256 ,23.27961 
184 ,36.6016 ,1.36025 ,2.35203 ,23.07814 
185 ,36.7938 ,1.36206 ,2.34519 ,23.01098 
186 ,36.9857 ,1.36395 ,2.33834 ,22.94382 
187 ,37.1780 ,1.36585 ,2.30754 ,22.64162 
188 ,37.3700 ,1.36777 ,2.31097 ,22.67520 
189 ,37.5777 ,1.36983 ,2.28359 ,22.40657 
190 ,37.7702 ,1.37176 ,2.26648 ,22.23868 
191 ,37.9942 ,1.37408 ,2.26648 ,22.23868 
192 ,38.2020 ,1.37606 ,2.23226 ,21.90290 
193 ,38.4103 ,1.37805 ,2.23910 ,21.97005 
194 ,38.6024 ,1.38009 ,2.20488 ,21.63427 
195 ,38.7946 ,1.38201 ,2.19803 ,21.56711 
196 ,39.0027 ,1.38411 ,2.17750 ,21.36564 
197 ,39.2107 ,1.38618 ,2.17408 ,21.33206 
198 ,39.4027 ,1.38806 ,2.13986 ,20.99628 
199 ,39.5949 ,1.39000 ,2.13301 ,20.92912 
200 ,39.7865 ,1.39191 ,2.13301 ,20.92912 
201 ,39.9631 ,1.39377 ,2.11932 ,20.79481 
202 ,40.1553 ,1.39560 ,2.09879 ,20.59334 
203 ,40.3313 ,1.39753 ,2.08852 ,20.49261 
204 ,40.5393 ,1.39949 ,2.04746 ,20.08967 
205 ,40.7314 ,1.40134 ,2.05773 ,20.19040 
206 ,41.1955 ,1.40468 ,2.03377 ,19.95535 
207 ,41.4036 ,1.40809 ,1.99613 ,19.58599 
208 ,41.5958 ,1.40998 ,1.98928 ,19.51884 
209 ,41.8038 ,1.41212 ,1.97217 ,19.35094 
210 ,41.9955 ,1.41398 ,1.96875 ,19.31737 
211 ,42.1879 ,1.41593 ,1.94137 ,19.04874 
212 ,42.3800 ,1.41784 ,1.91742 ,18.81369 
213 ,42.5881 ,1.41983 ,1.92768 ,18.91443 
214 ,42.7802 ,1.42192 ,1.89004 ,18.54507 
215 ,42.9723 ,1.42381 ,1.89346 ,18.57864 
216 ,43.1804 ,1.42587 ,1.85582 ,18.20928 
217 ,43.3883 ,1.42789 ,1.86951 ,18.34360 
218 ,43.5803 ,1.42986 ,1.84555 ,18.10855 
219 ,43.7886 ,1.43193 ,1.83871 ,18.04139 
220 ,44.0128 ,1.43421 ,1.82502 ,17.90708 
221 ,44.2209 ,1.43625 ,1.79080 ,17.57129 
222 ,44.4289 ,1.43837 ,1.78737 ,17.53772 
223 ,44.6210 ,1.44031 ,1.76000 ,17.26909 
224 ,44.8131 ,1.44218 ,1.76342 ,17.30267 
225 ,45.0051 ,1.44410 ,1.73604 ,17.03404 
226 ,45.1968 ,1.44598 ,1.70866 ,16.76542 
227 ,45.3893 ,1.44794 ,1.72578 ,16.93331 
228 ,45.5972 ,1.45002 ,1.68813 ,16.56395 
229 ,45.8055 ,1.45212 ,1.68813 ,16.56395 
230 ,45.9976 ,1.45398 ,1.67102 ,16.39605 
231 ,46.2051 ,1.45607 ,1.66075 ,16.29532 
232 ,46.3972 ,1.45807 ,1.64364 ,16.12743 
233 ,46.6219 ,1.46017 ,1.62653 ,15.95954 
234 ,46.8137 ,1.46219 ,1.62311 ,15.92596 
235 ,47.0059 ,1.46407 ,1.61284 ,15.82522 
236 ,47.1980 ,1.46600 ,1.59231 ,15.62375 
237 ,47.4218 ,1.46825 ,1.56836 ,15.38871 
238 ,47.6138 ,1.47021 ,1.56493 ,15.35513 
239 ,47.8063 ,1.47207 ,1.54440 ,15.15366 
240 ,47.9984 ,1.47400 ,1.52729 ,14.98577 
241 ,48.2064 ,1.47611 ,1.51360 ,14.85145 
242 ,48.3985 ,1.47799 ,1.51702 ,14.88503 
243 ,48.6065 ,1.48008 ,1.48280 ,14.54925 
244 ,48.7986 ,1.48196 ,1.46911 ,14.41493 
245 ,48.9906 ,1.48397 ,1.47938 ,14.51567 
246 ,49.1987 ,1.48602 ,1.43489 ,14.07915 
247 ,49.3907 ,1.48790 ,1.44858 ,14.21346 
248 ,49.5827 ,1.48984 ,1.41778 ,13.91126 
249 ,49.7749 ,1.49178 ,1.40067 ,13.74337 
250 ,49.9831 ,1.49388 ,1.39040 ,13.64263 
251 ,50.1752 ,1.49576 ,1.39725 ,13.70979 
252 ,50.3673 ,1.49771 ,1.35618 ,13.30685 
253 ,50.5757 ,1.49978 ,1.36303 ,13.37401 
254 ,50.7512 ,1.50165 ,1.34934 ,13.23969 
255 ,50.9432 ,1.50343 ,1.32538 ,13.00465 
256 ,51.1356 ,1.50541 ,1.32880 ,13.03822 
257 ,51.3273 ,1.50730 ,1.31169 ,12.87033 
258 ,51.5198 ,1.50921 ,1.28774 ,12.63528 
259 ,51.7117 ,1.51116 ,1.30827 ,12.83675 
260 ,51.9357 ,1.51332 ,1.25352 ,12.29950 
261 ,52.1440 ,1.51545 ,1.24325 ,12.19877 
262 ,52.3524 ,1.51751 ,1.24325 ,12.19877 
263 ,52.5439 ,1.51946 ,1.23298 ,12.09803 
264 ,52.7362 ,1.52134 ,1.21929 ,11.96372 
265 ,52.9443 ,1.52344 ,1.18165 ,11.59436 
266 ,53.1526 ,1.52551 ,1.18507 ,11.62794 
267 ,53.3445 ,1.52747 ,1.15770 ,11.35931 
268 ,53.5364 ,1.52936 ,1.16112 ,11.39289 
269 ,53.7284 ,1.53129 ,1.16112 ,11.39289 
270 ,53.9205 ,1.53320 ,1.12005 ,10.98995 
271 ,54.1287 ,1.53523 ,1.12690 ,11.05710 
272 ,54.3369 ,1.53737 ,1.10636 ,10.85563 
273 ,54.5451 ,1.53940 ,1.09952 ,10.78848 
274 ,54.7370 ,1.54141 ,1.07214 ,10.51985 
275 ,54.9452 ,1.54344 ,1.04819 ,10.28480 
276 ,55.1371 ,1.54540 ,1.05161 ,10.31838 
277 ,55.3454 ,1.54744 ,1.03108 ,10.11691 
278 ,55.5533 ,1.54941 ,1.02423 ,10.04976 
279 ,55.7456 ,1.55145 ,1.00028 ,9.81471 
280 ,55.9375 ,1.55338 ,0.99685 ,9.78113 
281 ,56.1293 ,1.55531 ,1.00028 ,9.81471 
282 ,56.3375 ,1.55730 ,0.95921 ,9.41177 
283 ,56.5458 ,1.55947 ,0.95237 ,9.34461 
284 ,56.7378 ,1.56141 ,0.93525 ,9.17672 
285 ,56.9459 ,1.56346 ,0.93183 ,9.14314 
286 ,57.1380 ,1.56533 ,0.91472 ,8.97525 
287 ,57.3300 ,1.56727 ,0.91814 ,9.00883 
288 ,57.5219 ,1.56922 ,0.88734 ,8.70662 
289 ,57.7144 ,1.57111 ,0.88734 ,8.70662 
290 ,57.9383 ,1.57333 ,0.87023 ,8.53873 
291 ,58.1300 ,1.57540 ,0.84970 ,8.33726 
292 ,58.3221 ,1.57719 ,0.83601 ,8.20295 
293 ,58.5146 ,1.57912 ,0.83943 ,8.23653 
294 ,58.7066 ,1.58120 ,0.82232 ,8.06864 
295 ,58.8823 ,1.58295 ,0.80863 ,7.93432 
296 ,59.0748 ,1.58470 ,0.80521 ,7.90074 
297 ,59.2828 ,1.58681 ,0.78126 ,7.66570 
298 ,59.4745 ,1.58869 ,0.78810 ,7.73285 
299 ,59.6669 ,1.59065 ,0.75730 ,7.43065 
300 ,59.8590 ,1.59260 ,0.74019 ,7.26276 
301 ,60.0509 ,1.59446 ,0.74704 ,7.32991 
302 ,60.2592 ,1.59649 ,0.72992 ,7.16202 
303 ,60.4517 ,1.59850 ,0.72308 ,7.09486 
304 ,60.6594 ,1.60054 ,0.70255 ,6.89340 
305 ,60.8676 ,1.60267 ,0.68544 ,6.72550 
306 ,61.0436 ,1.60454 ,0.67175 ,6.59119 
307 ,61.2356 ,1.60631 ,0.68201 ,6.69193 
308 ,61.4278 ,1.60824 ,0.66148 ,6.49046 
309 ,61.6354 ,1.61029 ,0.65806 ,6.45688 
310 ,61.8279 ,1.61229 ,0.63068 ,6.18825 
311 ,62.0520 ,1.61446 ,0.63068 ,6.18825 
312 ,62.2442 ,1.61642 ,0.59646 ,5.85247 
313 ,62.4362 ,1.61834 ,0.60330 ,5.91962 
314 ,62.6284 ,1.62029 ,0.59304 ,5.81889 
315 ,62.8364 ,1.62235 ,0.56908 ,5.58384 
316 ,63.0604 ,1.62448 ,0.55882 ,5.48311 
317 ,63.2525 ,1.62649 ,0.56224 ,5.51668 
318 ,63.4448 ,1.62840 ,0.52802 ,5.18090 
319 ,63.6528 ,1.63049 ,0.53486 ,5.24806 
320 ,63.8605 ,1.63256 ,0.50748 ,4.97943 
321 ,64.0525 ,1.63452 ,0.51433 ,5.04659 
322 ,64.2446 ,1.63641 ,0.47668 ,4.67723 
323 ,64.4533 ,1.63850 ,0.48011 ,4.71081 
324 ,64.6611 ,1.64057 ,0.44931 ,4.40860 
325 ,64.8531 ,1.64249 ,0.46300 ,4.54291 
326 ,65.0932 ,1.64488 ,0.44588 ,4.37502 
327 ,65.2854 ,1.64685 ,0.41166 ,4.03924 
328 ,65.4773 ,1.64879 ,0.40824 ,4.00566 
329 ,65.6696 ,1.65065 ,0.40140 ,3.93850 
330 ,65.8617 ,1.65259 ,0.38086 ,3.73703 
331 ,66.0535 ,1.65449 ,0.38429 ,3.77061 
332 ,66.2460 ,1.65640 ,0.36375 ,3.56914 
333 ,66.4540 ,1.65852 ,0.37060 ,3.63630 
334 ,66.6780 ,1.66062 ,0.34322 ,3.36767 
335 ,66.8860 ,1.66284 ,0.32269 ,3.16620 
336 ,67.0778 ,1.66475 ,0.33980 ,3.33410 
337 ,67.2863 ,1.66682 ,0.30900 ,3.03189 
338 ,67.4943 ,1.66892 ,0.30215 ,2.96473 
339 ,67.6861 ,1.67084 ,0.28504 ,2.79684 
340 ,67.8942 ,1.67288 ,0.28847 ,2.83042 
341 ,68.1026 ,1.67485 ,0.25424 ,2.49464 
342 ,68.2945 ,1.67702 ,0.26451 ,2.59537 
343 ,68.4867 ,1.67878 ,0.24055 ,2.36032 
344 ,68.6785 ,1.68072 ,0.24740 ,2.42748 
345 ,68.8705 ,1.68266 ,0.23371 ,2.29317 
346 ,69.0626 ,1.68458 ,0.19949 ,1.95738 
347 ,69.2551 ,1.68649 ,0.20976 ,2.05812 
348 ,69.4631 ,1.68855 ,0.18922 ,1.85665 
349 ,69.6712 ,1.69069 ,0.19264 ,1.89023 
350 ,69.8632 ,1.69259 ,0.15500 ,1.52087 
351 ,70.0555 ,1.69447 ,0.17896 ,1.75592 
352 ,70.2635 ,1.69657 ,0.15842 ,1.55445 
353 ,70.4555 ,1.69848 ,0.14816 ,1.45371 
354 ,70.6477 ,1.70038 ,0.12762 ,1.25224 
355 ,70.8397 ,1.70238 ,0.12420 ,1.21866 
356 ,71.0317 ,1.70425 ,0.11736 ,1.15151 
357 ,71.2238 ,1.70619 ,0.10025 ,0.98361 
358 ,71.4157 ,1.70812 ,0.10025 ,0.98361 
359 ,71.6078 ,1.71003 ,0.06260 ,0.61425 
360 ,71.8161 ,1.71210 ,0.07629 ,0.74857 
361 ,72.0081 ,1.71401 ,0.05234 ,0.51352 
362 ,72.2165 ,1.71610 ,0.05576 ,0.54710 
363 ,72.4244 ,1.71821 ,0.02838 ,0.27847 
364 ,72.6160 ,1.72008 ,0.03522 ,0.34563 
365 ,72.8084 ,1.72200 ,0.01811 ,0.17773 
366 ,73.0165 ,1.72411 ,0.01469 ,0.14416 
367 ,73.2247 ,1.72620 ,-0.01953 ,-0.19163 
368 ,73.4166 ,1.72815 ,0.00443 ,0.04342 
369 ,73.6249 ,1.73018 ,-0.02980 ,-0.29236 
370 ,73.8168 ,1.73212 ,-0.04348 ,-0.42667 
371 ,74.0568 ,1.73449 ,-0.03664 ,-0.35952 
372 ,74.2491 ,1.73644 ,-0.06060 ,-0.59457 
373 ,74.4407 ,1.73835 ,-0.06744 ,-0.66172 
374 ,74.6333 ,1.74025 ,-0.06744 ,-0.66172 
375 ,74.8409 ,1.74232 ,-0.09140 ,-0.89677 
376 ,75.0334 ,1.74424 ,-0.09140 ,-0.89677 
377 ,75.2255 ,1.74621 ,-0.11877 ,-1.16540 
378 ,75.4497 ,1.74831 ,-0.11193 ,-1.09824 
379 ,75.6415 ,1.75035 ,-0.12562 ,-1.23255 
380 ,75.8499 ,1.75248 ,-0.14957 ,-1.46760 
381 ,76.0577 ,1.75443 ,-0.14273 ,-1.40045 
382 ,76.2498 ,1.75643 ,-0.15642 ,-1.53476 
383 ,76.4419 ,1.75834 ,-0.16668 ,-1.63549 
384 ,76.6502 ,1.76030 ,-0.17353 ,-1.70265 
385 ,76.8578 ,1.76252 ,-0.18722 ,-1.83696 
386 ,77.0661 ,1.76460 ,-0.20775 ,-2.03843 
387 ,77.2582 ,1.76650 ,-0.19748 ,-1.93770 
388 ,77.4506 ,1.76845 ,-0.20433 ,-2.00485 
389 ,77.6584 ,1.77054 ,-0.23170 ,-2.27348 
390 ,77.8826 ,1.77272 ,-0.23855 ,-2.34064 
391 ,78.0903 ,1.77484 ,-0.25566 ,-2.50853 
392 ,78.2987 ,1.77691 ,-0.25908 ,-2.54211 
393 ,78.5064 ,1.77895 ,-0.28304 ,-2.77716 
394 ,78.6988 ,1.78087 ,-0.28646 ,-2.81073 
395 ,78.9069 ,1.78294 ,-0.29330 ,-2.87789 
396 ,79.0989 ,1.78485 ,-0.29673 ,-2.91147 
397 ,79.3071 ,1.78692 ,-0.32410 ,-3.18010 
398 ,79.4988 ,1.78892 ,-0.31726 ,-3.11294 
399 ,79.7073 ,1.79087 ,-0.32410 ,-3.18010 
400 ,79.9314 ,1.79311 ,-0.34121 ,-3.34799 
401 ,80.1236 ,1.79513 ,-0.35832 ,-3.51588 
402 ,80.3313 ,1.79720 ,-0.37544 ,-3.68377 
403 ,80.5236 ,1.79921 ,-0.38912 ,-3.81808 
404 ,80.7314 ,1.80122 ,-0.38228 ,-3.75093 
405 ,80.9238 ,1.80311 ,-0.38912 ,-3.81808 
406 ,81.1158 ,1.80507 ,-0.38228 ,-3.75093 
407 ,81.3080 ,1.80699 ,-0.41308 ,-4.05313 
408 ,81.5156 ,1.80906 ,-0.40623 ,-3.98597 
409 ,81.7241 ,1.81113 ,-0.42335 ,-4.15387 
410 ,81.9160 ,1.81308 ,-0.42677 ,-4.18744 
411 ,82.1079 ,1.81504 ,-0.44730 ,-4.38891 
412 ,82.3000 ,1.81689 ,-0.46099 ,-4.52323 
413 ,82.4921 ,1.81883 ,-0.46441 ,-4.55681 
414 ,82.6842 ,1.82074 ,-0.48494 ,-4.75828 
415 ,82.8602 ,1.82264 ,-0.47126 ,-4.62396 
416 ,83.0523 ,1.82439 ,-0.48494 ,-4.75828 
417 ,83.2444 ,1.82633 ,-0.51232 ,-5.02690 
418 ,83.4364 ,1.82823 ,-0.51232 ,-5.02690 
419 ,83.6285 ,1.83018 ,-0.52601 ,-5.16121 
420 ,83.8206 ,1.83210 ,-0.53628 ,-5.26195 
421 ,83.9967 ,1.83400 ,-0.52943 ,-5.19479 
422 ,84.1887 ,1.83578 ,-0.54312 ,-5.32911 
423 ,84.3809 ,1.83772 ,-0.56708 ,-5.56415 
424 ,84.5729 ,1.83960 ,-0.54312 ,-5.32911 
425 ,84.7649 ,1.84153 ,-0.57734 ,-5.66489 
426 ,84.9571 ,1.84341 ,-0.59103 ,-5.79920 
427 ,85.1492 ,1.84535 ,-0.59103 ,-5.79920 
428 ,85.3732 ,1.84751 ,-0.58077 ,-5.69847 
429 ,85.5651 ,1.84954 ,-0.62183 ,-6.10141 
430 ,85.7413 ,1.85140 ,-0.60130 ,-5.89994 
431 ,85.9173 ,1.85318 ,-0.61499 ,-6.03425 
432 ,86.1095 ,1.85496 ,-0.63210 ,-6.20214 
433 ,86.3016 ,1.85690 ,-0.64579 ,-6.33646 
434 ,86.4937 ,1.85879 ,-0.64579 ,-6.33646 
435 ,86.6857 ,1.86073 ,-0.67316 ,-6.60508 
436 ,86.8780 ,1.86268 ,-0.67316 ,-6.60508 
437 ,87.1023 ,1.86475 ,-0.68685 ,-6.73940 
438 ,87.3104 ,1.86698 ,-0.68685 ,-6.73940 
439 ,87.5025 ,1.86894 ,-0.69027 ,-6.77297 
440 ,87.7101 ,1.87101 ,-0.70396 ,-6.90729 
441 ,87.9021 ,1.87292 ,-0.71081 ,-6.97444 
442 ,88.1106 ,1.87491 ,-0.72792 ,-7.14233 
443 ,88.3667 ,1.87757 ,-0.73476 ,-7.20949 
444 ,88.5590 ,1.87950 ,-0.74161 ,-7.27665 
445 ,88.7349 ,1.88135 ,-0.75872 ,-7.44454 
446 ,88.9267 ,1.88315 ,-0.78267 ,-7.67959 
447 ,89.1192 ,1.88507 ,-0.76898 ,-7.54527 
448 ,89.3273 ,1.88713 ,-0.79294 ,-7.78032 
449 ,89.5191 ,1.88905 ,-0.78267 ,-7.67959 
450 ,89.7116 ,1.89097 ,-0.79978 ,-7.84748 
451 ,89.9034 ,1.89297 ,-0.81347 ,-7.98179 
452 ,90.0952 ,1.89481 ,-0.79636 ,-7.81390 
453 ,90.2874 ,1.89676 ,-0.84085 ,-8.25042 
454 ,90.4958 ,1.89883 ,-0.83058 ,-8.14968 
455 ,90.6875 ,1.90087 ,-0.85796 ,-8.41831 
456 ,90.8800 ,1.90265 ,-0.84769 ,-8.31758 
457 ,91.0878 ,1.90472 ,-0.86823 ,-8.51904 
458 ,91.2801 ,1.90664 ,-0.85112 ,-8.35115 
459 ,91.4882 ,1.90873 ,-0.86823 ,-8.51904 
460 ,91.6804 ,1.91068 ,-0.87165 ,-8.55262 
461 ,91.8722 ,1.91255 ,-0.88876 ,-8.72051 
462 ,92.0965 ,1.91481 ,-0.89218 ,-8.75409 
463 ,92.3041 ,1.91690 ,-0.91614 ,-8.98914 
