Data stamp = , 30-04-2022 17:35:34 924

Calibration Values: 
Slope = , 26.54 , g/V 
Offset Voltage at no contact = , -0.501760 , V 

No , Time , Stage Position ,   Mass , Force 
   ,  (s) ,      (mm)      ,   (g)  , (mN)  

1 ,0.0000 ,0.99945 ,5.42172 ,53.19787 
2 ,0.2122 ,0.99950 ,5.43883 ,53.36576 
3 ,0.8204 ,1.00192 ,5.42856 ,53.26503 
4 ,1.0288 ,1.00437 ,5.42172 ,53.19787 
5 ,1.2369 ,1.00649 ,5.43883 ,53.36576 
6 ,1.4450 ,1.00857 ,5.41829 ,53.16429 
7 ,1.6370 ,1.01052 ,5.39092 ,52.89567 
8 ,1.8292 ,1.01248 ,5.36696 ,52.66062 
9 ,2.0212 ,1.01442 ,5.36354 ,52.62704 
10 ,2.2132 ,1.01632 ,5.33616 ,52.35841 
11 ,2.4054 ,1.01822 ,5.31905 ,52.19052 
12 ,2.5972 ,1.02013 ,5.31563 ,52.15694 
13 ,2.8216 ,1.02232 ,5.29852 ,51.98905 
14 ,3.0293 ,1.02443 ,5.25403 ,51.55254 
15 ,3.2218 ,1.02640 ,5.26087 ,51.61969 
16 ,3.4137 ,1.02831 ,5.22665 ,51.28391 
17 ,3.6059 ,1.03020 ,5.21639 ,51.18317 
18 ,3.7981 ,1.03211 ,5.18901 ,50.91455 
19 ,3.9900 ,1.03409 ,5.16163 ,50.64592 
20 ,4.1818 ,1.03593 ,5.15821 ,50.61234 
21 ,4.3742 ,1.03803 ,5.12399 ,50.27656 
22 ,4.5662 ,1.03982 ,5.11714 ,50.20940 
23 ,4.7744 ,1.04190 ,5.08977 ,49.94078 
24 ,4.9665 ,1.04383 ,5.07265 ,49.77289 
25 ,5.1583 ,1.04572 ,5.06581 ,49.70573 
26 ,5.3666 ,1.04784 ,5.02817 ,49.33637 
27 ,5.5747 ,1.04989 ,5.01448 ,49.20205 
28 ,5.7667 ,1.05183 ,5.00421 ,49.10132 
29 ,5.9749 ,1.05391 ,4.97341 ,48.79911 
30 ,6.1666 ,1.05580 ,4.94603 ,48.53049 
31 ,6.3586 ,1.05775 ,4.95630 ,48.63122 
32 ,6.5509 ,1.05967 ,4.90839 ,48.16113 
33 ,6.7433 ,1.06160 ,4.91523 ,48.22828 
34 ,6.9352 ,1.06349 ,4.89128 ,47.99324 
35 ,7.1434 ,1.06560 ,4.86732 ,47.75819 
36 ,7.3516 ,1.06756 ,4.85021 ,47.59030 
37 ,7.5595 ,1.06976 ,4.83652 ,47.45598 
38 ,7.7675 ,1.07181 ,4.79204 ,47.01946 
39 ,7.9595 ,1.07371 ,4.79888 ,47.08662 
40 ,8.1517 ,1.07569 ,4.76124 ,46.71726 
41 ,8.3440 ,1.07756 ,4.77835 ,46.88515 
42 ,8.5354 ,1.07947 ,4.73728 ,46.48221 
43 ,9.0161 ,1.08288 ,4.70648 ,46.18001 
44 ,9.2078 ,1.08624 ,4.66884 ,45.81065 
45 ,9.4002 ,1.08811 ,4.66884 ,45.81065 
46 ,9.5918 ,1.09009 ,4.63804 ,45.50844 
47 ,9.7844 ,1.09200 ,4.62435 ,45.37413 
48 ,10.0084 ,1.09410 ,4.59697 ,45.10550 
49 ,10.2002 ,1.09608 ,4.58671 ,45.00477 
50 ,10.3926 ,1.09806 ,4.55591 ,44.70256 
51 ,10.5847 ,1.10000 ,4.55933 ,44.73614 
52 ,10.7767 ,1.10187 ,4.53195 ,44.46751 
53 ,10.9688 ,1.10376 ,4.50457 ,44.19889 
54 ,11.1610 ,1.10573 ,4.51484 ,44.29962 
55 ,11.3690 ,1.10780 ,4.46009 ,43.76237 
56 ,11.5766 ,1.10987 ,4.46009 ,43.76237 
57 ,11.7849 ,1.11184 ,4.44982 ,43.66163 
58 ,12.0093 ,1.11410 ,4.42244 ,43.39301 
59 ,12.2169 ,1.11630 ,4.39849 ,43.15796 
60 ,12.4094 ,1.11816 ,4.38822 ,43.05723 
61 ,12.6016 ,1.12016 ,4.38138 ,42.99007 
62 ,12.7936 ,1.12208 ,4.33347 ,42.51997 
63 ,12.9856 ,1.12397 ,4.33004 ,42.48639 
64 ,13.1776 ,1.12585 ,4.30951 ,42.28492 
65 ,13.3698 ,1.12787 ,4.28898 ,42.08345 
66 ,13.5620 ,1.12978 ,4.28556 ,42.04988 
67 ,13.7541 ,1.13168 ,4.26160 ,41.81483 
68 ,13.9465 ,1.13360 ,4.26160 ,41.81483 
69 ,14.1381 ,1.13551 ,4.23080 ,41.51262 
70 ,14.3466 ,1.13755 ,4.21369 ,41.34473 
71 ,14.5384 ,1.13946 ,4.20342 ,41.24400 
72 ,14.7466 ,1.14157 ,4.17262 ,40.94179 
73 ,14.9544 ,1.14354 ,4.16578 ,40.87464 
74 ,15.1625 ,1.14571 ,4.15551 ,40.77390 
75 ,15.3867 ,1.14781 ,4.11787 ,40.40454 
76 ,15.5947 ,1.15006 ,4.10076 ,40.23665 
77 ,15.7869 ,1.15201 ,4.08023 ,40.03518 
78 ,15.9789 ,1.15393 ,4.07338 ,39.96802 
79 ,16.1706 ,1.15584 ,4.03574 ,39.59866 
80 ,16.3790 ,1.15782 ,4.04258 ,39.66582 
81 ,16.5871 ,1.15998 ,4.01520 ,39.39719 
82 ,16.7791 ,1.16189 ,3.99809 ,39.22930 
83 ,16.9714 ,1.16377 ,3.97756 ,39.02783 
84 ,17.1793 ,1.16594 ,3.96729 ,38.92709 
85 ,17.3714 ,1.16778 ,3.93307 ,38.59131 
86 ,17.5635 ,1.16972 ,3.92965 ,38.55773 
87 ,17.7556 ,1.17166 ,3.89885 ,38.25553 
88 ,17.9475 ,1.17359 ,3.90227 ,38.28911 
89 ,18.1397 ,1.17545 ,3.87490 ,38.02048 
90 ,18.3475 ,1.17759 ,3.85436 ,37.81901 
91 ,18.5560 ,1.17956 ,3.85436 ,37.81901 
92 ,18.7640 ,1.18176 ,3.83041 ,37.58396 
93 ,18.9722 ,1.18371 ,3.79276 ,37.21460 
94 ,19.1800 ,1.18590 ,3.80645 ,37.34891 
95 ,19.3723 ,1.18781 ,3.77223 ,37.01313 
96 ,19.5801 ,1.18988 ,3.76539 ,36.94597 
97 ,19.7724 ,1.19184 ,3.73117 ,36.61019 
98 ,19.9642 ,1.19374 ,3.73117 ,36.61019 
99 ,20.1565 ,1.19562 ,3.70721 ,36.37514 
100 ,20.3486 ,1.19763 ,3.67983 ,36.10652 
101 ,20.5563 ,1.19963 ,3.65588 ,35.87147 
102 ,20.7486 ,1.20164 ,3.65930 ,35.90505 
103 ,20.9568 ,1.20371 ,3.63192 ,35.63642 
104 ,21.1489 ,1.20562 ,3.61139 ,35.43495 
105 ,21.3568 ,1.20764 ,3.60112 ,35.33422 
106 ,21.5490 ,1.20960 ,3.57032 ,35.03201 
107 ,21.7412 ,1.21143 ,3.58401 ,35.16632 
108 ,21.9492 ,1.21352 ,3.55663 ,34.89770 
109 ,22.1413 ,1.21550 ,3.53610 ,34.69623 
110 ,22.3334 ,1.21744 ,3.50530 ,34.39402 
111 ,22.5573 ,1.21957 ,3.49846 ,34.32687 
112 ,22.7652 ,1.22172 ,3.49161 ,34.25971 
113 ,22.9577 ,1.22368 ,3.46081 ,33.95751 
114 ,23.1658 ,1.22576 ,3.44370 ,33.78961 
115 ,23.3738 ,1.22773 ,3.44370 ,33.78961 
116 ,23.5819 ,1.22989 ,3.42317 ,33.58814 
117 ,23.7739 ,1.23180 ,3.40606 ,33.42025 
118 ,23.9658 ,1.23370 ,3.39237 ,33.28594 
119 ,24.1580 ,1.23567 ,3.37526 ,33.11805 
120 ,24.3342 ,1.23754 ,3.34788 ,32.84942 
121 ,24.5262 ,1.23932 ,3.33077 ,32.68153 
122 ,24.7183 ,1.24121 ,3.31708 ,32.54722 
123 ,24.9261 ,1.24327 ,3.28971 ,32.27859 
124 ,25.1340 ,1.24536 ,3.27259 ,32.11070 
125 ,25.3260 ,1.24730 ,3.26233 ,32.00996 
126 ,25.5025 ,1.24918 ,3.26233 ,32.00996 
127 ,25.6946 ,1.25103 ,3.22468 ,31.64060 
128 ,25.8867 ,1.25290 ,3.22811 ,31.67418 
129 ,26.0945 ,1.25501 ,3.20073 ,31.40555 
130 ,26.2865 ,1.25692 ,3.18362 ,31.23766 
131 ,26.4791 ,1.25883 ,3.16651 ,31.06977 
132 ,26.6867 ,1.26102 ,3.15966 ,31.00262 
133 ,26.8792 ,1.26283 ,3.13913 ,30.80115 
134 ,27.0714 ,1.26472 ,3.10149 ,30.43178 
135 ,27.2634 ,1.26672 ,3.10491 ,30.46536 
136 ,27.4554 ,1.26867 ,3.08095 ,30.23031 
137 ,27.6476 ,1.27054 ,3.08095 ,30.23031 
138 ,27.8557 ,1.27264 ,3.04331 ,29.86095 
139 ,28.0476 ,1.27459 ,3.01593 ,29.59233 
140 ,28.2394 ,1.27645 ,3.02278 ,29.65948 
141 ,28.4319 ,1.27842 ,2.99540 ,29.39086 
142 ,28.6560 ,1.28052 ,2.98855 ,29.32370 
143 ,28.8478 ,1.28255 ,2.97487 ,29.18939 
144 ,29.0561 ,1.28460 ,2.94749 ,28.92076 
145 ,29.2481 ,1.28656 ,2.93380 ,28.78645 
146 ,29.4402 ,1.28851 ,2.93038 ,28.75287 
147 ,29.6322 ,1.29040 ,2.90300 ,28.48424 
148 ,29.8562 ,1.29256 ,2.87905 ,28.24919 
149 ,30.0644 ,1.29473 ,2.89273 ,28.38351 
150 ,30.2726 ,1.29679 ,2.85509 ,28.01415 
151 ,30.4643 ,1.29870 ,2.84482 ,27.91341 
152 ,30.6728 ,1.30065 ,2.83114 ,27.77910 
153 ,30.8808 ,1.30282 ,2.82429 ,27.71194 
154 ,31.0729 ,1.30479 ,2.79007 ,27.37616 
155 ,31.2649 ,1.30668 ,2.78665 ,27.34258 
156 ,31.4568 ,1.30859 ,2.77296 ,27.20827 
157 ,31.6492 ,1.31059 ,2.73874 ,26.87248 
158 ,31.8570 ,1.31260 ,2.73189 ,26.80533 
159 ,32.0493 ,1.31454 ,2.71478 ,26.63744 
160 ,32.2573 ,1.31661 ,2.70452 ,26.53670 
161 ,32.4494 ,1.31856 ,2.68740 ,26.36881 
162 ,32.6412 ,1.32047 ,2.67714 ,26.26807 
163 ,32.8499 ,1.32260 ,2.64292 ,25.93229 
164 ,33.0576 ,1.32460 ,2.62923 ,25.79798 
165 ,33.2497 ,1.32651 ,2.62581 ,25.76440 
166 ,33.4419 ,1.32847 ,2.62238 ,25.73082 
167 ,33.6501 ,1.33057 ,2.57447 ,25.26073 
168 ,33.8577 ,1.33266 ,2.58132 ,25.32788 
169 ,34.0659 ,1.33470 ,2.56078 ,25.12641 
170 ,34.2580 ,1.33665 ,2.55052 ,25.02568 
171 ,34.4662 ,1.33866 ,2.52998 ,24.82421 
172 ,34.6582 ,1.34059 ,2.51972 ,24.72347 
173 ,34.8664 ,1.34272 ,2.48207 ,24.35411 
174 ,35.0906 ,1.34486 ,2.47865 ,24.32053 
175 ,35.2827 ,1.34688 ,2.47181 ,24.25338 
176 ,35.4747 ,1.34879 ,2.44785 ,24.01833 
177 ,35.6987 ,1.35094 ,2.44443 ,23.98475 
178 ,35.8906 ,1.35289 ,2.41021 ,23.64897 
179 ,36.0990 ,1.35503 ,2.41363 ,23.68255 
180 ,36.3068 ,1.35703 ,2.37256 ,23.27961 
181 ,36.4991 ,1.35900 ,2.37599 ,23.31318 
182 ,36.7070 ,1.36112 ,2.34861 ,23.04456 
183 ,36.8992 ,1.36298 ,2.35545 ,23.11171 
184 ,37.0913 ,1.36503 ,2.32123 ,22.77593 
185 ,37.2834 ,1.36687 ,2.32808 ,22.84309 
186 ,37.4913 ,1.36883 ,2.29385 ,22.50731 
187 ,37.6995 ,1.37101 ,2.28017 ,22.37299 
188 ,37.8915 ,1.37296 ,2.24594 ,22.03721 
189 ,38.0833 ,1.37485 ,2.25963 ,22.17152 
190 ,38.2759 ,1.37678 ,2.23568 ,21.93647 
191 ,38.4836 ,1.37886 ,2.21515 ,21.73500 
192 ,38.7078 ,1.38102 ,2.17750 ,21.36564 
193 ,38.9000 ,1.38300 ,2.19119 ,21.49996 
194 ,39.1081 ,1.38509 ,2.16381 ,21.23133 
195 ,39.2998 ,1.38701 ,2.17408 ,21.33206 
196 ,39.4922 ,1.38893 ,2.13986 ,20.99628 
197 ,39.6839 ,1.39089 ,2.13301 ,20.92912 
198 ,39.8760 ,1.39278 ,2.11932 ,20.79481 
199 ,40.0522 ,1.39466 ,2.10221 ,20.62692 
200 ,40.2442 ,1.39647 ,2.08852 ,20.49261 
201 ,40.4361 ,1.39839 ,2.07826 ,20.39187 
202 ,40.6284 ,1.40029 ,2.05430 ,20.15682 
203 ,40.8204 ,1.40218 ,2.06457 ,20.25756 
204 ,41.0125 ,1.40409 ,2.03035 ,19.92178 
205 ,41.2044 ,1.40606 ,2.03035 ,19.92178 
206 ,41.3967 ,1.40794 ,2.00639 ,19.68673 
207 ,41.5887 ,1.40991 ,2.00297 ,19.65315 
208 ,41.7806 ,1.41180 ,1.99955 ,19.61957 
209 ,41.9888 ,1.41386 ,1.96533 ,19.28379 
210 ,42.1809 ,1.41584 ,1.96533 ,19.28379 
211 ,42.3730 ,1.41775 ,1.92768 ,18.91443 
212 ,42.5652 ,1.41962 ,1.92426 ,18.88085 
213 ,42.7572 ,1.42158 ,1.91399 ,18.78011 
214 ,42.9494 ,1.42352 ,1.89688 ,18.61222 
215 ,43.1413 ,1.42542 ,1.89688 ,18.61222 
216 ,43.3334 ,1.42733 ,1.87977 ,18.44433 
217 ,43.5254 ,1.42925 ,1.85582 ,18.20928 
218 ,43.7336 ,1.43126 ,1.84555 ,18.10855 
219 ,43.9256 ,1.43326 ,1.82502 ,17.90708 
220 ,44.1177 ,1.43520 ,1.83186 ,17.97423 
221 ,44.3100 ,1.43708 ,1.79422 ,17.60487 
222 ,44.5023 ,1.43900 ,1.79422 ,17.60487 
223 ,44.7260 ,1.44107 ,1.76342 ,17.30267 
224 ,44.9185 ,1.44316 ,1.76684 ,17.33625 
225 ,45.1266 ,1.44524 ,1.74631 ,17.13478 
226 ,45.3182 ,1.44724 ,1.73946 ,17.06762 
227 ,45.5107 ,1.44906 ,1.70524 ,16.73184 
228 ,45.7028 ,1.45103 ,1.71209 ,16.79899 
229 ,45.9109 ,1.45311 ,1.68471 ,16.53037 
230 ,46.1190 ,1.45515 ,1.67444 ,16.42963 
231 ,46.3107 ,1.45710 ,1.65391 ,16.22816 
232 ,46.5031 ,1.45898 ,1.66418 ,16.32890 
233 ,46.6949 ,1.46108 ,1.64022 ,16.09385 
234 ,46.8869 ,1.46279 ,1.62653 ,15.95954 
235 ,47.0793 ,1.46476 ,1.62653 ,15.95954 
236 ,47.2873 ,1.46687 ,1.58889 ,15.59018 
237 ,47.4794 ,1.46879 ,1.60258 ,15.72449 
238 ,47.6870 ,1.47089 ,1.56836 ,15.38871 
239 ,47.8955 ,1.47295 ,1.56493 ,15.35513 
240 ,48.1037 ,1.47508 ,1.55124 ,15.22081 
241 ,48.3116 ,1.47710 ,1.51360 ,14.85145 
242 ,48.5039 ,1.47895 ,1.53413 ,15.05292 
243 ,48.6958 ,1.48092 ,1.49649 ,14.68356 
244 ,48.8879 ,1.48286 ,1.47253 ,14.44851 
245 ,49.0798 ,1.48480 ,1.49307 ,14.64998 
246 ,49.2722 ,1.48674 ,1.46227 ,14.34778 
247 ,49.4484 ,1.48862 ,1.46911 ,14.41493 
248 ,49.6404 ,1.49038 ,1.46227 ,14.34778 
249 ,49.8484 ,1.49242 ,1.42462 ,13.97842 
250 ,50.0406 ,1.49437 ,1.42805 ,14.01199 
251 ,50.2323 ,1.49633 ,1.39040 ,13.64263 
252 ,50.4247 ,1.49819 ,1.40067 ,13.74337 
253 ,50.6168 ,1.50016 ,1.38356 ,13.57548 
254 ,50.8088 ,1.50208 ,1.35618 ,13.30685 
255 ,51.0010 ,1.50396 ,1.36645 ,13.40759 
256 ,51.1931 ,1.50587 ,1.33223 ,13.07180 
257 ,51.3851 ,1.50789 ,1.32196 ,12.97107 
258 ,51.5771 ,1.50972 ,1.30485 ,12.80318 
259 ,51.7692 ,1.51162 ,1.29458 ,12.70244 
260 ,51.9614 ,1.51358 ,1.30827 ,12.83675 
261 ,52.1535 ,1.51554 ,1.27063 ,12.46739 
262 ,52.3611 ,1.51745 ,1.26720 ,12.43381 
263 ,52.5696 ,1.51959 ,1.23983 ,12.16519 
264 ,52.7774 ,1.52176 ,1.23298 ,12.09803 
265 ,52.9697 ,1.52367 ,1.22614 ,12.03088 
266 ,53.1777 ,1.52575 ,1.21245 ,11.89656 
267 ,53.3700 ,1.52772 ,1.19534 ,11.72867 
268 ,53.5782 ,1.52972 ,1.16796 ,11.46004 
269 ,53.7864 ,1.53186 ,1.17138 ,11.49362 
270 ,53.9943 ,1.53390 ,1.14401 ,11.22500 
271 ,54.1864 ,1.53581 ,1.14743 ,11.25857 
272 ,54.3944 ,1.53788 ,1.12005 ,10.98995 
273 ,54.5861 ,1.53983 ,1.12690 ,11.05710 
274 ,54.7786 ,1.54173 ,1.09952 ,10.78848 
275 ,54.9865 ,1.54383 ,1.08583 ,10.65416 
276 ,55.1787 ,1.54571 ,1.06872 ,10.48627 
277 ,55.3709 ,1.54769 ,1.06187 ,10.41912 
278 ,55.5789 ,1.54969 ,1.05161 ,10.31838 
279 ,55.7710 ,1.55170 ,1.02423 ,10.04976 
280 ,55.9629 ,1.55358 ,1.03792 ,10.18407 
281 ,56.1712 ,1.55568 ,1.01054 ,9.91544 
282 ,56.3632 ,1.55763 ,1.00712 ,9.88186 
283 ,56.5713 ,1.55961 ,0.97632 ,9.57966 
284 ,56.7629 ,1.56161 ,0.97974 ,9.61324 
285 ,56.9714 ,1.56359 ,0.95921 ,9.41177 
286 ,57.1634 ,1.56572 ,0.94552 ,9.27745 
287 ,57.3557 ,1.56751 ,0.92841 ,9.10956 
288 ,57.5475 ,1.56944 ,0.92499 ,9.07598 
289 ,57.7393 ,1.57138 ,0.91130 ,8.94167 
290 ,57.9315 ,1.57324 ,0.88050 ,8.63947 
291 ,58.1399 ,1.57534 ,0.87708 ,8.60589 
292 ,58.3318 ,1.57728 ,0.85997 ,8.43800 
293 ,58.5399 ,1.57933 ,0.86681 ,8.50515 
294 ,58.7322 ,1.58124 ,0.83943 ,8.23653 
295 ,58.9241 ,1.58317 ,0.83943 ,8.23653 
296 ,59.1163 ,1.58509 ,0.81206 ,7.96790 
297 ,59.3243 ,1.58721 ,0.81890 ,8.03506 
298 ,59.5163 ,1.58911 ,0.79152 ,7.76643 
299 ,59.7565 ,1.59132 ,0.79837 ,7.83359 
300 ,59.9483 ,1.59344 ,0.77099 ,7.56496 
301 ,60.1407 ,1.59535 ,0.76757 ,7.53138 
302 ,60.3325 ,1.59725 ,0.74361 ,7.29633 
303 ,60.5250 ,1.59919 ,0.74361 ,7.29633 
304 ,60.7330 ,1.60129 ,0.71281 ,6.99413 
305 ,60.9411 ,1.60327 ,0.71624 ,7.02771 
306 ,61.1327 ,1.60528 ,0.70255 ,6.89340 
307 ,61.3253 ,1.60723 ,0.69913 ,6.85982 
308 ,61.5332 ,1.60926 ,0.66148 ,6.49046 
309 ,61.7414 ,1.61137 ,0.66490 ,6.52403 
310 ,61.9494 ,1.61332 ,0.63068 ,6.18825 
311 ,62.1575 ,1.61553 ,0.62384 ,6.12109 
312 ,62.3495 ,1.61742 ,0.61357 ,6.02036 
313 ,62.5417 ,1.61940 ,0.61699 ,6.05394 
314 ,62.7499 ,1.62141 ,0.58619 ,5.75173 
315 ,62.9419 ,1.62335 ,0.59646 ,5.85247 
316 ,63.1499 ,1.62532 ,0.56566 ,5.55026 
317 ,63.3576 ,1.62745 ,0.55539 ,5.44953 
318 ,63.5502 ,1.62947 ,0.55197 ,5.41595 
319 ,63.7582 ,1.63149 ,0.54513 ,5.34879 
320 ,63.9662 ,1.63351 ,0.52802 ,5.18090 
321 ,64.1743 ,1.63565 ,0.50748 ,4.97943 
322 ,64.3982 ,1.63780 ,0.51091 ,5.01301 
323 ,64.5905 ,1.63987 ,0.48011 ,4.71081 
324 ,64.7825 ,1.64186 ,0.47326 ,4.64365 
325 ,64.9744 ,1.64366 ,0.44246 ,4.34144 
326 ,65.1667 ,1.64557 ,0.45957 ,4.50934 
327 ,65.3588 ,1.64753 ,0.45615 ,4.47576 
328 ,65.5664 ,1.64953 ,0.44246 ,4.34144 
329 ,65.7590 ,1.65153 ,0.41509 ,4.07282 
330 ,65.9508 ,1.65347 ,0.41166 ,4.03924 
331 ,66.1433 ,1.65533 ,0.40140 ,3.93850 
332 ,66.3353 ,1.65723 ,0.37060 ,3.63630 
333 ,66.5270 ,1.65921 ,0.37744 ,3.70346 
334 ,66.7194 ,1.66116 ,0.37060 ,3.63630 
335 ,66.9273 ,1.66322 ,0.35349 ,3.46841 
336 ,67.1195 ,1.66505 ,0.33295 ,3.26694 
337 ,67.3275 ,1.66709 ,0.33638 ,3.30052 
338 ,67.5197 ,1.66903 ,0.30900 ,3.03189 
339 ,67.7114 ,1.67097 ,0.30900 ,3.03189 
340 ,67.9520 ,1.67330 ,0.28162 ,2.76326 
341 ,68.1600 ,1.67552 ,0.27820 ,2.72969 
342 ,68.3523 ,1.67744 ,0.25767 ,2.52822 
343 ,68.5601 ,1.67953 ,0.25767 ,2.52822 
344 ,68.7522 ,1.68147 ,0.24398 ,2.39390 
345 ,68.9442 ,1.68333 ,0.25082 ,2.46106 
346 ,69.1363 ,1.68526 ,0.22687 ,2.22601 
347 ,69.3285 ,1.68721 ,0.22344 ,2.19243 
348 ,69.5363 ,1.68922 ,0.20976 ,2.05812 
349 ,69.7286 ,1.69123 ,0.19607 ,1.92381 
350 ,69.9203 ,1.69311 ,0.19264 ,1.89023 
351 ,70.0966 ,1.69501 ,0.16185 ,1.58802 
352 ,70.2887 ,1.69684 ,0.16527 ,1.62160 
353 ,70.4969 ,1.69887 ,0.14816 ,1.45371 
354 ,70.6890 ,1.70085 ,0.13105 ,1.28582 
355 ,70.8811 ,1.70270 ,0.14816 ,1.45371 
356 ,71.0727 ,1.70476 ,0.12420 ,1.21866 
357 ,71.2652 ,1.70655 ,0.12078 ,1.18508 
358 ,71.4572 ,1.70849 ,0.10367 ,1.01719 
359 ,71.6492 ,1.71037 ,0.07629 ,0.74857 
360 ,71.8415 ,1.71229 ,0.07629 ,0.74857 
361 ,72.0497 ,1.71444 ,0.06260 ,0.61425 
362 ,72.2573 ,1.71645 ,0.05576 ,0.54710 
363 ,72.4658 ,1.71853 ,0.05918 ,0.58067 
364 ,72.6739 ,1.72060 ,0.02838 ,0.27847 
365 ,72.8657 ,1.72254 ,0.03522 ,0.34563 
366 ,73.0901 ,1.72467 ,0.00785 ,0.07700 
367 ,73.2820 ,1.72672 ,0.00443 ,0.04342 
368 ,73.4741 ,1.72857 ,-0.01269 ,-0.12447 
369 ,73.6663 ,1.73056 ,-0.01269 ,-0.12447 
370 ,73.8743 ,1.73266 ,-0.04006 ,-0.39310 
371 ,74.0664 ,1.73452 ,-0.03664 ,-0.35952 
372 ,74.2581 ,1.73644 ,-0.04348 ,-0.42667 
373 ,74.4508 ,1.73841 ,-0.05717 ,-0.56099 
374 ,74.6583 ,1.74044 ,-0.07086 ,-0.69530 
375 ,74.8826 ,1.74274 ,-0.07086 ,-0.69530 
376 ,75.0907 ,1.74475 ,-0.08797 ,-0.86319 
377 ,75.2825 ,1.74669 ,-0.09140 ,-0.89677 
378 ,75.4750 ,1.74860 ,-0.11535 ,-1.13182 
379 ,75.6670 ,1.75052 ,-0.12219 ,-1.19898 
380 ,75.8589 ,1.75251 ,-0.12219 ,-1.19898 
381 ,76.0673 ,1.75455 ,-0.12562 ,-1.23255 
382 ,76.2591 ,1.75647 ,-0.14273 ,-1.40045 
383 ,76.4671 ,1.75853 ,-0.14957 ,-1.46760 
384 ,76.6592 ,1.76049 ,-0.17695 ,-1.73623 
385 ,76.8674 ,1.76255 ,-0.17353 ,-1.70265 
386 ,77.0753 ,1.76463 ,-0.19406 ,-1.90412 
387 ,77.2674 ,1.76657 ,-0.20433 ,-2.00485 
388 ,77.4594 ,1.76850 ,-0.21117 ,-2.07201 
389 ,77.6673 ,1.77055 ,-0.21802 ,-2.13917 
390 ,77.8757 ,1.77262 ,-0.23855 ,-2.34064 
391 ,78.0679 ,1.77453 ,-0.23855 ,-2.34064 
392 ,78.2439 ,1.77641 ,-0.25908 ,-2.54211 
393 ,78.4359 ,1.77828 ,-0.26250 ,-2.57569 
394 ,78.6278 ,1.78016 ,-0.27277 ,-2.67642 
395 ,78.8203 ,1.78207 ,-0.26593 ,-2.60926 
396 ,79.0121 ,1.78403 ,-0.28988 ,-2.84431 
397 ,79.2205 ,1.78599 ,-0.29673 ,-2.91147 
398 ,79.4285 ,1.78817 ,-0.31041 ,-3.04578 
399 ,79.6206 ,1.79005 ,-0.31726 ,-3.11294 
400 ,79.8123 ,1.79196 ,-0.34806 ,-3.41514 
401 ,80.0048 ,1.79393 ,-0.32410 ,-3.18010 
402 ,80.2128 ,1.79600 ,-0.35832 ,-3.51588 
403 ,80.4050 ,1.79790 ,-0.34806 ,-3.41514 
404 ,80.5969 ,1.79982 ,-0.38228 ,-3.75093 
405 ,80.8051 ,1.80185 ,-0.38228 ,-3.75093 
406 ,80.9972 ,1.80384 ,-0.38912 ,-3.81808 
407 ,81.1893 ,1.80575 ,-0.39255 ,-3.85166 
408 ,81.3814 ,1.80769 ,-0.41650 ,-4.08671 
409 ,81.5895 ,1.80975 ,-0.42335 ,-4.15387 
410 ,81.7975 ,1.81184 ,-0.43019 ,-4.22102 
411 ,82.0052 ,1.81393 ,-0.42677 ,-4.18744 
412 ,82.1977 ,1.81579 ,-0.44730 ,-4.38891 
413 ,82.4057 ,1.81792 ,-0.44730 ,-4.38891 
414 ,82.5978 ,1.81980 ,-0.46783 ,-4.59038 
415 ,82.8059 ,1.82193 ,-0.46783 ,-4.59038 
416 ,82.9978 ,1.82384 ,-0.48494 ,-4.75828 
417 ,83.2061 ,1.82592 ,-0.49521 ,-4.85901 
418 ,83.4302 ,1.82808 ,-0.51232 ,-5.02690 
419 ,83.6222 ,1.83011 ,-0.50548 ,-4.95975 
420 ,83.8624 ,1.83228 ,-0.52259 ,-5.12764 
421 ,84.0705 ,1.83455 ,-0.54997 ,-5.39626 
422 ,84.2625 ,1.83643 ,-0.54997 ,-5.39626 
423 ,84.4545 ,1.83842 ,-0.55339 ,-5.42984 
424 ,84.6467 ,1.84032 ,-0.56023 ,-5.49700 
425 ,84.8388 ,1.84226 ,-0.57050 ,-5.59773 
426 ,85.0465 ,1.84438 ,-0.57392 ,-5.63131 
427 ,85.2225 ,1.84620 ,-0.59788 ,-5.86636 
428 ,85.4146 ,1.84796 ,-0.61499 ,-6.03425 
429 ,85.6231 ,1.84997 ,-0.59103 ,-5.79920 
430 ,85.8312 ,1.85216 ,-0.62525 ,-6.13499 
431 ,86.0393 ,1.85411 ,-0.61156 ,-6.00067 
432 ,86.2314 ,1.85614 ,-0.62525 ,-6.13499 
433 ,86.4235 ,1.85808 ,-0.63894 ,-6.26930 
434 ,86.6156 ,1.85994 ,-0.67659 ,-6.63866 
435 ,86.8074 ,1.86190 ,-0.65947 ,-6.47077 
436 ,86.9997 ,1.86386 ,-0.66632 ,-6.53793 
437 ,87.1919 ,1.86579 ,-0.68685 ,-6.73940 
438 ,87.3840 ,1.86764 ,-0.68685 ,-6.73940 
439 ,87.5760 ,1.86962 ,-0.70739 ,-6.94086 
440 ,87.7841 ,1.87166 ,-0.70054 ,-6.87371 
441 ,88.0081 ,1.87389 ,-0.71081 ,-6.97444 
442 ,88.2162 ,1.87602 ,-0.73134 ,-7.17591 
443 ,88.3922 ,1.87786 ,-0.72107 ,-7.07518 
444 ,88.5841 ,1.87965 ,-0.73476 ,-7.20949 
445 ,88.7765 ,1.88156 ,-0.76556 ,-7.51170 
446 ,88.9683 ,1.88347 ,-0.75187 ,-7.37738 
447 ,89.1763 ,1.88554 ,-0.77583 ,-7.61243 
448 ,89.3687 ,1.88755 ,-0.77583 ,-7.61243 
449 ,89.5765 ,1.88962 ,-0.80663 ,-7.91464 
450 ,89.7688 ,1.89153 ,-0.78952 ,-7.74674 
451 ,89.9609 ,1.89344 ,-0.79978 ,-7.84748 
452 ,90.1530 ,1.89532 ,-0.82374 ,-8.08253 
453 ,90.3450 ,1.89730 ,-0.81689 ,-8.01537 
454 ,90.5372 ,1.89918 ,-0.84085 ,-8.25042 
455 ,90.7449 ,1.90129 ,-0.83058 ,-8.14968 
456 ,90.9369 ,1.90315 ,-0.85796 ,-8.41831 
457 ,91.1453 ,1.90524 ,-0.85454 ,-8.38473 
458 ,91.3534 ,1.90731 ,-0.87165 ,-8.55262 
459 ,91.5451 ,1.90924 ,-0.87165 ,-8.55262 
460 ,91.7212 ,1.91110 ,-0.89218 ,-8.75409 
461 ,91.9133 ,1.91290 ,-0.90929 ,-8.92198 
462 ,92.1214 ,1.91491 ,-0.89903 ,-8.82125 
463 ,92.2974 ,1.91690 ,-0.92298 ,-9.05630 
