Data stamp = , 30-04-2022 15:49:42 074

Calibration Values: 
Slope = , 26.54 , g/V 
Offset Voltage at no contact = , -0.501760 , V 

No , Time , Stage Position ,   Mass , Force 
   ,  (s) ,      (mm)      ,   (g)  , (mN)  

1 ,0.0000 ,0.99948 ,5.43883 ,53.36576 
2 ,0.2051 ,0.99955 ,5.45594 ,53.53366 
3 ,0.7339 ,1.00156 ,5.42856 ,53.26503 
4 ,0.9419 ,1.00366 ,5.43540 ,53.33219 
5 ,1.1340 ,1.00557 ,5.44225 ,53.39934 
6 ,1.3416 ,1.00755 ,5.41145 ,53.09714 
7 ,1.5498 ,1.00971 ,5.40118 ,52.99640 
8 ,1.7424 ,1.01159 ,5.38407 ,52.82851 
9 ,1.9504 ,1.01370 ,5.37723 ,52.76135 
10 ,2.1584 ,1.01577 ,5.34301 ,52.42557 
11 ,2.3506 ,1.01772 ,5.34985 ,52.49273 
12 ,2.5424 ,1.01965 ,5.30194 ,52.02263 
13 ,2.7348 ,1.02156 ,5.29167 ,51.92190 
14 ,2.9429 ,1.02361 ,5.26772 ,51.68685 
15 ,3.1348 ,1.02559 ,5.23692 ,51.38464 
16 ,3.3268 ,1.02745 ,5.24376 ,51.45180 
17 ,3.5189 ,1.02944 ,5.19585 ,50.98170 
18 ,3.7107 ,1.03135 ,5.19243 ,50.94813 
19 ,3.9032 ,1.03326 ,5.19243 ,50.94813 
20 ,4.1111 ,1.03537 ,5.17190 ,50.74666 
21 ,4.3033 ,1.03728 ,5.13083 ,50.34372 
22 ,4.5270 ,1.03950 ,5.11714 ,50.20940 
23 ,4.7190 ,1.04142 ,5.09319 ,49.97436 
24 ,4.8954 ,1.04330 ,5.07265 ,49.77289 
25 ,5.0876 ,1.04516 ,5.06923 ,49.73931 
26 ,5.2796 ,1.04701 ,5.03501 ,49.40352 
27 ,5.4718 ,1.04897 ,5.02817 ,49.33637 
28 ,5.6636 ,1.05084 ,5.00079 ,49.06774 
29 ,5.8716 ,1.05292 ,4.98368 ,48.89985 
30 ,6.0638 ,1.05488 ,4.97341 ,48.79911 
31 ,6.2560 ,1.05683 ,4.94261 ,48.49691 
32 ,6.4637 ,1.05884 ,4.93577 ,48.42975 
33 ,6.6720 ,1.06079 ,4.91181 ,48.19471 
34 ,6.8803 ,1.06300 ,4.87417 ,47.82534 
35 ,7.0726 ,1.06498 ,4.86732 ,47.75819 
36 ,7.2804 ,1.06699 ,4.85364 ,47.62387 
37 ,7.4725 ,1.06894 ,4.83995 ,47.48956 
38 ,7.6646 ,1.07087 ,4.80573 ,47.15378 
39 ,7.8568 ,1.07276 ,4.78519 ,46.95231 
40 ,8.0484 ,1.07467 ,4.78177 ,46.91873 
41 ,8.2409 ,1.07658 ,4.74413 ,46.54937 
42 ,8.4488 ,1.07865 ,4.76124 ,46.71726 
43 ,8.6410 ,1.08063 ,4.71675 ,46.28074 
44 ,8.8331 ,1.08256 ,4.70306 ,46.14643 
45 ,9.0252 ,1.08445 ,4.70306 ,46.14643 
46 ,9.2173 ,1.08643 ,4.65857 ,45.70991 
47 ,9.4253 ,1.08844 ,4.66542 ,45.77707 
48 ,9.6175 ,1.09032 ,4.61408 ,45.27339 
49 ,9.8413 ,1.09253 ,4.62777 ,45.40771 
50 ,10.0335 ,1.09454 ,4.58328 ,44.97119 
51 ,10.2256 ,1.09640 ,4.59013 ,45.03835 
52 ,10.4178 ,1.09836 ,4.54906 ,44.63541 
53 ,10.6258 ,1.10050 ,4.54906 ,44.63541 
54 ,10.8179 ,1.10241 ,4.50800 ,44.23247 
55 ,11.0099 ,1.10427 ,4.50800 ,44.23247 
56 ,11.2021 ,1.10617 ,4.48062 ,43.96384 
57 ,11.4102 ,1.10834 ,4.46009 ,43.76237 
58 ,11.6182 ,1.11034 ,4.43955 ,43.56090 
59 ,11.8103 ,1.11225 ,4.44982 ,43.66163 
60 ,12.0024 ,1.11426 ,4.41560 ,43.32585 
61 ,12.2105 ,1.11615 ,4.40875 ,43.25870 
62 ,12.4184 ,1.11834 ,4.36769 ,42.85576 
63 ,12.6106 ,1.12025 ,4.37111 ,42.88933 
64 ,12.8024 ,1.12214 ,4.34373 ,42.62071 
65 ,12.9945 ,1.12420 ,4.33689 ,42.55355 
66 ,13.2028 ,1.12622 ,4.30609 ,42.25135 
67 ,13.3946 ,1.12810 ,4.28898 ,42.08345 
68 ,13.5867 ,1.13009 ,4.28213 ,42.01630 
69 ,13.7790 ,1.13200 ,4.25133 ,41.71409 
70 ,13.9871 ,1.13407 ,4.24449 ,41.64694 
71 ,14.1788 ,1.13592 ,4.21369 ,41.34473 
72 ,14.3710 ,1.13786 ,4.20342 ,41.24400 
73 ,14.5629 ,1.13977 ,4.19658 ,41.17684 
74 ,14.7715 ,1.14179 ,4.17262 ,40.94179 
75 ,14.9795 ,1.14396 ,4.15551 ,40.77390 
76 ,15.1717 ,1.14584 ,4.13840 ,40.60601 
77 ,15.3637 ,1.14784 ,4.13156 ,40.53885 
78 ,15.5559 ,1.14972 ,4.10076 ,40.23665 
79 ,15.7639 ,1.15180 ,4.09049 ,40.13591 
80 ,15.9720 ,1.15386 ,4.06996 ,39.93444 
81 ,16.1641 ,1.15583 ,4.05285 ,39.76655 
82 ,16.3877 ,1.15797 ,4.03916 ,39.63224 
83 ,16.5800 ,1.15997 ,4.01178 ,39.36361 
84 ,16.7881 ,1.16202 ,3.99809 ,39.22930 
85 ,16.9801 ,1.16400 ,3.97414 ,38.99425 
86 ,17.1725 ,1.16584 ,3.96387 ,38.89352 
87 ,17.3805 ,1.16804 ,3.94676 ,38.72562 
88 ,17.5725 ,1.16991 ,3.91596 ,38.42342 
89 ,17.7643 ,1.17180 ,3.91938 ,38.45700 
90 ,17.9564 ,1.17384 ,3.89885 ,38.25553 
91 ,18.1484 ,1.17571 ,3.88858 ,38.15479 
92 ,18.3244 ,1.17750 ,3.86805 ,37.95332 
93 ,18.5329 ,1.17938 ,3.84410 ,37.71828 
94 ,18.7248 ,1.18142 ,3.83383 ,37.61754 
95 ,18.9168 ,1.18330 ,3.80303 ,37.31534 
96 ,19.1090 ,1.18530 ,3.80987 ,37.38249 
97 ,19.3334 ,1.18735 ,3.77223 ,37.01313 
98 ,19.5414 ,1.18957 ,3.75854 ,36.87882 
99 ,19.7495 ,1.19162 ,3.73459 ,36.64377 
100 ,19.9573 ,1.19364 ,3.73117 ,36.61019 
101 ,20.1656 ,1.19578 ,3.70379 ,36.34157 
102 ,20.3738 ,1.19788 ,3.67641 ,36.07294 
103 ,20.5657 ,1.19982 ,3.67983 ,36.10652 
104 ,20.7739 ,1.20178 ,3.64219 ,35.73716 
105 ,20.9660 ,1.20385 ,3.63534 ,35.67000 
106 ,21.1581 ,1.20572 ,3.61139 ,35.43495 
107 ,21.3663 ,1.20782 ,3.60797 ,35.40137 
108 ,21.5903 ,1.20998 ,3.58743 ,35.19990 
109 ,21.7820 ,1.21200 ,3.57375 ,35.06559 
110 ,21.9740 ,1.21390 ,3.54295 ,34.76338 
111 ,22.1662 ,1.21576 ,3.54637 ,34.79696 
112 ,22.3744 ,1.21780 ,3.51215 ,34.46118 
113 ,22.5986 ,1.22015 ,3.49504 ,34.29329 
114 ,22.7908 ,1.22201 ,3.48819 ,34.22613 
115 ,22.9828 ,1.22400 ,3.46766 ,34.02466 
116 ,23.1751 ,1.22591 ,3.45055 ,33.85677 
117 ,23.3829 ,1.22799 ,3.45055 ,33.85677 
118 ,23.5752 ,1.22989 ,3.41633 ,33.52099 
119 ,23.7672 ,1.23184 ,3.39921 ,33.35310 
120 ,23.9912 ,1.23395 ,3.37184 ,33.08447 
121 ,24.1991 ,1.23608 ,3.35815 ,32.95016 
122 ,24.4074 ,1.23819 ,3.36157 ,32.98374 
123 ,24.5990 ,1.24015 ,3.32735 ,32.64795 
124 ,24.7914 ,1.24206 ,3.31708 ,32.54722 
125 ,24.9835 ,1.24401 ,3.31708 ,32.54722 
126 ,25.1917 ,1.24604 ,3.27602 ,32.14428 
127 ,25.3840 ,1.24799 ,3.27259 ,32.11070 
128 ,25.6080 ,1.25020 ,3.25206 ,31.90923 
129 ,25.8160 ,1.25232 ,3.22126 ,31.60702 
130 ,26.0240 ,1.25433 ,3.23153 ,31.70776 
131 ,26.2161 ,1.25627 ,3.18020 ,31.20409 
132 ,26.4080 ,1.25818 ,3.19046 ,31.30482 
133 ,26.6001 ,1.26009 ,3.15966 ,31.00262 
134 ,26.7924 ,1.26205 ,3.14597 ,30.86830 
135 ,27.0004 ,1.26414 ,3.13229 ,30.73399 
136 ,27.1925 ,1.26609 ,3.10833 ,30.49894 
137 ,27.3846 ,1.26799 ,3.10833 ,30.49894 
138 ,27.5765 ,1.26987 ,3.07069 ,30.12958 
139 ,27.7686 ,1.27186 ,3.07069 ,30.12958 
140 ,27.9770 ,1.27386 ,3.04331 ,29.86095 
141 ,28.1687 ,1.27586 ,3.03647 ,29.79380 
142 ,28.3609 ,1.27775 ,3.01935 ,29.62590 
143 ,28.5529 ,1.27969 ,2.99198 ,29.35728 
144 ,28.7448 ,1.28167 ,2.99198 ,29.35728 
145 ,28.9371 ,1.28347 ,2.96460 ,29.08865 
146 ,29.1452 ,1.28545 ,2.96118 ,29.05507 
147 ,29.3374 ,1.28750 ,2.93380 ,28.78645 
148 ,29.5293 ,1.28946 ,2.93380 ,28.78645 
149 ,29.7373 ,1.29147 ,2.89273 ,28.38351 
150 ,29.9293 ,1.29344 ,2.89273 ,28.38351 
151 ,30.1215 ,1.29537 ,2.90642 ,28.51782 
152 ,30.3136 ,1.29720 ,2.84825 ,27.94699 
153 ,30.5058 ,1.29916 ,2.85509 ,28.01415 
154 ,30.6976 ,1.30109 ,2.82771 ,27.74552 
155 ,30.8896 ,1.30303 ,2.81745 ,27.64479 
156 ,31.0816 ,1.30492 ,2.80718 ,27.54405 
157 ,31.2742 ,1.30683 ,2.78322 ,27.30900 
158 ,31.4662 ,1.30878 ,2.77638 ,27.24185 
159 ,31.6578 ,1.31072 ,2.74900 ,26.97322 
160 ,31.8503 ,1.31256 ,2.74900 ,26.97322 
161 ,32.0424 ,1.31457 ,2.74216 ,26.90606 
162 ,32.2501 ,1.31665 ,2.70452 ,26.53670 
163 ,32.4265 ,1.31846 ,2.70109 ,26.50312 
164 ,32.6182 ,1.32023 ,2.69425 ,26.43597 
165 ,32.8107 ,1.32218 ,2.66345 ,26.13376 
166 ,33.0343 ,1.32436 ,2.66003 ,26.10018 
167 ,33.2269 ,1.32641 ,2.63607 ,25.86514 
168 ,33.4348 ,1.32845 ,2.61212 ,25.63009 
169 ,33.6269 ,1.33036 ,2.61212 ,25.63009 
170 ,33.8190 ,1.33228 ,2.59843 ,25.49577 
171 ,34.0432 ,1.33449 ,2.58474 ,25.36146 
172 ,34.2349 ,1.33658 ,2.55052 ,25.02568 
173 ,34.4272 ,1.33830 ,2.54710 ,24.99210 
174 ,34.6192 ,1.34022 ,2.52998 ,24.82421 
175 ,34.8114 ,1.34222 ,2.50603 ,24.58916 
176 ,35.0033 ,1.34414 ,2.50603 ,24.58916 
177 ,35.1956 ,1.34610 ,2.47181 ,24.25338 
178 ,35.3875 ,1.34804 ,2.46839 ,24.21980 
179 ,35.6112 ,1.35012 ,2.44443 ,23.98475 
180 ,35.8040 ,1.35213 ,2.44443 ,23.98475 
181 ,36.0120 ,1.35426 ,2.41705 ,23.71612 
182 ,36.2040 ,1.35614 ,2.41705 ,23.71612 
183 ,36.3960 ,1.35806 ,2.38283 ,23.38034 
184 ,36.5881 ,1.35994 ,2.36914 ,23.24603 
185 ,36.7803 ,1.36193 ,2.36572 ,23.21245 
186 ,36.9725 ,1.36385 ,2.34861 ,23.04456 
187 ,37.1805 ,1.36592 ,2.34861 ,23.04456 
188 ,37.3723 ,1.36780 ,2.31781 ,22.74235 
189 ,37.6124 ,1.37025 ,2.29385 ,22.50731 
190 ,37.8206 ,1.37223 ,2.30070 ,22.57446 
191 ,38.0128 ,1.37427 ,2.26306 ,22.20510 
192 ,38.2207 ,1.37622 ,2.25621 ,22.13794 
193 ,38.4129 ,1.37826 ,2.22199 ,21.80216 
194 ,38.6048 ,1.38016 ,2.23568 ,21.93647 
195 ,38.8131 ,1.38224 ,2.20488 ,21.63427 
196 ,39.0212 ,1.38423 ,2.21172 ,21.70143 
197 ,39.2291 ,1.38634 ,2.18092 ,21.39922 
198 ,39.4212 ,1.38823 ,2.18092 ,21.39922 
199 ,39.6129 ,1.39019 ,2.15012 ,21.09702 
200 ,39.8055 ,1.39210 ,2.14328 ,21.02986 
201 ,39.9975 ,1.39402 ,2.12275 ,20.82839 
202 ,40.1894 ,1.39593 ,2.10906 ,20.69408 
203 ,40.3817 ,1.39791 ,2.10906 ,20.69408 
204 ,40.6216 ,1.40030 ,2.08852 ,20.49261 
205 ,40.8300 ,1.40245 ,2.04404 ,20.05609 
206 ,41.0380 ,1.40446 ,2.05430 ,20.15682 
207 ,41.2300 ,1.40637 ,2.01324 ,19.75388 
208 ,41.4380 ,1.40845 ,2.02693 ,19.88820 
209 ,41.6462 ,1.41052 ,2.00639 ,19.68673 
210 ,41.8383 ,1.41240 ,1.99270 ,19.55241 
211 ,42.0303 ,1.41438 ,1.96875 ,19.31737 
212 ,42.2224 ,1.41632 ,1.96533 ,19.28379 
213 ,42.4143 ,1.41823 ,1.93111 ,18.94801 
214 ,42.6068 ,1.42014 ,1.93111 ,18.94801 
215 ,42.8144 ,1.42222 ,1.92084 ,18.84727 
216 ,43.0223 ,1.42428 ,1.89004 ,18.54507 
217 ,43.2145 ,1.42620 ,1.87977 ,18.44433 
218 ,43.4067 ,1.42813 ,1.87293 ,18.37717 
219 ,43.6632 ,1.43074 ,1.86608 ,18.31002 
220 ,43.8872 ,1.43292 ,1.82844 ,17.94066 
221 ,44.0953 ,1.43504 ,1.82502 ,17.90708 
222 ,44.3033 ,1.43709 ,1.81475 ,17.80634 
223 ,44.4954 ,1.43899 ,1.78737 ,17.53772 
224 ,44.6873 ,1.44088 ,1.78395 ,17.50414 
225 ,44.8955 ,1.44299 ,1.76684 ,17.33625 
226 ,45.0874 ,1.44486 ,1.75315 ,17.20193 
227 ,45.2797 ,1.44683 ,1.74289 ,17.10120 
228 ,45.4719 ,1.44880 ,1.71551 ,16.83257 
229 ,45.6640 ,1.45073 ,1.70866 ,16.76542 
230 ,45.8561 ,1.45263 ,1.70182 ,16.69826 
231 ,46.0481 ,1.45452 ,1.67102 ,16.39605 
232 ,46.2723 ,1.45668 ,1.68813 ,16.56395 
233 ,46.4799 ,1.45884 ,1.66075 ,16.29532 
234 ,46.6878 ,1.46092 ,1.62995 ,15.99311 
235 ,46.8799 ,1.46289 ,1.62311 ,15.92596 
236 ,47.0720 ,1.46477 ,1.60258 ,15.72449 
237 ,47.2644 ,1.46668 ,1.60942 ,15.79164 
238 ,47.4566 ,1.46858 ,1.59573 ,15.65733 
239 ,47.6487 ,1.47053 ,1.56493 ,15.35513 
240 ,47.8568 ,1.47257 ,1.56151 ,15.32155 
241 ,48.0488 ,1.47451 ,1.53756 ,15.08650 
242 ,48.2569 ,1.47666 ,1.53071 ,15.01934 
243 ,48.4490 ,1.47852 ,1.48965 ,14.61640 
244 ,48.6573 ,1.48060 ,1.49307 ,14.64998 
245 ,48.8491 ,1.48254 ,1.48280 ,14.54925 
246 ,49.0572 ,1.48459 ,1.47253 ,14.44851 
247 ,49.2494 ,1.48649 ,1.45885 ,14.31420 
248 ,49.4250 ,1.48843 ,1.45542 ,14.28062 
249 ,49.6174 ,1.49019 ,1.45885 ,14.31420 
250 ,49.8094 ,1.49210 ,1.41778 ,13.91126 
251 ,50.0016 ,1.49410 ,1.41436 ,13.87768 
252 ,50.1937 ,1.49598 ,1.40067 ,13.74337 
253 ,50.3858 ,1.49787 ,1.38698 ,13.60906 
254 ,50.5780 ,1.49984 ,1.37329 ,13.47474 
255 ,50.7860 ,1.50188 ,1.35618 ,13.30685 
256 ,50.9941 ,1.50399 ,1.33565 ,13.10538 
257 ,51.1861 ,1.50589 ,1.32538 ,13.00465 
258 ,51.3783 ,1.50778 ,1.32196 ,12.97107 
259 ,51.5700 ,1.50975 ,1.29116 ,12.66886 
260 ,51.7945 ,1.51185 ,1.29800 ,12.73602 
261 ,52.0024 ,1.51405 ,1.27747 ,12.53455 
262 ,52.1946 ,1.51596 ,1.25694 ,12.33308 
263 ,52.4027 ,1.51806 ,1.26720 ,12.43381 
264 ,52.6108 ,1.52011 ,1.22272 ,11.99730 
265 ,52.8187 ,1.52221 ,1.22272 ,11.99730 
266 ,53.0269 ,1.52430 ,1.20903 ,11.86298 
267 ,53.2189 ,1.52621 ,1.19534 ,11.72867 
268 ,53.4270 ,1.52831 ,1.18165 ,11.59436 
269 ,53.6191 ,1.53019 ,1.16112 ,11.39289 
270 ,53.7948 ,1.53210 ,1.14058 ,11.19142 
271 ,53.9874 ,1.53390 ,1.13374 ,11.12426 
272 ,54.1955 ,1.53602 ,1.11663 ,10.95637 
273 ,54.3871 ,1.53787 ,1.09610 ,10.75490 
274 ,54.5797 ,1.53978 ,1.10636 ,10.85563 
275 ,54.7717 ,1.54177 ,1.07214 ,10.51985 
276 ,54.9637 ,1.54362 ,1.09267 ,10.72132 
277 ,55.1559 ,1.54558 ,1.05161 ,10.31838 
278 ,55.3479 ,1.54747 ,1.04819 ,10.28480 
279 ,55.5235 ,1.54940 ,1.04134 ,10.21765 
280 ,55.7161 ,1.55116 ,1.02423 ,10.04976 
281 ,55.9081 ,1.55310 ,1.01739 ,9.98260 
282 ,56.1322 ,1.55527 ,1.00370 ,9.84829 
283 ,56.3402 ,1.55741 ,0.98317 ,9.64682 
284 ,56.5324 ,1.55938 ,0.96948 ,9.51250 
285 ,56.7240 ,1.56123 ,0.95921 ,9.41177 
286 ,56.9165 ,1.56314 ,0.94552 ,9.27745 
287 ,57.1084 ,1.56507 ,0.92157 ,9.04241 
288 ,57.3167 ,1.56715 ,0.91472 ,8.97525 
289 ,57.5085 ,1.56909 ,0.90446 ,8.87451 
290 ,57.7008 ,1.57106 ,0.90446 ,8.87451 
291 ,57.9088 ,1.57307 ,0.88392 ,8.67305 
292 ,58.1008 ,1.57506 ,0.87366 ,8.57231 
293 ,58.2931 ,1.57697 ,0.85312 ,8.37084 
294 ,58.4851 ,1.57885 ,0.85654 ,8.40442 
295 ,58.6775 ,1.58078 ,0.83259 ,8.16937 
296 ,58.8853 ,1.58288 ,0.82575 ,8.10221 
297 ,59.0774 ,1.58474 ,0.80863 ,7.93432 
298 ,59.2693 ,1.58672 ,0.79495 ,7.80001 
299 ,59.4614 ,1.58863 ,0.79495 ,7.80001 
300 ,59.6534 ,1.59059 ,0.76757 ,7.53138 
301 ,59.8456 ,1.59245 ,0.77441 ,7.59854 
302 ,60.0378 ,1.59432 ,0.74704 ,7.32991 
303 ,60.2299 ,1.59627 ,0.74019 ,7.26276 
304 ,60.4219 ,1.59822 ,0.73335 ,7.19560 
305 ,60.6300 ,1.60027 ,0.70597 ,6.92697 
306 ,60.8221 ,1.60223 ,0.71624 ,7.02771 
307 ,61.0141 ,1.60419 ,0.67859 ,6.65835 
308 ,61.2222 ,1.60623 ,0.68544 ,6.72550 
309 ,61.4140 ,1.60815 ,0.66148 ,6.49046 
310 ,61.6064 ,1.61010 ,0.67175 ,6.59119 
311 ,61.7983 ,1.61201 ,0.64095 ,6.28899 
312 ,61.9906 ,1.61385 ,0.62726 ,6.15467 
313 ,62.1827 ,1.61585 ,0.63753 ,6.25541 
314 ,62.3747 ,1.61776 ,0.59646 ,5.85247 
315 ,62.5667 ,1.61968 ,0.60673 ,5.95320 
316 ,62.7588 ,1.62156 ,0.58277 ,5.71815 
317 ,62.9509 ,1.62347 ,0.57593 ,5.65100 
318 ,63.1589 ,1.62558 ,0.55882 ,5.48311 
319 ,63.3511 ,1.62749 ,0.55197 ,5.41595 
320 ,63.5588 ,1.62950 ,0.55197 ,5.41595 
321 ,63.7348 ,1.63147 ,0.52117 ,5.11375 
322 ,63.9270 ,1.63328 ,0.51091 ,5.01301 
323 ,64.1193 ,1.63519 ,0.51091 ,5.01301 
324 ,64.3114 ,1.63711 ,0.48695 ,4.77796 
325 ,64.5034 ,1.63912 ,0.47668 ,4.67723 
326 ,64.6792 ,1.64087 ,0.45273 ,4.44218 
327 ,64.8720 ,1.64274 ,0.45615 ,4.47576 
328 ,65.0797 ,1.64475 ,0.43220 ,4.24071 
329 ,65.2719 ,1.64670 ,0.43220 ,4.24071 
330 ,65.4799 ,1.64879 ,0.42193 ,4.13997 
331 ,65.6876 ,1.65083 ,0.41851 ,4.10640 
332 ,65.8800 ,1.65275 ,0.40482 ,3.97208 
333 ,66.0881 ,1.65482 ,0.39797 ,3.90493 
334 ,66.2803 ,1.65673 ,0.37060 ,3.63630 
335 ,66.4719 ,1.65870 ,0.35349 ,3.46841 
336 ,66.6643 ,1.66061 ,0.36033 ,3.53557 
337 ,66.8721 ,1.66268 ,0.33295 ,3.26694 
338 ,67.0645 ,1.66462 ,0.33980 ,3.33410 
339 ,67.2567 ,1.66651 ,0.31242 ,3.06547 
340 ,67.4967 ,1.66874 ,0.31584 ,3.09905 
341 ,67.6889 ,1.67081 ,0.29873 ,2.93116 
342 ,67.8965 ,1.67297 ,0.27478 ,2.69611 
343 ,68.0889 ,1.67492 ,0.27820 ,2.72969 
344 ,68.2969 ,1.67692 ,0.25082 ,2.46106 
345 ,68.5053 ,1.67900 ,0.25424 ,2.49464 
346 ,68.6973 ,1.68094 ,0.23029 ,2.25959 
347 ,68.8894 ,1.68284 ,0.22002 ,2.15885 
348 ,69.0815 ,1.68477 ,0.21318 ,2.09170 
349 ,69.2894 ,1.68683 ,0.22687 ,2.22601 
350 ,69.4812 ,1.68880 ,0.20976 ,2.05812 
351 ,69.6733 ,1.69074 ,0.18238 ,1.78949 
352 ,69.8654 ,1.69260 ,0.18238 ,1.78949 
353 ,70.0574 ,1.69454 ,0.16185 ,1.58802 
354 ,70.2494 ,1.69648 ,0.14816 ,1.45371 
355 ,70.4255 ,1.69833 ,0.15500 ,1.52087 
356 ,70.8582 ,1.70139 ,0.12762 ,1.25224 
357 ,71.0662 ,1.70464 ,0.12420 ,1.21866 
358 ,71.2578 ,1.70652 ,0.08998 ,0.88288 
359 ,71.4504 ,1.70843 ,0.09340 ,0.91646 
360 ,71.6424 ,1.71038 ,0.07971 ,0.78214 
361 ,71.8347 ,1.71231 ,0.05918 ,0.58067 
362 ,72.0266 ,1.71420 ,0.05918 ,0.58067 
363 ,72.2348 ,1.71620 ,0.04891 ,0.47994 
364 ,72.4266 ,1.71825 ,0.04207 ,0.41278 
365 ,72.6189 ,1.72016 ,0.01811 ,0.17773 
366 ,72.8267 ,1.72222 ,0.02496 ,0.24489 
367 ,73.0352 ,1.72420 ,-0.00584 ,-0.05731 
368 ,73.2432 ,1.72639 ,-0.00584 ,-0.05731 
369 ,73.4348 ,1.72827 ,-0.03664 ,-0.35952 
370 ,73.6275 ,1.73019 ,-0.01269 ,-0.12447 
371 ,73.8514 ,1.73236 ,-0.04691 ,-0.46025 
372 ,74.0435 ,1.73435 ,-0.05033 ,-0.49383 
373 ,74.2356 ,1.73644 ,-0.05033 ,-0.49383 
374 ,74.4277 ,1.73819 ,-0.06060 ,-0.59457 
375 ,74.6197 ,1.74018 ,-0.08113 ,-0.79604 
376 ,74.8278 ,1.74220 ,-0.07428 ,-0.72888 
377 ,75.0199 ,1.74410 ,-0.10851 ,-1.06466 
378 ,75.2280 ,1.74620 ,-0.10508 ,-1.03108 
379 ,75.4361 ,1.74818 ,-0.14615 ,-1.43402 
380 ,75.6441 ,1.75036 ,-0.13246 ,-1.29971 
381 ,75.8363 ,1.75227 ,-0.15299 ,-1.50118 
382 ,76.0442 ,1.75442 ,-0.15299 ,-1.50118 
383 ,76.2524 ,1.75633 ,-0.17353 ,-1.70265 
384 ,76.4445 ,1.75838 ,-0.16668 ,-1.63549 
385 ,76.6364 ,1.76030 ,-0.19748 ,-1.93770 
386 ,76.8447 ,1.76237 ,-0.19748 ,-1.93770 
387 ,77.0685 ,1.76458 ,-0.19406 ,-1.90412 
388 ,77.2608 ,1.76654 ,-0.22486 ,-2.20632 
389 ,77.4527 ,1.76847 ,-0.23855 ,-2.34064 
390 ,77.6450 ,1.77035 ,-0.22486 ,-2.20632 
391 ,77.8366 ,1.77229 ,-0.25224 ,-2.47495 
392 ,78.0288 ,1.77421 ,-0.24539 ,-2.40779 
393 ,78.2048 ,1.77606 ,-0.26593 ,-2.60926 
394 ,78.3969 ,1.77784 ,-0.28304 ,-2.77716 
395 ,78.5894 ,1.77981 ,-0.27277 ,-2.67642 
396 ,78.7976 ,1.78191 ,-0.30357 ,-2.97863 
397 ,78.9893 ,1.78383 ,-0.28646 ,-2.81073 
398 ,79.1975 ,1.78587 ,-0.30357 ,-2.97863 
399 ,79.3896 ,1.78781 ,-0.30699 ,-3.01220 
400 ,79.6138 ,1.78998 ,-0.33779 ,-3.31441 
401 ,79.8376 ,1.79220 ,-0.33779 ,-3.31441 
402 ,80.0295 ,1.79424 ,-0.35832 ,-3.51588 
403 ,80.2218 ,1.79612 ,-0.36517 ,-3.58303 
404 ,80.4140 ,1.79810 ,-0.37886 ,-3.71735 
405 ,80.6062 ,1.79997 ,-0.37886 ,-3.71735 
406 ,80.7980 ,1.80189 ,-0.39597 ,-3.88524 
407 ,80.9904 ,1.80380 ,-0.38912 ,-3.81808 
408 ,81.1824 ,1.80574 ,-0.40966 ,-4.01955 
409 ,81.3905 ,1.80779 ,-0.40623 ,-3.98597 
410 ,81.5825 ,1.80973 ,-0.43019 ,-4.22102 
411 ,81.7747 ,1.81167 ,-0.43703 ,-4.28818 
412 ,81.9986 ,1.81380 ,-0.45414 ,-4.45607 
413 ,82.1743 ,1.81575 ,-0.44046 ,-4.32176 
414 ,82.3669 ,1.81762 ,-0.45414 ,-4.45607 
415 ,82.5749 ,1.81967 ,-0.47468 ,-4.65754 
416 ,82.7670 ,1.82161 ,-0.47468 ,-4.65754 
417 ,82.9751 ,1.82361 ,-0.49863 ,-4.89259 
418 ,83.1831 ,1.82573 ,-0.49863 ,-4.89259 
419 ,83.3755 ,1.82769 ,-0.51232 ,-5.02690 
420 ,83.5834 ,1.82974 ,-0.52943 ,-5.19479 
421 ,83.7754 ,1.83165 ,-0.53970 ,-5.29553 
422 ,83.9674 ,1.83356 ,-0.53970 ,-5.29553 
423 ,84.1595 ,1.83546 ,-0.54654 ,-5.36268 
424 ,84.3673 ,1.83763 ,-0.54312 ,-5.32911 
425 ,84.5597 ,1.83946 ,-0.58761 ,-5.76562 
426 ,84.7517 ,1.84142 ,-0.57392 ,-5.63131 
427 ,84.9597 ,1.84346 ,-0.59788 ,-5.86636 
428 ,85.1519 ,1.84540 ,-0.59445 ,-5.83278 
429 ,85.3441 ,1.84728 ,-0.61499 ,-6.03425 
430 ,85.5358 ,1.84923 ,-0.60814 ,-5.96709 
431 ,85.7280 ,1.85126 ,-0.60814 ,-5.96709 
432 ,85.9361 ,1.85321 ,-0.62525 ,-6.13499 
433 ,86.1282 ,1.85519 ,-0.62868 ,-6.16856 
434 ,86.3202 ,1.85712 ,-0.65947 ,-6.47077 
435 ,86.5281 ,1.85913 ,-0.65605 ,-6.43719 
436 ,86.7203 ,1.86117 ,-0.66290 ,-6.50435 
437 ,86.9286 ,1.86316 ,-0.66974 ,-6.57150 
438 ,87.1207 ,1.86515 ,-0.69027 ,-6.77297 
439 ,87.3286 ,1.86714 ,-0.67659 ,-6.63866 
440 ,87.5209 ,1.86905 ,-0.71765 ,-7.04160 
441 ,87.7290 ,1.87118 ,-0.70739 ,-6.94086 
442 ,87.9371 ,1.87325 ,-0.72792 ,-7.14233 
443 ,88.1292 ,1.87516 ,-0.72450 ,-7.10876 
444 ,88.3372 ,1.87723 ,-0.74845 ,-7.34380 
445 ,88.5291 ,1.87920 ,-0.73476 ,-7.20949 
446 ,88.7050 ,1.88105 ,-0.76898 ,-7.54527 
447 ,88.8976 ,1.88287 ,-0.76898 ,-7.54527 
448 ,89.1056 ,1.88493 ,-0.77241 ,-7.57885 
449 ,89.2977 ,1.88684 ,-0.78952 ,-7.74674 
450 ,89.4896 ,1.88876 ,-0.78952 ,-7.74674 
451 ,89.6821 ,1.89067 ,-0.81689 ,-8.01537 
452 ,89.8734 ,1.89261 ,-0.81689 ,-8.01537 
453 ,90.0820 ,1.89465 ,-0.82374 ,-8.08253 
454 ,90.2741 ,1.89660 ,-0.82716 ,-8.11611 
455 ,90.4662 ,1.89854 ,-0.83743 ,-8.21684 
456 ,90.6582 ,1.90043 ,-0.85796 ,-8.41831 
457 ,90.8665 ,1.90253 ,-0.85454 ,-8.38473 
458 ,91.0585 ,1.90447 ,-0.86138 ,-8.45189 
459 ,91.2666 ,1.90653 ,-0.86823 ,-8.51904 
460 ,91.4586 ,1.90844 ,-0.89903 ,-8.82125 
461 ,91.6668 ,1.91055 ,-0.87849 ,-8.61978 
462 ,91.8750 ,1.91262 ,-0.89903 ,-8.82125 
463 ,92.0828 ,1.91460 ,-0.91614 ,-8.98914 
