Data stamp = , 29-04-2022 12:54:36 872

Calibration Values: 
Slope = , 26.54 , g/V 
Offset Voltage at no contact = , -0.501760 , V 

No , Time , Stage Position ,   Mass , Force 
   ,  (s) ,      (mm)      ,   (g)  , (mN)  

1 ,0.0000 ,1.04962 ,5.13083 ,50.34372 
2 ,0.2086 ,1.04969 ,5.10688 ,50.10867 
3 ,0.7364 ,1.05170 ,5.11030 ,50.14225 
4 ,0.9606 ,1.05387 ,5.11714 ,50.20940 
5 ,1.1689 ,1.05597 ,5.11030 ,50.14225 
6 ,1.3610 ,1.05789 ,5.11372 ,50.17583 
7 ,1.5531 ,1.05986 ,5.10345 ,50.07509 
8 ,1.7607 ,1.06193 ,5.07265 ,49.77289 
9 ,1.9532 ,1.06387 ,5.04528 ,49.50426 
10 ,2.1611 ,1.06597 ,5.03501 ,49.40352 
11 ,2.3531 ,1.06789 ,5.01790 ,49.23563 
12 ,2.5453 ,1.06982 ,4.99394 ,49.00058 
13 ,2.7534 ,1.07183 ,4.98026 ,48.86627 
14 ,2.9454 ,1.07380 ,4.96657 ,48.73196 
15 ,3.1378 ,1.07576 ,4.93919 ,48.46333 
16 ,3.3618 ,1.07791 ,4.90839 ,48.16113 
17 ,3.5539 ,1.07984 ,4.90497 ,48.12755 
18 ,3.7458 ,1.08181 ,4.87759 ,47.85892 
19 ,3.9380 ,1.08378 ,4.87075 ,47.79177 
20 ,4.1460 ,1.08575 ,4.83995 ,47.48956 
21 ,4.3382 ,1.08772 ,4.83995 ,47.48956 
22 ,4.5304 ,1.08965 ,4.82626 ,47.35525 
23 ,4.7384 ,1.09172 ,4.79888 ,47.08662 
24 ,4.9463 ,1.09376 ,4.76466 ,46.75084 
25 ,5.1382 ,1.09569 ,4.76466 ,46.75084 
26 ,5.3306 ,1.09769 ,4.73728 ,46.48221 
27 ,5.5386 ,1.09971 ,4.72359 ,46.34790 
28 ,5.7308 ,1.10165 ,4.70306 ,46.14643 
29 ,5.9229 ,1.10365 ,4.68595 ,45.97854 
30 ,6.1148 ,1.10545 ,4.67911 ,45.91138 
31 ,6.2909 ,1.10733 ,4.64488 ,45.57560 
32 ,6.4992 ,1.10936 ,4.63462 ,45.47486 
33 ,6.7071 ,1.11147 ,4.62093 ,45.34055 
34 ,6.9153 ,1.11343 ,4.59697 ,45.10550 
35 ,7.1074 ,1.11538 ,4.55933 ,44.73614 
36 ,7.3151 ,1.11746 ,4.55933 ,44.73614 
37 ,7.5075 ,1.11940 ,4.53880 ,44.53467 
38 ,7.7152 ,1.12147 ,4.51142 ,44.26604 
39 ,7.9073 ,1.12341 ,4.50800 ,44.23247 
40 ,8.0997 ,1.12531 ,4.47378 ,43.89668 
41 ,8.3076 ,1.12740 ,4.47035 ,43.86310 
42 ,8.4837 ,1.12924 ,4.44298 ,43.59448 
43 ,8.6918 ,1.13112 ,4.43271 ,43.49374 
44 ,8.8997 ,1.13335 ,4.40533 ,43.22512 
45 ,9.0917 ,1.13520 ,4.40191 ,43.19154 
46 ,9.2839 ,1.13716 ,4.37453 ,42.92291 
47 ,9.4760 ,1.13914 ,4.35742 ,42.75502 
48 ,9.6841 ,1.14114 ,4.33004 ,42.48639 
49 ,9.8761 ,1.14312 ,4.32320 ,42.41924 
50 ,10.0846 ,1.14511 ,4.30609 ,42.25135 
51 ,10.3086 ,1.14737 ,4.27871 ,41.98272 
52 ,10.5166 ,1.14947 ,4.25476 ,41.74767 
53 ,10.7084 ,1.15134 ,4.24791 ,41.68051 
54 ,10.9009 ,1.15332 ,4.22396 ,41.44547 
55 ,11.0930 ,1.15524 ,4.20685 ,41.27758 
56 ,11.2851 ,1.15720 ,4.19316 ,41.14326 
57 ,11.4772 ,1.15906 ,4.16920 ,40.90821 
58 ,11.6688 ,1.16097 ,4.17605 ,40.97537 
59 ,11.8773 ,1.16303 ,4.13156 ,40.53885 
60 ,12.0853 ,1.16516 ,4.11103 ,40.33738 
61 ,12.2774 ,1.16707 ,4.09049 ,40.13591 
62 ,12.4696 ,1.16899 ,4.09049 ,40.13591 
63 ,12.6775 ,1.17107 ,4.05285 ,39.76655 
64 ,12.8696 ,1.17300 ,4.05285 ,39.76655 
65 ,13.0616 ,1.17491 ,4.02205 ,39.46435 
66 ,13.2538 ,1.17680 ,4.01178 ,39.36361 
67 ,13.4459 ,1.17875 ,3.98441 ,39.09499 
68 ,13.6540 ,1.18088 ,3.97756 ,39.02783 
69 ,13.8457 ,1.18281 ,3.96729 ,38.92709 
70 ,14.0382 ,1.18470 ,3.92623 ,38.52415 
71 ,14.2463 ,1.18673 ,3.91596 ,38.42342 
72 ,14.4383 ,1.18870 ,3.88858 ,38.15479 
73 ,14.6463 ,1.19072 ,3.88858 ,38.15479 
74 ,14.8384 ,1.19263 ,3.86805 ,37.95332 
75 ,15.0305 ,1.19470 ,3.86463 ,37.91975 
76 ,15.2386 ,1.19660 ,3.82014 ,37.48323 
77 ,15.4307 ,1.19855 ,3.83041 ,37.58396 
78 ,15.6228 ,1.20052 ,3.80645 ,37.34891 
79 ,15.8150 ,1.20245 ,3.77908 ,37.08029 
80 ,16.0066 ,1.20438 ,3.77565 ,37.04671 
81 ,16.1987 ,1.20629 ,3.73459 ,36.64377 
82 ,16.4069 ,1.20827 ,3.73459 ,36.64377 
83 ,16.6152 ,1.21043 ,3.70379 ,36.34157 
84 ,16.8068 ,1.21240 ,3.70037 ,36.30799 
85 ,16.9991 ,1.21432 ,3.67299 ,36.03936 
86 ,17.1911 ,1.21617 ,3.66957 ,36.00578 
87 ,17.3995 ,1.21817 ,3.63877 ,35.70358 
88 ,17.6077 ,1.22034 ,3.63534 ,35.67000 
89 ,17.7994 ,1.22232 ,3.60454 ,35.36779 
90 ,17.9917 ,1.22414 ,3.58401 ,35.16632 
91 ,18.1839 ,1.22610 ,3.58743 ,35.19990 
92 ,18.4080 ,1.22830 ,3.54979 ,34.83054 
93 ,18.6160 ,1.23045 ,3.53610 ,34.69623 
94 ,18.8082 ,1.23235 ,3.52241 ,34.56192 
95 ,19.0160 ,1.23438 ,3.51215 ,34.46118 
96 ,19.2078 ,1.23647 ,3.49504 ,34.29329 
97 ,19.4000 ,1.23825 ,3.48135 ,34.15898 
98 ,19.5924 ,1.24019 ,3.44370 ,33.78961 
99 ,19.8005 ,1.24225 ,3.43686 ,33.72246 
100 ,19.9924 ,1.24426 ,3.42317 ,33.58814 
101 ,20.2005 ,1.24625 ,3.40948 ,33.45383 
102 ,20.3923 ,1.24821 ,3.38210 ,33.18520 
103 ,20.5849 ,1.25017 ,3.37868 ,33.15163 
104 ,20.7928 ,1.25223 ,3.34788 ,32.84942 
105 ,21.0010 ,1.25431 ,3.34104 ,32.78227 
106 ,21.1929 ,1.25619 ,3.30682 ,32.44648 
107 ,21.3847 ,1.25816 ,3.30682 ,32.44648 
108 ,21.5771 ,1.26006 ,3.27944 ,32.17786 
109 ,21.7853 ,1.26197 ,3.27602 ,32.14428 
110 ,21.9930 ,1.26417 ,3.23837 ,31.77492 
111 ,22.1855 ,1.26611 ,3.24180 ,31.80849 
112 ,22.3776 ,1.26804 ,3.21442 ,31.53987 
113 ,22.5693 ,1.26995 ,3.18362 ,31.23766 
114 ,22.7617 ,1.27188 ,3.19731 ,31.37198 
115 ,22.9694 ,1.27393 ,3.15282 ,30.93546 
116 ,23.1615 ,1.27586 ,3.15624 ,30.96904 
117 ,23.3375 ,1.27777 ,3.13913 ,30.80115 
118 ,23.5297 ,1.27952 ,3.11860 ,30.59968 
119 ,23.7216 ,1.28154 ,3.12886 ,30.70041 
120 ,23.9142 ,1.28345 ,3.08438 ,30.26389 
121 ,24.1062 ,1.28535 ,3.08095 ,30.23031 
122 ,24.2983 ,1.28737 ,3.05015 ,29.92811 
123 ,24.5063 ,1.28931 ,3.04673 ,29.89453 
124 ,24.6982 ,1.29123 ,3.03647 ,29.79380 
125 ,24.8904 ,1.29310 ,2.99882 ,29.42444 
126 ,25.0825 ,1.29507 ,3.01251 ,29.55875 
127 ,25.2743 ,1.29696 ,2.97829 ,29.22297 
128 ,25.4668 ,1.29890 ,2.97487 ,29.18939 
129 ,25.6589 ,1.30080 ,2.96460 ,29.08865 
130 ,25.8507 ,1.30281 ,2.92353 ,28.68571 
131 ,26.0748 ,1.30491 ,2.93380 ,28.78645 
132 ,26.2832 ,1.30708 ,2.91669 ,28.61856 
133 ,26.4748 ,1.30900 ,2.88589 ,28.31635 
134 ,26.6669 ,1.31090 ,2.87220 ,28.18204 
135 ,26.8591 ,1.31285 ,2.86878 ,28.14846 
136 ,27.0675 ,1.31493 ,2.84140 ,27.87983 
137 ,27.2591 ,1.31684 ,2.83114 ,27.77910 
138 ,27.4675 ,1.31877 ,2.80718 ,27.54405 
139 ,27.6756 ,1.32097 ,2.81402 ,27.61121 
140 ,27.8677 ,1.32286 ,2.77296 ,27.20827 
141 ,28.0594 ,1.32486 ,2.78322 ,27.30900 
142 ,28.2517 ,1.32680 ,2.74558 ,26.93964 
143 ,28.4439 ,1.32869 ,2.73189 ,26.80533 
144 ,28.6359 ,1.33062 ,2.73874 ,26.87248 
145 ,28.8282 ,1.33259 ,2.70794 ,26.57028 
146 ,29.0202 ,1.33444 ,2.71478 ,26.63744 
147 ,29.2120 ,1.33633 ,2.66687 ,26.16734 
148 ,29.4041 ,1.33825 ,2.67372 ,26.23450 
149 ,29.5963 ,1.34018 ,2.65660 ,26.06661 
150 ,29.8045 ,1.34223 ,2.63265 ,25.83156 
151 ,30.0126 ,1.34438 ,2.62923 ,25.79798 
152 ,30.2046 ,1.34632 ,2.60185 ,25.52935 
153 ,30.4126 ,1.34840 ,2.60527 ,25.56293 
154 ,30.6209 ,1.35047 ,2.58474 ,25.36146 
155 ,30.8130 ,1.35238 ,2.57105 ,25.22715 
156 ,31.0211 ,1.35445 ,2.54025 ,24.92494 
157 ,31.2126 ,1.35646 ,2.51287 ,24.65632 
158 ,31.3887 ,1.35824 ,2.50603 ,24.58916 
159 ,31.5811 ,1.36002 ,2.50945 ,24.62274 
160 ,31.7728 ,1.36197 ,2.50261 ,24.55558 
161 ,31.9648 ,1.36391 ,2.46839 ,24.21980 
162 ,32.1569 ,1.36582 ,2.46154 ,24.15264 
163 ,32.3491 ,1.36774 ,2.44443 ,23.98475 
164 ,32.5416 ,1.36961 ,2.43074 ,23.85044 
165 ,32.7336 ,1.37159 ,2.41363 ,23.68255 
166 ,32.9256 ,1.37347 ,2.38968 ,23.44750 
167 ,33.1179 ,1.37536 ,2.38968 ,23.44750 
168 ,33.3099 ,1.37735 ,2.38283 ,23.38034 
169 ,33.5016 ,1.37921 ,2.34861 ,23.04456 
170 ,33.7102 ,1.38124 ,2.35545 ,23.11171 
171 ,33.9182 ,1.38335 ,2.32808 ,22.84309 
172 ,34.1102 ,1.38535 ,2.32465 ,22.80951 
173 ,34.3024 ,1.38723 ,2.29043 ,22.47373 
174 ,34.5104 ,1.38924 ,2.28359 ,22.40657 
175 ,34.7022 ,1.39127 ,2.26990 ,22.27226 
176 ,34.9105 ,1.39325 ,2.24937 ,22.07079 
177 ,35.1025 ,1.39523 ,2.23226 ,21.90290 
178 ,35.3106 ,1.39733 ,2.23226 ,21.90290 
179 ,35.5028 ,1.39925 ,2.18777 ,21.46638 
180 ,35.6944 ,1.40118 ,2.21172 ,21.70143 
181 ,35.8869 ,1.40309 ,2.17408 ,21.33206 
182 ,36.0947 ,1.40513 ,2.17408 ,21.33206 
183 ,36.3031 ,1.40724 ,2.14328 ,21.02986 
184 ,36.4949 ,1.40917 ,2.13986 ,20.99628 
185 ,36.6874 ,1.41109 ,2.12275 ,20.82839 
186 ,36.8791 ,1.41307 ,2.09879 ,20.59334 
187 ,37.0714 ,1.41488 ,2.10906 ,20.69408 
188 ,37.2632 ,1.41683 ,2.07484 ,20.35829 
189 ,37.4551 ,1.41884 ,2.07484 ,20.35829 
190 ,37.6473 ,1.42067 ,2.05773 ,20.19040 
191 ,37.8393 ,1.42257 ,2.02693 ,19.88820 
192 ,38.0314 ,1.42459 ,2.03377 ,19.95535 
193 ,38.2235 ,1.42639 ,1.99955 ,19.61957 
194 ,38.3995 ,1.42832 ,1.99270 ,19.55241 
195 ,38.5917 ,1.43008 ,1.98586 ,19.48526 
196 ,38.7838 ,1.43205 ,1.96875 ,19.31737 
197 ,38.9758 ,1.43399 ,1.94822 ,19.11590 
198 ,39.1678 ,1.43591 ,1.94479 ,19.08232 
199 ,39.3600 ,1.43781 ,1.91742 ,18.81369 
200 ,39.5520 ,1.43970 ,1.91742 ,18.81369 
201 ,39.7441 ,1.44161 ,1.91742 ,18.81369 
202 ,39.9360 ,1.44356 ,1.88662 ,18.51149 
203 ,40.1281 ,1.44549 ,1.87977 ,18.44433 
204 ,40.3203 ,1.44738 ,1.85924 ,18.24286 
205 ,40.5124 ,1.44934 ,1.84897 ,18.14213 
206 ,40.7045 ,1.45120 ,1.85240 ,18.17570 
207 ,40.8966 ,1.45315 ,1.79422 ,17.60487 
208 ,41.0727 ,1.45503 ,1.80449 ,17.70561 
209 ,41.2967 ,1.45699 ,1.79764 ,17.63845 
210 ,41.4888 ,1.45907 ,1.79080 ,17.57129 
211 ,41.6648 ,1.46095 ,1.75315 ,17.20193 
212 ,41.8569 ,1.46276 ,1.74973 ,17.16836 
213 ,42.0490 ,1.46471 ,1.74289 ,17.10120 
214 ,42.2413 ,1.46665 ,1.73604 ,17.03404 
215 ,42.4654 ,1.46884 ,1.71551 ,16.83257 
216 ,42.6576 ,1.47085 ,1.68471 ,16.53037 
217 ,42.8655 ,1.47283 ,1.69840 ,16.66468 
218 ,43.0576 ,1.47471 ,1.67102 ,16.39605 
219 ,43.2658 ,1.47682 ,1.66418 ,16.32890 
220 ,43.4579 ,1.47876 ,1.61969 ,15.89238 
221 ,43.6500 ,1.48064 ,1.63680 ,16.06027 
222 ,43.8420 ,1.48258 ,1.62653 ,15.95954 
223 ,44.0342 ,1.48456 ,1.60258 ,15.72449 
224 ,44.2260 ,1.48649 ,1.60258 ,15.72449 
225 ,44.4184 ,1.48831 ,1.57862 ,15.48944 
226 ,44.6102 ,1.49026 ,1.56836 ,15.38871 
227 ,44.8024 ,1.49223 ,1.55467 ,15.25439 
228 ,44.9945 ,1.49417 ,1.52387 ,14.95219 
229 ,45.1867 ,1.49605 ,1.53413 ,15.05292 
230 ,45.3787 ,1.49802 ,1.49991 ,14.71714 
231 ,45.5704 ,1.49993 ,1.49307 ,14.64998 
232 ,45.7790 ,1.50188 ,1.48965 ,14.61640 
233 ,45.9870 ,1.50404 ,1.48280 ,14.54925 
234 ,46.1789 ,1.50595 ,1.43831 ,14.11273 
235 ,46.4029 ,1.50819 ,1.43831 ,14.11273 
236 ,46.5951 ,1.51013 ,1.42805 ,14.01199 
237 ,46.7874 ,1.51198 ,1.41436 ,13.87768 
238 ,46.9952 ,1.51408 ,1.39040 ,13.64263 
239 ,47.2035 ,1.51622 ,1.38698 ,13.60906 
240 ,47.3955 ,1.51815 ,1.35276 ,13.27327 
241 ,47.5877 ,1.52004 ,1.35618 ,13.30685 
242 ,47.7953 ,1.52211 ,1.33223 ,13.07180 
243 ,48.0037 ,1.52409 ,1.33565 ,13.10538 
244 ,48.1958 ,1.52616 ,1.31512 ,12.90391 
245 ,48.4038 ,1.52815 ,1.31854 ,12.93749 
246 ,48.6117 ,1.53029 ,1.26720 ,12.43381 
247 ,48.7881 ,1.53215 ,1.27747 ,12.53455 
248 ,48.9801 ,1.53399 ,1.28089 ,12.56813 
249 ,49.1720 ,1.53593 ,1.24667 ,12.23235 
250 ,49.3643 ,1.53781 ,1.24325 ,12.19877 
251 ,49.5723 ,1.53988 ,1.21245 ,11.89656 
252 ,49.7643 ,1.54185 ,1.21245 ,11.89656 
253 ,49.9720 ,1.54392 ,1.18165 ,11.59436 
254 ,50.1645 ,1.54577 ,1.18850 ,11.66151 
255 ,50.3565 ,1.54768 ,1.17138 ,11.49362 
256 ,50.5647 ,1.54969 ,1.15085 ,11.29215 
257 ,50.7408 ,1.55167 ,1.14743 ,11.25857 
258 ,50.9329 ,1.55345 ,1.12347 ,11.02353 
259 ,51.1249 ,1.55531 ,1.11321 ,10.92279 
260 ,51.3331 ,1.55746 ,1.11321 ,10.92279 
261 ,51.5409 ,1.55958 ,1.09267 ,10.72132 
262 ,51.7332 ,1.56147 ,1.08583 ,10.65416 
263 ,51.9251 ,1.56340 ,1.05161 ,10.31838 
264 ,52.1170 ,1.56534 ,1.05503 ,10.35196 
265 ,52.3093 ,1.56728 ,1.03450 ,10.15049 
266 ,52.5175 ,1.56929 ,1.03108 ,10.11691 
267 ,52.7095 ,1.57125 ,1.01054 ,9.91544 
268 ,52.9177 ,1.57334 ,1.01054 ,9.91544 
269 ,53.1256 ,1.57538 ,0.97632 ,9.57966 
270 ,53.3017 ,1.57725 ,0.97632 ,9.57966 
271 ,53.4942 ,1.57906 ,0.95579 ,9.37819 
272 ,53.6859 ,1.58103 ,0.92841 ,9.10956 
273 ,53.8617 ,1.58288 ,0.94210 ,9.24388 
274 ,54.0542 ,1.58465 ,0.92157 ,9.04241 
275 ,54.2459 ,1.58659 ,0.89419 ,8.77378 
276 ,54.4384 ,1.58856 ,0.92157 ,9.04241 
277 ,54.6462 ,1.59057 ,0.87708 ,8.60589 
278 ,54.8384 ,1.59253 ,0.89077 ,8.74020 
279 ,55.0306 ,1.59444 ,0.85997 ,8.43800 
280 ,55.2223 ,1.59637 ,0.85654 ,8.40442 
281 ,55.4144 ,1.59825 ,0.85654 ,8.40442 
282 ,55.6066 ,1.60032 ,0.82917 ,8.13579 
283 ,55.7986 ,1.60213 ,0.83259 ,8.16937 
284 ,55.9911 ,1.60408 ,0.79152 ,7.76643 
285 ,56.1990 ,1.60614 ,0.78468 ,7.69927 
286 ,56.3910 ,1.60803 ,0.77099 ,7.56496 
287 ,56.5833 ,1.60997 ,0.75388 ,7.39707 
288 ,56.7750 ,1.61184 ,0.75730 ,7.43065 
289 ,56.9674 ,1.61381 ,0.73677 ,7.22918 
290 ,57.1755 ,1.61590 ,0.73677 ,7.22918 
291 ,57.3835 ,1.61795 ,0.70255 ,6.89340 
292 ,57.5752 ,1.61991 ,0.71624 ,7.02771 
293 ,57.7678 ,1.62181 ,0.68201 ,6.69193 
294 ,57.9598 ,1.62382 ,0.68201 ,6.69193 
295 ,58.1518 ,1.62563 ,0.67517 ,6.62477 
296 ,58.3437 ,1.62754 ,0.64437 ,6.32256 
297 ,58.5521 ,1.62965 ,0.64779 ,6.35614 
298 ,58.7439 ,1.63154 ,0.62384 ,6.12109 
299 ,58.9360 ,1.63344 ,0.61699 ,6.05394 
300 ,59.1282 ,1.63541 ,0.60673 ,5.95320 
301 ,59.3204 ,1.63729 ,0.57935 ,5.68458 
302 ,59.5125 ,1.63924 ,0.59304 ,5.81889 
303 ,59.7045 ,1.64114 ,0.56566 ,5.55026 
304 ,59.8804 ,1.64303 ,0.55882 ,5.48311 
305 ,60.0727 ,1.64481 ,0.55539 ,5.44953 
306 ,60.2648 ,1.64678 ,0.53144 ,5.21448 
307 ,60.4891 ,1.64901 ,0.52459 ,5.14732 
308 ,60.6970 ,1.65097 ,0.50064 ,4.91228 
309 ,60.8887 ,1.65301 ,0.50406 ,4.94585 
310 ,61.0811 ,1.65492 ,0.46642 ,4.57649 
311 ,61.2732 ,1.65682 ,0.47668 ,4.67723 
312 ,61.4813 ,1.65893 ,0.45957 ,4.50934 
313 ,61.6893 ,1.66105 ,0.44588 ,4.37502 
314 ,61.8811 ,1.66291 ,0.43220 ,4.24071 
315 ,62.0735 ,1.66482 ,0.43562 ,4.27429 
316 ,62.2817 ,1.66690 ,0.39797 ,3.90493 
317 ,62.4736 ,1.66883 ,0.40482 ,3.97208 
318 ,62.6657 ,1.67074 ,0.37402 ,3.66988 
319 ,62.8418 ,1.67263 ,0.38086 ,3.73703 
320 ,63.0335 ,1.67444 ,0.37060 ,3.63630 
321 ,63.2260 ,1.67636 ,0.36033 ,3.53557 
322 ,63.4341 ,1.67846 ,0.33980 ,3.33410 
323 ,63.6261 ,1.68039 ,0.32611 ,3.19978 
324 ,63.8341 ,1.68246 ,0.31584 ,3.09905 
325 ,64.0102 ,1.68432 ,0.30900 ,3.03189 
326 ,64.2019 ,1.68614 ,0.27820 ,2.72969 
327 ,64.4105 ,1.68824 ,0.29189 ,2.86400 
328 ,64.6184 ,1.69028 ,0.27135 ,2.66253 
329 ,64.8265 ,1.69237 ,0.26451 ,2.59537 
330 ,65.0025 ,1.69420 ,0.23371 ,2.29317 
331 ,65.1944 ,1.69606 ,0.22687 ,2.22601 
332 ,65.3868 ,1.69799 ,0.23371 ,2.29317 
333 ,65.5947 ,1.70006 ,0.22344 ,2.19243 
334 ,65.8025 ,1.70210 ,0.20291 ,1.99096 
335 ,65.9949 ,1.70398 ,0.18922 ,1.85665 
336 ,66.2029 ,1.70600 ,0.18922 ,1.85665 
337 ,66.3950 ,1.70801 ,0.16185 ,1.58802 
338 ,66.5873 ,1.70995 ,0.16527 ,1.62160 
339 ,66.7954 ,1.71191 ,0.14473 ,1.42013 
340 ,66.9872 ,1.71394 ,0.13447 ,1.31940 
341 ,67.1795 ,1.71585 ,0.11051 ,1.08435 
342 ,67.3715 ,1.71786 ,0.11393 ,1.11793 
343 ,67.5637 ,1.71980 ,0.10709 ,1.05077 
344 ,67.7717 ,1.72183 ,0.08998 ,0.88288 
345 ,67.9636 ,1.72373 ,0.07629 ,0.74857 
346 ,68.1718 ,1.72576 ,0.07629 ,0.74857 
347 ,68.3641 ,1.72774 ,0.05576 ,0.54710 
348 ,68.5558 ,1.72977 ,0.04207 ,0.41278 
349 ,68.7481 ,1.73150 ,0.04891 ,0.47994 
350 ,68.9563 ,1.73368 ,0.01811 ,0.17773 
351 ,69.1643 ,1.73579 ,0.02154 ,0.21131 
352 ,69.3723 ,1.73787 ,-0.00926 ,-0.09089 
353 ,69.5641 ,1.73977 ,-0.00242 ,-0.02373 
354 ,69.7567 ,1.74171 ,-0.03664 ,-0.35952 
355 ,69.9645 ,1.74366 ,-0.02637 ,-0.25878 
356 ,70.1567 ,1.74569 ,-0.04691 ,-0.46025 
357 ,70.3649 ,1.74773 ,-0.05717 ,-0.56099 
358 ,70.5568 ,1.74962 ,-0.07771 ,-0.76246 
359 ,70.7490 ,1.75153 ,-0.08113 ,-0.79604 
360 ,70.9412 ,1.75348 ,-0.09824 ,-0.96393 
361 ,71.1332 ,1.75542 ,-0.11193 ,-1.09824 
362 ,71.3250 ,1.75736 ,-0.09482 ,-0.93035 
363 ,71.5174 ,1.75926 ,-0.13588 ,-1.33329 
364 ,71.7094 ,1.76118 ,-0.13246 ,-1.29971 
365 ,71.9010 ,1.76309 ,-0.13246 ,-1.29971 
366 ,72.0935 ,1.76503 ,-0.15642 ,-1.53476 
367 ,72.2856 ,1.76691 ,-0.15984 ,-1.56834 
368 ,72.4938 ,1.76896 ,-0.18722 ,-1.83696 
369 ,72.7019 ,1.77096 ,-0.17695 ,-1.73623 
370 ,72.8933 ,1.77299 ,-0.19064 ,-1.87054 
371 ,73.0856 ,1.77492 ,-0.18037 ,-1.76981 
372 ,73.2939 ,1.77691 ,-0.20433 ,-2.00485 
373 ,73.4859 ,1.77893 ,-0.19406 ,-1.90412 
374 ,73.6783 ,1.78089 ,-0.19064 ,-1.87054 
375 ,73.8698 ,1.78278 ,-0.19406 ,-1.90412 
376 ,74.0624 ,1.78470 ,-0.17353 ,-1.70265 
377 ,74.2700 ,1.78675 ,-0.20090 ,-1.97128 
378 ,74.4625 ,1.78870 ,-0.17695 ,-1.73623 
379 ,74.6544 ,1.79064 ,-0.21802 ,-2.13917 
380 ,74.8464 ,1.79250 ,-0.20090 ,-1.97128 
381 ,75.0383 ,1.79447 ,-0.20775 ,-2.03843 
382 ,75.2306 ,1.79642 ,-0.21459 ,-2.10559 
383 ,75.4387 ,1.79839 ,-0.20433 ,-2.00485 
384 ,75.6309 ,1.80039 ,-0.22486 ,-2.20632 
385 ,75.8389 ,1.80243 ,-0.21459 ,-2.10559 
386 ,76.0471 ,1.80443 ,-0.23170 ,-2.27348 
387 ,76.2388 ,1.80649 ,-0.21117 ,-2.07201 
388 ,76.4312 ,1.80835 ,-0.24197 ,-2.37422 
389 ,76.6393 ,1.81037 ,-0.23513 ,-2.30706 
390 ,76.8313 ,1.81247 ,-0.23855 ,-2.34064 
391 ,77.0234 ,1.81431 ,-0.22486 ,-2.20632 
392 ,77.2312 ,1.81642 ,-0.22828 ,-2.23990 
393 ,77.4237 ,1.81824 ,-0.21117 ,-2.07201 
394 ,77.6158 ,1.82021 ,-0.22828 ,-2.23990 
395 ,77.8073 ,1.82212 ,-0.23855 ,-2.34064 
396 ,77.9998 ,1.82403 ,-0.23170 ,-2.27348 
397 ,78.1918 ,1.82598 ,-0.22828 ,-2.23990 
398 ,78.3680 ,1.82785 ,-0.23855 ,-2.34064 
399 ,78.5599 ,1.82966 ,-0.22144 ,-2.17275 
400 ,78.7522 ,1.83158 ,-0.23170 ,-2.27348 
401 ,78.9441 ,1.83349 ,-0.20775 ,-2.03843 
402 ,79.1524 ,1.83556 ,-0.22144 ,-2.17275 
403 ,79.3281 ,1.83747 ,-0.21117 ,-2.07201 
404 ,79.5200 ,1.83930 ,-0.21459 ,-2.10559 
405 ,79.7122 ,1.84114 ,-0.21802 ,-2.13917 
406 ,79.9041 ,1.84312 ,-0.19064 ,-1.87054 
407 ,80.0804 ,1.84497 ,-0.19406 ,-1.90412 
408 ,80.2724 ,1.84678 ,-0.20433 ,-2.00485 
409 ,80.4646 ,1.84868 ,-0.16668 ,-1.63549 
410 ,80.6887 ,1.85079 ,0.07971 ,0.78214 
411 ,80.8809 ,1.85286 ,0.56224 ,5.51668 
412 ,81.0732 ,1.85475 ,0.66833 ,6.55761 
413 ,81.2650 ,1.85672 ,0.66833 ,6.55761 
414 ,81.4569 ,1.85863 ,0.68544 ,6.72550 
415 ,81.6329 ,1.86047 ,0.65806 ,6.45688 
416 ,81.8253 ,1.86230 ,0.65806 ,6.45688 
417 ,82.0334 ,1.86436 ,0.66148 ,6.49046 
418 ,82.2415 ,1.86652 ,0.68201 ,6.69193 
419 ,82.4337 ,1.86834 ,0.67517 ,6.62477 
420 ,82.6255 ,1.87023 ,0.65464 ,6.42330 
421 ,82.8338 ,1.87233 ,0.66833 ,6.55761 
422 ,83.0094 ,1.87427 ,0.64095 ,6.28899 
423 ,83.2015 ,1.87599 ,0.66148 ,6.49046 
424 ,83.3936 ,1.87792 ,0.66833 ,6.55761 
425 ,83.6017 ,1.88006 ,0.65464 ,6.42330 
426 ,83.7938 ,1.88198 ,0.65121 ,6.38972 
427 ,84.0022 ,1.88404 ,0.63068 ,6.18825 
428 ,84.2105 ,1.88618 ,0.63068 ,6.18825 
429 ,84.4182 ,1.88819 ,0.64095 ,6.28899 
430 ,84.6101 ,1.89010 ,0.64437 ,6.32256 
431 ,84.8020 ,1.89202 ,0.61015 ,5.98678 
432 ,84.9782 ,1.89393 ,0.62726 ,6.15467 
433 ,85.1703 ,1.89576 ,0.61357 ,6.02036 
434 ,85.3944 ,1.89794 ,0.61357 ,6.02036 
435 ,85.5867 ,1.89990 ,0.60673 ,5.95320 
436 ,85.7946 ,1.90189 ,0.61015 ,5.98678 
437 ,85.9705 ,1.90387 ,0.58962 ,5.78531 
438 ,86.1627 ,1.90565 ,0.58962 ,5.78531 
439 ,86.3549 ,1.90755 ,0.61015 ,5.98678 
440 ,86.5633 ,1.90960 ,0.59304 ,5.81889 
441 ,86.7549 ,1.91153 ,0.61357 ,6.02036 
442 ,86.9314 ,1.91342 ,0.59646 ,5.85247 
443 ,87.1232 ,1.91520 ,0.58619 ,5.75173 
444 ,87.3316 ,1.91733 ,0.59988 ,5.88605 
445 ,87.5556 ,1.91946 ,0.58962 ,5.78531 
446 ,87.7477 ,1.92144 ,0.57251 ,5.61742 
447 ,87.9396 ,1.92343 ,0.58277 ,5.71815 
448 ,88.1319 ,1.92539 ,0.57251 ,5.61742 
449 ,88.3240 ,1.92725 ,0.57251 ,5.61742 
450 ,88.5159 ,1.92913 ,0.58962 ,5.78531 
451 ,88.7242 ,1.93125 ,0.56908 ,5.58384 
452 ,88.9163 ,1.93314 ,0.57593 ,5.65100 
453 ,89.1083 ,1.93505 ,0.56908 ,5.58384 
454 ,89.3002 ,1.93699 ,0.57593 ,5.65100 
455 ,89.5083 ,1.93910 ,0.59646 ,5.85247 
456 ,89.7006 ,1.94103 ,0.59988 ,5.88605 
457 ,89.8926 ,1.94292 ,0.62726 ,6.15467 
458 ,90.1006 ,1.94492 ,0.61357 ,6.02036 
459 ,90.2934 ,1.94696 ,0.66490 ,6.52403 
460 ,90.5008 ,1.94900 ,0.66148 ,6.49046 
461 ,90.6931 ,1.95092 ,0.67859 ,6.65835 
462 ,90.8851 ,1.95285 ,0.66490 ,6.52403 
463 ,91.0934 ,1.95492 ,0.66833 ,6.55761 
464 ,91.3008 ,1.95699 ,0.65121 ,6.38972 
465 ,91.4930 ,1.95890 ,0.66833 ,6.55761 
