Data stamp = , 29-04-2022 16:05:58 764

Calibration Values: 
Slope = , 26.54 , g/V 
Offset Voltage at no contact = , -0.501760 , V 

No , Time , Stage Position ,   Mass , Force 
   ,  (s) ,      (mm)      ,   (g)  , (mN)  

1 ,0.0000 ,0.99950 ,5.43540 ,53.33219 
2 ,0.2131 ,0.99959 ,5.42172 ,53.19787 
3 ,0.8693 ,1.00216 ,5.43540 ,53.33219 
4 ,1.0774 ,1.00490 ,5.45251 ,53.50008 
5 ,1.2854 ,1.00701 ,5.42514 ,53.23145 
6 ,1.4775 ,1.00896 ,5.40803 ,53.06356 
7 ,1.6696 ,1.01093 ,5.36696 ,52.66062 
8 ,1.8617 ,1.01283 ,5.38407 ,52.82851 
9 ,2.0540 ,1.01485 ,5.33958 ,52.39199 
10 ,2.2621 ,1.01688 ,5.34643 ,52.45915 
11 ,2.4541 ,1.01876 ,5.31221 ,52.12337 
12 ,2.6462 ,1.02065 ,5.30194 ,52.02263 
13 ,2.8381 ,1.02264 ,5.26772 ,51.68685 
14 ,3.0301 ,1.02452 ,5.26430 ,51.65327 
15 ,3.2223 ,1.02648 ,5.25061 ,51.51896 
16 ,3.4146 ,1.02836 ,5.20270 ,51.04886 
17 ,3.6064 ,1.03027 ,5.20270 ,51.04886 
18 ,3.8147 ,1.03240 ,5.17874 ,50.81381 
19 ,4.0069 ,1.03430 ,5.17190 ,50.74666 
20 ,4.2149 ,1.03638 ,5.12399 ,50.27656 
21 ,4.4228 ,1.03844 ,5.13083 ,50.34372 
22 ,4.6153 ,1.04039 ,5.08634 ,49.90720 
23 ,4.8233 ,1.04244 ,5.08634 ,49.90720 
24 ,5.0153 ,1.04435 ,5.05212 ,49.57142 
25 ,5.1910 ,1.04625 ,5.04528 ,49.50426 
26 ,5.3835 ,1.04808 ,5.04185 ,49.47068 
27 ,5.5913 ,1.05015 ,5.00079 ,49.06774 
28 ,5.7831 ,1.05212 ,4.99737 ,49.03416 
29 ,5.9918 ,1.05415 ,4.95630 ,48.63122 
30 ,6.1994 ,1.05625 ,4.94603 ,48.53049 
31 ,6.3756 ,1.05811 ,4.91866 ,48.26186 
32 ,6.5839 ,1.05993 ,4.93235 ,48.39618 
33 ,6.7758 ,1.06203 ,4.88786 ,47.95966 
34 ,6.9680 ,1.06391 ,4.86048 ,47.69103 
35 ,7.1602 ,1.06581 ,4.85706 ,47.65745 
36 ,7.3519 ,1.06776 ,4.82626 ,47.35525 
37 ,7.5443 ,1.06964 ,4.81941 ,47.28809 
38 ,7.7524 ,1.07173 ,4.78177 ,46.91873 
39 ,7.9445 ,1.07371 ,4.78861 ,46.98589 
40 ,8.1366 ,1.07560 ,4.75439 ,46.65010 
41 ,8.3287 ,1.07753 ,4.74413 ,46.54937 
42 ,8.5368 ,1.07958 ,4.72017 ,46.31432 
43 ,8.7449 ,1.08161 ,4.72017 ,46.31432 
44 ,8.9688 ,1.08394 ,4.67911 ,45.91138 
45 ,9.1766 ,1.08601 ,4.66884 ,45.81065 
46 ,9.3690 ,1.08791 ,4.65173 ,45.64275 
47 ,9.5447 ,1.08980 ,4.63462 ,45.47486 
48 ,9.7372 ,1.09161 ,4.60724 ,45.20624 
49 ,9.9452 ,1.09363 ,4.60382 ,45.17266 
50 ,10.1371 ,1.09559 ,4.57302 ,44.87045 
51 ,10.3294 ,1.09750 ,4.56275 ,44.76972 
52 ,10.5216 ,1.09941 ,4.55249 ,44.66898 
53 ,10.7137 ,1.10142 ,4.50800 ,44.23247 
54 ,10.9056 ,1.10330 ,4.51142 ,44.26604 
55 ,11.0975 ,1.10521 ,4.48062 ,43.96384 
56 ,11.3057 ,1.10725 ,4.47720 ,43.93026 
57 ,11.4977 ,1.10919 ,4.45666 ,43.72879 
58 ,11.7055 ,1.11126 ,4.44298 ,43.59448 
59 ,11.8981 ,1.11322 ,4.42586 ,43.42659 
60 ,12.1062 ,1.11525 ,4.39849 ,43.15796 
61 ,12.2979 ,1.11723 ,4.39164 ,43.09080 
62 ,12.4903 ,1.11913 ,4.34716 ,42.65429 
63 ,12.6824 ,1.12102 ,4.35058 ,42.68786 
64 ,12.8740 ,1.12293 ,4.31293 ,42.31850 
65 ,13.0664 ,1.12481 ,4.32662 ,42.45282 
66 ,13.2586 ,1.12672 ,4.29582 ,42.15061 
67 ,13.4666 ,1.12885 ,4.27529 ,41.94914 
68 ,13.6590 ,1.13074 ,4.24791 ,41.68051 
69 ,13.8670 ,1.13294 ,4.24107 ,41.61336 
70 ,14.0590 ,1.13484 ,4.23765 ,41.57978 
71 ,14.2671 ,1.13691 ,4.21369 ,41.34473 
72 ,14.4751 ,1.13901 ,4.17947 ,41.00895 
73 ,14.6672 ,1.14084 ,4.16578 ,40.87464 
74 ,14.8751 ,1.14293 ,4.14183 ,40.63959 
75 ,15.0511 ,1.14484 ,4.13840 ,40.60601 
76 ,15.2434 ,1.14659 ,4.13156 ,40.53885 
77 ,15.4353 ,1.14852 ,4.10076 ,40.23665 
78 ,15.6277 ,1.15045 ,4.08707 ,40.10233 
79 ,15.8358 ,1.15245 ,4.06654 ,39.90087 
80 ,16.0438 ,1.15465 ,4.04600 ,39.69940 
81 ,16.2361 ,1.15656 ,4.03574 ,39.59866 
82 ,16.4440 ,1.15865 ,4.02889 ,39.53150 
83 ,16.6360 ,1.16055 ,4.00152 ,39.26288 
84 ,16.8281 ,1.16243 ,3.98783 ,39.12856 
85 ,17.0362 ,1.16457 ,3.96045 ,38.85994 
86 ,17.2118 ,1.16644 ,3.94334 ,38.69205 
87 ,17.4205 ,1.16830 ,3.93650 ,38.62489 
88 ,17.6282 ,1.17045 ,3.90912 ,38.35626 
89 ,17.8208 ,1.17237 ,3.89543 ,38.22195 
90 ,18.0127 ,1.17431 ,3.86805 ,37.95332 
91 ,18.2206 ,1.17638 ,3.86805 ,37.95332 
92 ,18.4129 ,1.17835 ,3.84410 ,37.71828 
93 ,18.6210 ,1.18042 ,3.83041 ,37.58396 
94 ,18.8288 ,1.18246 ,3.80303 ,37.31534 
95 ,19.0211 ,1.18435 ,3.79619 ,37.24818 
96 ,19.2132 ,1.18635 ,3.78250 ,37.11387 
97 ,19.4049 ,1.18827 ,3.76881 ,36.97955 
98 ,19.5973 ,1.19009 ,3.74143 ,36.71093 
99 ,19.8049 ,1.19221 ,3.72774 ,36.57661 
100 ,19.9974 ,1.19412 ,3.71063 ,36.40872 
101 ,20.2051 ,1.19620 ,3.70379 ,36.34157 
102 ,20.3976 ,1.19814 ,3.67299 ,36.03936 
103 ,20.6217 ,1.20030 ,3.65588 ,35.87147 
104 ,20.8138 ,1.20231 ,3.63534 ,35.67000 
105 ,21.0219 ,1.20429 ,3.63877 ,35.70358 
106 ,21.2140 ,1.20630 ,3.59770 ,35.30064 
107 ,21.4060 ,1.20823 ,3.58059 ,35.13275 
108 ,21.5815 ,1.21014 ,3.59086 ,35.23348 
109 ,21.7739 ,1.21190 ,3.56006 ,34.93128 
110 ,21.9661 ,1.21385 ,3.54979 ,34.83054 
111 ,22.1742 ,1.21592 ,3.52584 ,34.59549 
112 ,22.3824 ,1.21801 ,3.52584 ,34.59549 
113 ,22.5744 ,1.21990 ,3.48819 ,34.22613 
114 ,22.7827 ,1.22201 ,3.48477 ,34.19255 
115 ,23.0065 ,1.22416 ,3.46081 ,33.95751 
116 ,23.2148 ,1.22634 ,3.43344 ,33.68888 
117 ,23.4068 ,1.22828 ,3.43001 ,33.65530 
118 ,23.5990 ,1.23012 ,3.40948 ,33.45383 
119 ,23.7906 ,1.23207 ,3.38210 ,33.18520 
120 ,23.9831 ,1.23394 ,3.38895 ,33.25236 
121 ,24.1749 ,1.23588 ,3.35473 ,32.91658 
122 ,24.3670 ,1.23784 ,3.33762 ,32.74869 
123 ,24.5593 ,1.23974 ,3.31708 ,32.54722 
124 ,24.7514 ,1.24169 ,3.29997 ,32.37933 
125 ,24.9434 ,1.24369 ,3.29313 ,32.31217 
126 ,25.1356 ,1.24550 ,3.27602 ,32.14428 
127 ,25.3275 ,1.24739 ,3.26917 ,32.07712 
128 ,25.5198 ,1.24933 ,3.25891 ,31.97639 
129 ,25.7115 ,1.25128 ,3.22811 ,31.67418 
130 ,25.9195 ,1.25324 ,3.22126 ,31.60702 
131 ,26.1281 ,1.25538 ,3.19388 ,31.33840 
132 ,26.3361 ,1.25756 ,3.18362 ,31.23766 
133 ,26.5281 ,1.25942 ,3.15282 ,30.93546 
134 ,26.7203 ,1.26138 ,3.16309 ,31.03619 
135 ,26.9283 ,1.26338 ,3.12202 ,30.63325 
136 ,27.1203 ,1.26549 ,3.10491 ,30.46536 
137 ,27.3125 ,1.26729 ,3.09806 ,30.39821 
138 ,27.5046 ,1.26921 ,3.09122 ,30.33105 
139 ,27.6967 ,1.27118 ,3.06726 ,30.09600 
140 ,27.9045 ,1.27312 ,3.05015 ,29.92811 
141 ,28.1124 ,1.27530 ,3.02962 ,29.72664 
142 ,28.3046 ,1.27718 ,3.02620 ,29.69306 
143 ,28.5131 ,1.27928 ,3.00567 ,29.49159 
144 ,28.7047 ,1.28119 ,2.99198 ,29.35728 
145 ,28.8971 ,1.28307 ,2.96460 ,29.08865 
146 ,29.1052 ,1.28517 ,2.95433 ,28.98792 
147 ,29.2810 ,1.28707 ,2.94064 ,28.85360 
148 ,29.4893 ,1.28890 ,2.92011 ,28.65213 
149 ,29.6814 ,1.29096 ,2.92696 ,28.71929 
150 ,29.8896 ,1.29303 ,2.89273 ,28.38351 
151 ,30.0816 ,1.29498 ,2.88589 ,28.31635 
152 ,30.2733 ,1.29692 ,2.85167 ,27.98057 
153 ,30.4819 ,1.29887 ,2.83456 ,27.81268 
154 ,30.7059 ,1.30110 ,2.81060 ,27.57763 
155 ,30.8981 ,1.30313 ,2.81402 ,27.61121 
156 ,31.1061 ,1.30520 ,2.79691 ,27.44332 
157 ,31.2983 ,1.30714 ,2.77296 ,27.20827 
158 ,31.5062 ,1.30919 ,2.76611 ,27.14111 
159 ,31.7144 ,1.31128 ,2.73874 ,26.87248 
160 ,31.9062 ,1.31317 ,2.72505 ,26.73817 
161 ,32.0985 ,1.31509 ,2.71136 ,26.60386 
162 ,32.2906 ,1.31703 ,2.70109 ,26.50312 
163 ,32.4822 ,1.31896 ,2.70794 ,26.57028 
164 ,32.6748 ,1.32090 ,2.67029 ,26.20092 
165 ,32.8506 ,1.32272 ,2.63607 ,25.86514 
166 ,33.0429 ,1.32450 ,2.65318 ,26.03303 
167 ,33.2349 ,1.32646 ,2.62581 ,25.76440 
168 ,33.4270 ,1.32839 ,2.62581 ,25.76440 
169 ,33.6186 ,1.33028 ,2.60185 ,25.52935 
170 ,33.7951 ,1.33218 ,2.56763 ,25.19357 
171 ,33.9872 ,1.33403 ,2.56763 ,25.19357 
172 ,34.1791 ,1.33595 ,2.55394 ,25.05926 
173 ,34.3711 ,1.33780 ,2.52656 ,24.79063 
174 ,34.5635 ,1.33971 ,2.53683 ,24.89136 
175 ,34.7555 ,1.34172 ,2.51287 ,24.65632 
176 ,34.9635 ,1.34375 ,2.49576 ,24.48842 
177 ,35.1557 ,1.34572 ,2.47523 ,24.28696 
178 ,35.3477 ,1.34761 ,2.44785 ,24.01833 
179 ,35.5398 ,1.34954 ,2.45127 ,24.05191 
180 ,35.7316 ,1.35139 ,2.42390 ,23.78328 
181 ,35.9240 ,1.35343 ,2.42390 ,23.78328 
182 ,36.1322 ,1.35545 ,2.38968 ,23.44750 
183 ,36.3402 ,1.35741 ,2.39310 ,23.48108 
184 ,36.5483 ,1.35958 ,2.36914 ,23.24603 
185 ,36.7403 ,1.36153 ,2.36914 ,23.24603 
186 ,36.9324 ,1.36338 ,2.32123 ,22.77593 
187 ,37.1405 ,1.36538 ,2.33834 ,22.94382 
188 ,37.3486 ,1.36754 ,2.29385 ,22.50731 
189 ,37.5406 ,1.36953 ,2.29728 ,22.54088 
190 ,37.7324 ,1.37139 ,2.28017 ,22.37299 
191 ,37.9244 ,1.37335 ,2.26648 ,22.23868 
192 ,38.1327 ,1.37542 ,2.23226 ,21.90290 
193 ,38.3252 ,1.37740 ,2.24594 ,22.03721 
194 ,38.5171 ,1.37926 ,2.22883 ,21.86932 
195 ,38.7248 ,1.38131 ,2.21515 ,21.73500 
196 ,38.9172 ,1.38326 ,2.19119 ,21.49996 
197 ,39.1090 ,1.38519 ,2.16381 ,21.23133 
198 ,39.2853 ,1.38707 ,2.17066 ,21.29849 
199 ,39.4774 ,1.38888 ,2.16723 ,21.26491 
200 ,39.6856 ,1.39089 ,2.12617 ,20.86197 
201 ,39.8773 ,1.39286 ,2.13301 ,20.92912 
202 ,40.0536 ,1.39472 ,2.11248 ,20.72766 
203 ,40.2457 ,1.39653 ,2.08852 ,20.49261 
204 ,40.4537 ,1.39860 ,2.06115 ,20.22398 
205 ,40.6619 ,1.40058 ,2.06799 ,20.29114 
206 ,40.8698 ,1.40280 ,2.02350 ,19.85462 
207 ,41.0623 ,1.40473 ,2.04746 ,20.08967 
208 ,41.2698 ,1.40679 ,2.00297 ,19.65315 
209 ,41.4783 ,1.40876 ,2.00982 ,19.72031 
210 ,41.6703 ,1.41080 ,1.99270 ,19.55241 
211 ,41.8621 ,1.41272 ,1.98928 ,19.51884 
212 ,42.0542 ,1.41466 ,1.96190 ,19.25021 
213 ,42.2467 ,1.41654 ,1.95506 ,19.18305 
214 ,42.4546 ,1.41861 ,1.93453 ,18.98158 
215 ,42.6468 ,1.42059 ,1.91057 ,18.74654 
216 ,42.8390 ,1.42249 ,1.90031 ,18.64580 
217 ,43.0310 ,1.42443 ,1.88319 ,18.47791 
218 ,43.2391 ,1.42638 ,1.88662 ,18.51149 
219 ,43.4308 ,1.42845 ,1.85924 ,18.24286 
220 ,43.6392 ,1.43040 ,1.85240 ,18.17570 
221 ,43.8472 ,1.43252 ,1.83186 ,17.97423 
222 ,44.0394 ,1.43445 ,1.82160 ,17.87350 
223 ,44.2473 ,1.43658 ,1.80449 ,17.70561 
224 ,44.4550 ,1.43858 ,1.78395 ,17.50414 
225 ,44.6470 ,1.44060 ,1.77026 ,17.36983 
226 ,44.8395 ,1.44246 ,1.77026 ,17.36983 
227 ,45.0959 ,1.44495 ,1.73946 ,17.06762 
228 ,45.3360 ,1.44743 ,1.72578 ,16.93331 
229 ,45.5279 ,1.44938 ,1.70524 ,16.73184 
230 ,45.7197 ,1.45138 ,1.69155 ,16.59752 
231 ,45.8961 ,1.45314 ,1.67444 ,16.42963 
232 ,46.0882 ,1.45495 ,1.67786 ,16.46321 
233 ,46.2963 ,1.45707 ,1.65049 ,16.19458 
234 ,46.4884 ,1.45898 ,1.63338 ,16.02669 
235 ,46.6960 ,1.46107 ,1.63338 ,16.02669 
236 ,46.8885 ,1.46295 ,1.60258 ,15.72449 
237 ,47.0806 ,1.46490 ,1.60600 ,15.75807 
238 ,47.2728 ,1.46683 ,1.58889 ,15.59018 
239 ,47.4808 ,1.46885 ,1.57520 ,15.45586 
240 ,47.6728 ,1.47078 ,1.55124 ,15.22081 
241 ,47.8808 ,1.47274 ,1.54440 ,15.15366 
242 ,48.0731 ,1.47474 ,1.52045 ,14.91861 
243 ,48.2651 ,1.47671 ,1.51018 ,14.81787 
244 ,48.4732 ,1.47881 ,1.48965 ,14.61640 
245 ,48.6652 ,1.48077 ,1.49307 ,14.64998 
246 ,48.8574 ,1.48267 ,1.48280 ,14.54925 
247 ,49.0491 ,1.48461 ,1.45542 ,14.28062 
248 ,49.2574 ,1.48666 ,1.46569 ,14.38136 
249 ,49.4496 ,1.48853 ,1.42805 ,14.01199 
250 ,49.6417 ,1.49048 ,1.43489 ,14.07915 
251 ,49.8498 ,1.49255 ,1.40409 ,13.77695 
252 ,50.0415 ,1.49446 ,1.40067 ,13.74337 
253 ,50.2336 ,1.49637 ,1.38014 ,13.54190 
254 ,50.4419 ,1.49848 ,1.38698 ,13.60906 
255 ,50.6339 ,1.50036 ,1.33907 ,13.13896 
256 ,50.8419 ,1.50245 ,1.35276 ,13.27327 
257 ,51.0343 ,1.50442 ,1.31854 ,12.93749 
258 ,51.2261 ,1.50635 ,1.30827 ,12.83675 
259 ,51.4342 ,1.50840 ,1.30143 ,12.76960 
260 ,51.6265 ,1.51030 ,1.28432 ,12.60171 
261 ,51.8190 ,1.51227 ,1.27405 ,12.50097 
262 ,52.0263 ,1.51423 ,1.25352 ,12.29950 
263 ,52.2184 ,1.51622 ,1.25009 ,12.26592 
264 ,52.4109 ,1.51819 ,1.21587 ,11.93014 
265 ,52.6187 ,1.52014 ,1.23298 ,12.09803 
266 ,52.8270 ,1.52232 ,1.20561 ,11.82941 
267 ,53.0191 ,1.52428 ,1.19192 ,11.69509 
268 ,53.2111 ,1.52616 ,1.16454 ,11.42647 
269 ,53.3868 ,1.52800 ,1.16454 ,11.42647 
270 ,53.5791 ,1.53000 ,1.14401 ,11.22500 
271 ,53.7872 ,1.53189 ,1.13374 ,11.12426 
272 ,53.9793 ,1.53392 ,1.12347 ,11.02353 
273 ,54.1712 ,1.53575 ,1.10979 ,10.88921 
274 ,54.3631 ,1.53765 ,1.10294 ,10.82206 
275 ,54.5554 ,1.53962 ,1.07899 ,10.58701 
276 ,54.7636 ,1.54172 ,1.07214 ,10.51985 
277 ,54.9713 ,1.54364 ,1.05161 ,10.31838 
278 ,55.1638 ,1.54571 ,1.03792 ,10.18407 
279 ,55.3559 ,1.54765 ,1.02765 ,10.08333 
280 ,55.5314 ,1.54947 ,1.00712 ,9.88186 
281 ,55.7240 ,1.55125 ,1.00712 ,9.88186 
282 ,55.9159 ,1.55316 ,0.99685 ,9.78113 
283 ,56.1082 ,1.55515 ,0.96605 ,9.47892 
284 ,56.3003 ,1.55706 ,0.97632 ,9.57966 
285 ,56.4922 ,1.55900 ,0.94210 ,9.24388 
286 ,56.6844 ,1.56088 ,0.94552 ,9.27745 
287 ,56.8764 ,1.56278 ,0.91814 ,9.00883 
288 ,57.0684 ,1.56472 ,0.90446 ,8.87451 
289 ,57.2606 ,1.56667 ,0.92499 ,9.07598 
290 ,57.4528 ,1.56858 ,0.88734 ,8.70662 
291 ,57.6445 ,1.57047 ,0.86681 ,8.50515 
292 ,57.8369 ,1.57241 ,0.86681 ,8.50515 
293 ,58.0450 ,1.57448 ,0.85312 ,8.37084 
294 ,58.2369 ,1.57642 ,0.85312 ,8.37084 
295 ,58.4292 ,1.57830 ,0.81548 ,8.00148 
296 ,58.6211 ,1.58024 ,0.82917 ,8.13579 
297 ,58.8133 ,1.58213 ,0.79837 ,7.83359 
298 ,59.0054 ,1.58404 ,0.79837 ,7.83359 
299 ,59.1974 ,1.58601 ,0.77784 ,7.63212 
300 ,59.4214 ,1.58817 ,0.75730 ,7.43065 
301 ,59.6137 ,1.59018 ,0.74019 ,7.26276 
302 ,59.8056 ,1.59204 ,0.74361 ,7.29633 
303 ,60.0298 ,1.59430 ,0.71281 ,6.99413 
304 ,60.2378 ,1.59642 ,0.71281 ,6.99413 
305 ,60.4300 ,1.59833 ,0.68544 ,6.72550 
306 ,60.6376 ,1.60040 ,0.69913 ,6.85982 
307 ,60.8302 ,1.60233 ,0.65121 ,6.38972 
308 ,61.0222 ,1.60424 ,0.66148 ,6.49046 
309 ,61.2299 ,1.60627 ,0.63753 ,6.25541 
310 ,61.4221 ,1.60821 ,0.63753 ,6.25541 
311 ,61.6143 ,1.61016 ,0.61357 ,6.02036 
312 ,61.8225 ,1.61212 ,0.59988 ,5.88605 
313 ,62.0462 ,1.61437 ,0.57593 ,5.65100 
314 ,62.2385 ,1.61644 ,0.59304 ,5.81889 
315 ,62.4467 ,1.61853 ,0.56908 ,5.58384 
316 ,62.6387 ,1.62042 ,0.58619 ,5.75173 
317 ,62.8309 ,1.62233 ,0.57935 ,5.68458 
318 ,63.0389 ,1.62436 ,0.55197 ,5.41595 
319 ,63.2471 ,1.62650 ,0.54855 ,5.38237 
320 ,63.4393 ,1.62845 ,0.56908 ,5.58384 
321 ,63.6313 ,1.63035 ,0.53486 ,5.24806 
322 ,63.8394 ,1.63243 ,0.52459 ,5.14732 
323 ,64.0471 ,1.63446 ,0.50064 ,4.91228 
324 ,64.2391 ,1.63634 ,0.51433 ,5.04659 
325 ,64.4316 ,1.63834 ,0.49037 ,4.81154 
326 ,64.6396 ,1.64038 ,0.48353 ,4.74438 
327 ,64.8318 ,1.64233 ,0.46642 ,4.57649 
328 ,65.0238 ,1.64431 ,0.43562 ,4.27429 
329 ,65.2159 ,1.64618 ,0.44931 ,4.40860 
330 ,65.3918 ,1.64804 ,0.39797 ,3.90493 
331 ,65.5840 ,1.64985 ,0.42193 ,4.13997 
332 ,65.7760 ,1.65175 ,0.41851 ,4.10640 
333 ,65.9680 ,1.65370 ,0.38086 ,3.73703 
334 ,66.1762 ,1.65578 ,0.38429 ,3.77061 
335 ,66.3840 ,1.65780 ,0.35691 ,3.50199 
336 ,66.5764 ,1.65975 ,0.36033 ,3.53557 
337 ,66.7844 ,1.66189 ,0.34322 ,3.36767 
338 ,66.9928 ,1.66392 ,0.33295 ,3.26694 
339 ,67.1847 ,1.66587 ,0.31242 ,3.06547 
340 ,67.3929 ,1.66793 ,0.31584 ,3.09905 
341 ,67.5847 ,1.66978 ,0.29189 ,2.86400 
342 ,67.7768 ,1.67171 ,0.29873 ,2.93116 
343 ,67.9849 ,1.67380 ,0.25767 ,2.52822 
344 ,68.1770 ,1.67580 ,0.27820 ,2.72969 
345 ,68.3850 ,1.67784 ,0.24055 ,2.36032 
346 ,68.5771 ,1.67970 ,0.25082 ,2.46106 
347 ,68.7692 ,1.68167 ,0.21660 ,2.12528 
348 ,68.9773 ,1.68372 ,0.22002 ,2.15885 
349 ,69.1855 ,1.68584 ,0.19264 ,1.89023 
350 ,69.3938 ,1.68788 ,0.18922 ,1.85665 
351 ,69.5855 ,1.68983 ,0.17211 ,1.68876 
352 ,69.7775 ,1.69187 ,0.17896 ,1.75592 
353 ,69.9698 ,1.69367 ,0.16185 ,1.58802 
354 ,70.1620 ,1.69559 ,0.13789 ,1.35298 
355 ,70.3539 ,1.69750 ,0.14131 ,1.38655 
356 ,70.5462 ,1.69947 ,0.12078 ,1.18508 
357 ,70.7379 ,1.70138 ,0.11051 ,1.08435 
358 ,70.9304 ,1.70324 ,0.10025 ,0.98361 
359 ,71.1381 ,1.70534 ,0.08998 ,0.88288 
360 ,71.3304 ,1.70725 ,0.06260 ,0.61425 
361 ,71.5385 ,1.70938 ,0.06260 ,0.61425 
362 ,71.7307 ,1.71129 ,0.06602 ,0.64783 
363 ,71.9385 ,1.71331 ,0.03865 ,0.37920 
364 ,72.1308 ,1.71524 ,0.02838 ,0.27847 
365 ,72.3388 ,1.71735 ,0.01469 ,0.14416 
366 ,72.5310 ,1.71927 ,0.00443 ,0.04342 
367 ,72.7391 ,1.72137 ,-0.00584 ,-0.05731 
368 ,72.9468 ,1.72344 ,-0.02637 ,-0.25878 
369 ,73.1392 ,1.72538 ,-0.03322 ,-0.32594 
370 ,73.3473 ,1.72747 ,-0.04006 ,-0.39310 
371 ,73.5393 ,1.72945 ,-0.03664 ,-0.35952 
372 ,73.7314 ,1.73126 ,-0.05033 ,-0.49383 
373 ,73.9392 ,1.73335 ,-0.07428 ,-0.72888 
374 ,74.1316 ,1.73523 ,-0.07086 ,-0.69530 
375 ,74.3242 ,1.73719 ,-0.08455 ,-0.82961 
376 ,74.5159 ,1.73914 ,-0.09482 ,-0.93035 
377 ,74.7238 ,1.74120 ,-0.11535 ,-1.13182 
378 ,74.8997 ,1.74305 ,-0.12562 ,-1.23255 
379 ,75.0919 ,1.74483 ,-0.13246 ,-1.29971 
380 ,75.3159 ,1.74701 ,-0.14615 ,-1.43402 
381 ,75.5238 ,1.74918 ,-0.16326 ,-1.60191 
382 ,75.7162 ,1.75109 ,-0.16326 ,-1.60191 
383 ,75.9081 ,1.75310 ,-0.17011 ,-1.66907 
384 ,76.1003 ,1.75498 ,-0.18722 ,-1.83696 
385 ,76.2920 ,1.75698 ,-0.20433 ,-2.00485 
386 ,76.5005 ,1.75883 ,-0.20433 ,-2.00485 
387 ,76.7086 ,1.76102 ,-0.20775 ,-2.03843 
388 ,76.9006 ,1.76297 ,-0.24539 ,-2.40779 
389 ,77.1088 ,1.76506 ,-0.22828 ,-2.23990 
390 ,77.3006 ,1.76697 ,-0.26250 ,-2.57569 
391 ,77.4928 ,1.76893 ,-0.23855 ,-2.34064 
392 ,77.7008 ,1.77096 ,-0.26935 ,-2.64284 
393 ,77.9087 ,1.77301 ,-0.28646 ,-2.81073 
394 ,78.1012 ,1.77492 ,-0.30015 ,-2.94505 
395 ,78.3093 ,1.77702 ,-0.31041 ,-3.04578 
396 ,78.5011 ,1.77895 ,-0.32410 ,-3.18010 
397 ,78.6934 ,1.78084 ,-0.30699 ,-3.01220 
398 ,78.8854 ,1.78281 ,-0.33437 ,-3.28083 
399 ,79.0776 ,1.78472 ,-0.34464 ,-3.38156 
400 ,79.2697 ,1.78666 ,-0.34464 ,-3.38156 
401 ,79.4777 ,1.78874 ,-0.36859 ,-3.61661 
402 ,79.6698 ,1.79064 ,-0.35490 ,-3.48230 
403 ,79.8619 ,1.79258 ,-0.39255 ,-3.85166 
404 ,80.0701 ,1.79456 ,-0.38228 ,-3.75093 
405 ,80.2621 ,1.79658 ,-0.40623 ,-3.98597 
406 ,80.4543 ,1.79848 ,-0.40966 ,-4.01955 
407 ,80.6620 ,1.80056 ,-0.42335 ,-4.15387 
408 ,80.8544 ,1.80244 ,-0.43361 ,-4.25460 
409 ,81.0784 ,1.80472 ,-0.45414 ,-4.45607 
410 ,81.2865 ,1.80677 ,-0.44730 ,-4.38891 
411 ,81.4782 ,1.80875 ,-0.46783 ,-4.59038 
412 ,81.6704 ,1.81066 ,-0.45757 ,-4.48965 
413 ,81.8789 ,1.81263 ,-0.48837 ,-4.79185 
414 ,82.0868 ,1.81477 ,-0.49179 ,-4.82543 
415 ,82.2786 ,1.81671 ,-0.51574 ,-5.06048 
416 ,82.4711 ,1.81862 ,-0.50206 ,-4.92617 
417 ,82.6631 ,1.82057 ,-0.52943 ,-5.19479 
418 ,82.8548 ,1.82259 ,-0.51917 ,-5.09406 
419 ,83.0468 ,1.82434 ,-0.54312 ,-5.32911 
420 ,83.2393 ,1.82632 ,-0.57392 ,-5.63131 
421 ,83.4313 ,1.82823 ,-0.54312 ,-5.32911 
422 ,83.6236 ,1.83014 ,-0.57734 ,-5.66489 
423 ,83.8156 ,1.83215 ,-0.57050 ,-5.59773 
424 ,84.0234 ,1.83407 ,-0.58077 ,-5.69847 
425 ,84.2157 ,1.83613 ,-0.58419 ,-5.73205 
426 ,84.4238 ,1.83817 ,-0.61841 ,-6.06783 
427 ,84.6316 ,1.84009 ,-0.61499 ,-6.03425 
428 ,84.8401 ,1.84235 ,-0.62868 ,-6.16856 
429 ,85.0316 ,1.84423 ,-0.62183 ,-6.10141 
430 ,85.2243 ,1.84615 ,-0.64579 ,-6.33646 
431 ,85.4321 ,1.84825 ,-0.65263 ,-6.40361 
432 ,85.6245 ,1.85013 ,-0.66974 ,-6.57150 
433 ,85.8168 ,1.85212 ,-0.67316 ,-6.60508 
434 ,86.0085 ,1.85405 ,-0.66974 ,-6.57150 
435 ,86.1844 ,1.85586 ,-0.70054 ,-6.87371 
436 ,86.3766 ,1.85763 ,-0.69712 ,-6.84013 
437 ,86.5845 ,1.85970 ,-0.70054 ,-6.87371 
438 ,86.7929 ,1.86182 ,-0.71081 ,-6.97444 
439 ,86.9848 ,1.86376 ,-0.73818 ,-7.24307 
440 ,87.1766 ,1.86563 ,-0.73818 ,-7.24307 
441 ,87.3689 ,1.86764 ,-0.73134 ,-7.17591 
442 ,87.5612 ,1.86961 ,-0.76556 ,-7.51170 
443 ,87.7691 ,1.87150 ,-0.77241 ,-7.57885 
444 ,87.9613 ,1.87353 ,-0.76898 ,-7.54527 
445 ,88.1530 ,1.87547 ,-0.77925 ,-7.64601 
446 ,88.3453 ,1.87736 ,-0.77925 ,-7.64601 
447 ,88.5375 ,1.87926 ,-0.79978 ,-7.84748 
448 ,88.7297 ,1.88118 ,-0.78610 ,-7.71317 
449 ,88.9376 ,1.88329 ,-0.81347 ,-7.98179 
450 ,89.1298 ,1.88520 ,-0.81005 ,-7.94821 
451 ,89.3215 ,1.88711 ,-0.82374 ,-8.08253 
452 ,89.5140 ,1.88907 ,-0.84427 ,-8.28400 
453 ,89.7219 ,1.89111 ,-0.84427 ,-8.28400 
454 ,89.8980 ,1.89299 ,-0.86138 ,-8.45189 
455 ,90.0901 ,1.89479 ,-0.86481 ,-8.48547 
456 ,90.2983 ,1.89688 ,-0.88192 ,-8.65336 
457 ,90.4899 ,1.89880 ,-0.87507 ,-8.58620 
458 ,90.6984 ,1.90071 ,-0.89218 ,-8.75409 
459 ,90.9064 ,1.90301 ,-0.89560 ,-8.78767 
460 ,91.0986 ,1.90491 ,-0.91956 ,-9.02272 
461 ,91.3067 ,1.90701 ,-0.91614 ,-8.98914 
462 ,91.4983 ,1.90898 ,-0.93667 ,-9.19061 
463 ,91.7068 ,1.91086 ,-0.93325 ,-9.15703 
