Data stamp = , 30-04-2022 03:39:38 266

Calibration Values: 
Slope = , 26.54 , g/V 
Offset Voltage at no contact = , -0.501760 , V 

No , Time , Stage Position ,   Mass , Force 
   ,  (s) ,      (mm)      ,   (g)  , (mN)  

1 ,0.0000 ,0.99945 ,5.41829 ,53.16429 
2 ,0.2097 ,0.99952 ,5.41487 ,53.13072 
3 ,0.7381 ,1.00150 ,5.38407 ,52.82851 
4 ,0.9624 ,1.00385 ,5.39776 ,52.96282 
5 ,1.1705 ,1.00580 ,5.40460 ,53.02998 
6 ,1.3622 ,1.00775 ,5.38749 ,52.86209 
7 ,1.5546 ,1.00966 ,5.38749 ,52.86209 
8 ,1.7466 ,1.01166 ,5.34643 ,52.45915 
9 ,1.9387 ,1.01357 ,5.32932 ,52.29126 
10 ,2.1465 ,1.01570 ,5.30194 ,52.02263 
11 ,2.3389 ,1.01756 ,5.28825 ,51.88832 
12 ,2.5470 ,1.01966 ,5.28141 ,51.82116 
13 ,2.7387 ,1.02162 ,5.25745 ,51.58611 
14 ,2.9310 ,1.02350 ,5.25061 ,51.51896 
15 ,3.1393 ,1.02555 ,5.21639 ,51.18317 
16 ,3.3313 ,1.02752 ,5.19585 ,50.98170 
17 ,3.5234 ,1.02944 ,5.17874 ,50.81381 
18 ,3.7156 ,1.03140 ,5.17532 ,50.78023 
19 ,3.9074 ,1.03333 ,5.12741 ,50.31014 
20 ,4.0996 ,1.03519 ,5.12399 ,50.27656 
21 ,4.3237 ,1.03731 ,5.09661 ,50.00793 
22 ,4.5159 ,1.03937 ,5.10003 ,50.04151 
23 ,4.7239 ,1.04139 ,5.06239 ,49.67215 
24 ,4.9156 ,1.04333 ,5.04870 ,49.53784 
25 ,5.1080 ,1.04529 ,5.02474 ,49.30279 
26 ,5.3001 ,1.04715 ,5.01106 ,49.16848 
27 ,5.5078 ,1.04927 ,4.98368 ,48.89985 
28 ,5.7164 ,1.05122 ,4.96315 ,48.69838 
29 ,5.9244 ,1.05340 ,4.94603 ,48.53049 
30 ,6.1163 ,1.05531 ,4.94603 ,48.53049 
31 ,6.3246 ,1.05746 ,4.91181 ,48.19471 
32 ,6.5486 ,1.05960 ,4.91181 ,48.19471 
33 ,6.7407 ,1.06160 ,4.87417 ,47.82534 
34 ,6.9489 ,1.06358 ,4.86732 ,47.75819 
35 ,7.1243 ,1.06555 ,4.83310 ,47.42240 
36 ,7.3170 ,1.06730 ,4.82626 ,47.35525 
37 ,7.5087 ,1.06925 ,4.80230 ,47.12020 
38 ,7.7011 ,1.07119 ,4.78861 ,46.98589 
39 ,7.8931 ,1.07313 ,4.77493 ,46.85157 
40 ,8.0855 ,1.07502 ,4.74070 ,46.51579 
41 ,8.2933 ,1.07709 ,4.74413 ,46.54937 
42 ,8.4854 ,1.07898 ,4.70648 ,46.18001 
43 ,8.6773 ,1.08092 ,4.69622 ,46.07927 
44 ,8.8856 ,1.08299 ,4.66542 ,45.77707 
45 ,9.0775 ,1.08495 ,4.66542 ,45.77707 
46 ,9.2694 ,1.08686 ,4.63804 ,45.50844 
47 ,9.4619 ,1.08879 ,4.61408 ,45.27339 
48 ,9.6700 ,1.09076 ,4.62435 ,45.37413 
49 ,9.8621 ,1.09282 ,4.58671 ,45.00477 
50 ,10.0702 ,1.09476 ,4.56617 ,44.80330 
51 ,10.2781 ,1.09687 ,4.54222 ,44.56825 
52 ,10.4543 ,1.09882 ,4.52511 ,44.40036 
53 ,10.6464 ,1.10060 ,4.50115 ,44.16531 
54 ,10.8385 ,1.10255 ,4.51826 ,44.33320 
55 ,11.0306 ,1.10448 ,4.47378 ,43.89668 
56 ,11.2387 ,1.10650 ,4.48404 ,43.99742 
57 ,11.4303 ,1.10850 ,4.43955 ,43.56090 
58 ,11.6228 ,1.11038 ,4.42929 ,43.46016 
59 ,11.8150 ,1.11229 ,4.42586 ,43.42659 
60 ,12.0229 ,1.11439 ,4.39507 ,43.12438 
61 ,12.2151 ,1.11631 ,4.37795 ,42.95649 
62 ,12.4232 ,1.11840 ,4.35400 ,42.72144 
63 ,12.6152 ,1.12028 ,4.35058 ,42.68786 
64 ,12.8073 ,1.12216 ,4.30951 ,42.28492 
65 ,12.9992 ,1.12414 ,4.30609 ,42.25135 
66 ,13.1915 ,1.12605 ,4.28898 ,42.08345 
67 ,13.3835 ,1.12802 ,4.26502 ,41.84841 
68 ,13.5755 ,1.12990 ,4.26160 ,41.81483 
69 ,13.7677 ,1.13182 ,4.24107 ,41.61336 
70 ,13.9757 ,1.13391 ,4.22396 ,41.44547 
71 ,14.1678 ,1.13583 ,4.21369 ,41.34473 
72 ,14.3760 ,1.13790 ,4.17947 ,41.00895 
73 ,14.5837 ,1.14001 ,4.16236 ,40.84106 
74 ,14.7759 ,1.14189 ,4.15551 ,40.77390 
75 ,14.9682 ,1.14380 ,4.12129 ,40.43812 
76 ,15.1763 ,1.14592 ,4.12129 ,40.43812 
77 ,15.3841 ,1.14793 ,4.11103 ,40.33738 
78 ,15.5920 ,1.15006 ,4.06996 ,39.93444 
79 ,15.7841 ,1.15194 ,4.05969 ,39.83371 
80 ,15.9766 ,1.15395 ,4.04600 ,39.69940 
81 ,16.1847 ,1.15600 ,4.02205 ,39.46435 
82 ,16.3767 ,1.15791 ,4.00836 ,39.33003 
83 ,16.5686 ,1.15984 ,3.98441 ,39.09499 
84 ,16.7766 ,1.16189 ,3.98098 ,39.06141 
85 ,16.9685 ,1.16380 ,3.94676 ,38.72562 
86 ,17.1607 ,1.16574 ,3.93992 ,38.65847 
87 ,17.3538 ,1.16769 ,3.91938 ,38.45700 
88 ,17.5611 ,1.16975 ,3.90912 ,38.35626 
89 ,17.7533 ,1.17169 ,3.88516 ,38.12122 
90 ,17.9614 ,1.17361 ,3.87490 ,38.02048 
91 ,18.1695 ,1.17590 ,3.84067 ,37.68470 
92 ,18.3774 ,1.17788 ,3.84752 ,37.75185 
93 ,18.5695 ,1.17980 ,3.79619 ,37.24818 
94 ,18.7937 ,1.18196 ,3.81672 ,37.44965 
95 ,19.0177 ,1.18422 ,3.78250 ,37.11387 
96 ,19.2098 ,1.18625 ,3.74485 ,36.74450 
97 ,19.4018 ,1.18823 ,3.75854 ,36.87882 
98 ,19.5938 ,1.19005 ,3.72774 ,36.57661 
99 ,19.7859 ,1.19197 ,3.70037 ,36.30799 
100 ,19.9940 ,1.19397 ,3.70379 ,36.34157 
101 ,20.1859 ,1.19601 ,3.67983 ,36.10652 
102 ,20.3780 ,1.19792 ,3.66614 ,35.97220 
103 ,20.5863 ,1.19996 ,3.63192 ,35.63642 
104 ,20.7782 ,1.20193 ,3.64219 ,35.73716 
105 ,20.9704 ,1.20385 ,3.60112 ,35.33422 
106 ,21.1465 ,1.20570 ,3.58743 ,35.19990 
107 ,21.3383 ,1.20750 ,3.59428 ,35.26706 
108 ,21.5464 ,1.20955 ,3.55663 ,34.89770 
109 ,21.7545 ,1.21161 ,3.54637 ,34.79696 
110 ,21.9465 ,1.21355 ,3.51899 ,34.52834 
111 ,22.1225 ,1.21541 ,3.52241 ,34.56192 
112 ,22.3308 ,1.21729 ,3.48819 ,34.22613 
113 ,22.5391 ,1.21952 ,3.49161 ,34.25971 
114 ,22.7471 ,1.22158 ,3.45739 ,33.92393 
115 ,22.9393 ,1.22347 ,3.44713 ,33.82319 
116 ,23.1469 ,1.22560 ,3.41633 ,33.52099 
117 ,23.3394 ,1.22744 ,3.40948 ,33.45383 
118 ,23.5471 ,1.22961 ,3.38553 ,33.21878 
119 ,23.7397 ,1.23156 ,3.38895 ,33.25236 
120 ,23.9317 ,1.23344 ,3.35815 ,32.95016 
121 ,24.1238 ,1.23535 ,3.34788 ,32.84942 
122 ,24.3158 ,1.23730 ,3.32393 ,32.61437 
123 ,24.5076 ,1.23916 ,3.29655 ,32.34575 
124 ,24.6998 ,1.24108 ,3.30682 ,32.44648 
125 ,24.8919 ,1.24299 ,3.26233 ,32.00996 
126 ,25.1002 ,1.24500 ,3.25891 ,31.97639 
127 ,25.3082 ,1.24723 ,3.22468 ,31.64060 
128 ,25.5003 ,1.24908 ,3.23837 ,31.77492 
129 ,25.6764 ,1.25102 ,3.19731 ,31.37198 
130 ,25.8685 ,1.25278 ,3.19046 ,31.30482 
131 ,26.0766 ,1.25487 ,3.17335 ,31.13693 
132 ,26.2688 ,1.25682 ,3.14940 ,30.90188 
133 ,26.4765 ,1.25888 ,3.14597 ,30.86830 
134 ,26.6688 ,1.26077 ,3.12202 ,30.63325 
135 ,26.8604 ,1.26270 ,3.11860 ,30.59968 
136 ,27.0531 ,1.26462 ,3.08438 ,30.26389 
137 ,27.2451 ,1.26659 ,3.07411 ,30.16316 
138 ,27.4371 ,1.26851 ,3.07069 ,30.12958 
139 ,27.6609 ,1.27064 ,3.05700 ,29.99527 
140 ,27.8537 ,1.27267 ,3.02620 ,29.69306 
141 ,28.0293 ,1.27452 ,3.01593 ,29.59233 
142 ,28.2215 ,1.27632 ,3.00224 ,29.45801 
143 ,28.4296 ,1.27832 ,2.97144 ,29.15581 
144 ,28.6374 ,1.28051 ,2.96802 ,29.12223 
145 ,28.8297 ,1.28236 ,2.95091 ,28.95434 
146 ,29.0374 ,1.28443 ,2.94064 ,28.85360 
147 ,29.2299 ,1.28637 ,2.91327 ,28.58498 
148 ,29.4380 ,1.28846 ,2.90300 ,28.48424 
149 ,29.6300 ,1.29037 ,2.87562 ,28.21562 
150 ,29.8222 ,1.29234 ,2.87905 ,28.24919 
151 ,30.0142 ,1.29425 ,2.84825 ,27.94699 
152 ,30.2222 ,1.29635 ,2.83798 ,27.84625 
153 ,30.4303 ,1.29838 ,2.81745 ,27.64479 
154 ,30.6382 ,1.30043 ,2.81745 ,27.64479 
155 ,30.8466 ,1.30253 ,2.80034 ,27.47689 
156 ,31.0386 ,1.30451 ,2.79349 ,27.40974 
157 ,31.2143 ,1.30632 ,2.74900 ,26.97322 
158 ,31.4068 ,1.30814 ,2.74900 ,26.97322 
159 ,31.6148 ,1.31024 ,2.72847 ,26.77175 
160 ,31.8230 ,1.31224 ,2.72163 ,26.70459 
161 ,32.0471 ,1.31448 ,2.70794 ,26.57028 
162 ,32.2392 ,1.31648 ,2.68740 ,26.36881 
163 ,32.4632 ,1.31864 ,2.66003 ,26.10018 
164 ,32.6713 ,1.32079 ,2.63265 ,25.83156 
165 ,32.8634 ,1.32266 ,2.64976 ,25.99945 
166 ,33.0551 ,1.32460 ,2.60869 ,25.59651 
167 ,33.2477 ,1.32655 ,2.60869 ,25.59651 
168 ,33.4392 ,1.32847 ,2.59843 ,25.49577 
169 ,33.6475 ,1.33059 ,2.56078 ,25.12641 
170 ,33.8398 ,1.33253 ,2.56078 ,25.12641 
171 ,34.0319 ,1.33438 ,2.54025 ,24.92494 
172 ,34.2240 ,1.33629 ,2.53341 ,24.85779 
173 ,34.4321 ,1.33825 ,2.49234 ,24.45485 
174 ,34.6560 ,1.34054 ,2.50261 ,24.55558 
175 ,34.8479 ,1.34254 ,2.47523 ,24.28696 
176 ,35.0403 ,1.34445 ,2.46839 ,24.21980 
177 ,35.2324 ,1.34639 ,2.43074 ,23.85044 
178 ,35.4245 ,1.34828 ,2.44101 ,23.95117 
179 ,35.6324 ,1.35038 ,2.41363 ,23.68255 
180 ,35.8245 ,1.35231 ,2.41363 ,23.68255 
181 ,36.0168 ,1.35420 ,2.38283 ,23.38034 
182 ,36.2246 ,1.35621 ,2.36230 ,23.17887 
183 ,36.4169 ,1.35825 ,2.35203 ,23.07814 
184 ,36.6247 ,1.36022 ,2.33492 ,22.91024 
185 ,36.8492 ,1.36251 ,2.31439 ,22.70877 
186 ,37.0571 ,1.36461 ,2.30754 ,22.64162 
187 ,37.2493 ,1.36653 ,2.28359 ,22.40657 
188 ,37.4575 ,1.36865 ,2.28017 ,22.37299 
189 ,37.6494 ,1.37057 ,2.25963 ,22.17152 
190 ,37.8411 ,1.37242 ,2.26306 ,22.20510 
191 ,38.0175 ,1.37433 ,2.23910 ,21.97005 
192 ,38.2096 ,1.37615 ,2.20146 ,21.60069 
193 ,38.4017 ,1.37806 ,2.21857 ,21.76858 
194 ,38.6099 ,1.38017 ,2.18435 ,21.43280 
195 ,38.8020 ,1.38205 ,2.19461 ,21.53353 
196 ,38.9939 ,1.38398 ,2.15355 ,21.13059 
197 ,39.2020 ,1.38606 ,2.17408 ,21.33206 
198 ,39.3942 ,1.38803 ,2.12275 ,20.82839 
199 ,39.6023 ,1.39006 ,2.13644 ,20.96270 
200 ,39.7944 ,1.39198 ,2.10906 ,20.69408 
201 ,40.0024 ,1.39404 ,2.09879 ,20.59334 
202 ,40.1945 ,1.39593 ,2.06457 ,20.25756 
203 ,40.3867 ,1.39796 ,2.06799 ,20.29114 
204 ,40.5786 ,1.39982 ,2.06115 ,20.22398 
205 ,40.7708 ,1.40178 ,2.03035 ,19.92178 
206 ,40.9789 ,1.40386 ,2.02350 ,19.85462 
207 ,41.1869 ,1.40590 ,2.01324 ,19.75388 
208 ,41.3950 ,1.40798 ,1.98586 ,19.48526 
209 ,41.5871 ,1.40992 ,1.96875 ,19.31737 
210 ,41.7792 ,1.41186 ,1.96190 ,19.25021 
211 ,41.9871 ,1.41393 ,1.94822 ,19.11590 
212 ,42.1793 ,1.41584 ,1.93453 ,18.98158 
213 ,42.3714 ,1.41774 ,1.91742 ,18.81369 
214 ,42.5636 ,1.41966 ,1.91742 ,18.81369 
215 ,42.7556 ,1.42158 ,1.88319 ,18.47791 
216 ,42.9635 ,1.42368 ,1.88319 ,18.47791 
217 ,43.1557 ,1.42561 ,1.85924 ,18.24286 
218 ,43.3476 ,1.42757 ,1.85924 ,18.24286 
219 ,43.5559 ,1.42950 ,1.83871 ,18.04139 
220 ,43.7641 ,1.43167 ,1.82502 ,17.90708 
221 ,43.9560 ,1.43362 ,1.80106 ,17.67203 
222 ,44.1484 ,1.43552 ,1.78053 ,17.47056 
223 ,44.3559 ,1.43749 ,1.79764 ,17.63845 
224 ,44.5480 ,1.43951 ,1.76684 ,17.33625 
225 ,44.7404 ,1.44146 ,1.75315 ,17.20193 
226 ,44.9486 ,1.44355 ,1.73946 ,17.06762 
227 ,45.1407 ,1.44547 ,1.72578 ,16.93331 
228 ,45.3486 ,1.44754 ,1.71209 ,16.79899 
229 ,45.5407 ,1.44945 ,1.70182 ,16.69826 
230 ,45.7329 ,1.45133 ,1.67102 ,16.39605 
231 ,45.9250 ,1.45330 ,1.67786 ,16.46321 
232 ,46.1489 ,1.45549 ,1.65049 ,16.19458 
233 ,46.3411 ,1.45742 ,1.63338 ,16.02669 
234 ,46.5167 ,1.45928 ,1.61627 ,15.85880 
235 ,46.7092 ,1.46111 ,1.61627 ,15.85880 
236 ,46.9173 ,1.46320 ,1.59573 ,15.65733 
237 ,47.1250 ,1.46527 ,1.59573 ,15.65733 
238 ,47.3009 ,1.46718 ,1.55467 ,15.25439 
239 ,47.4932 ,1.46898 ,1.54782 ,15.18724 
240 ,47.7015 ,1.47105 ,1.54098 ,15.12008 
241 ,47.9096 ,1.47306 ,1.53413 ,15.05292 
242 ,48.1177 ,1.47519 ,1.51018 ,14.81787 
243 ,48.3096 ,1.47709 ,1.49307 ,14.64998 
244 ,48.5179 ,1.47916 ,1.48280 ,14.54925 
245 ,48.6935 ,1.48102 ,1.47253 ,14.44851 
246 ,48.8862 ,1.48289 ,1.47253 ,14.44851 
247 ,49.0782 ,1.48480 ,1.45200 ,14.24704 
248 ,49.2864 ,1.48688 ,1.43831 ,14.11273 
249 ,49.4783 ,1.48878 ,1.41436 ,13.87768 
250 ,49.6705 ,1.49072 ,1.40409 ,13.77695 
251 ,49.8625 ,1.49267 ,1.40751 ,13.81053 
252 ,50.0706 ,1.49462 ,1.36303 ,13.37401 
253 ,50.2627 ,1.49665 ,1.38014 ,13.54190 
254 ,50.4708 ,1.49872 ,1.34591 ,13.20612 
255 ,50.6788 ,1.50074 ,1.34249 ,13.17254 
256 ,50.8705 ,1.50270 ,1.31169 ,12.87033 
257 ,51.0631 ,1.50462 ,1.31512 ,12.90391 
258 ,51.2708 ,1.50675 ,1.29116 ,12.66886 
259 ,51.4633 ,1.50867 ,1.30827 ,12.83675 
260 ,51.6873 ,1.51089 ,1.27747 ,12.53455 
261 ,51.8950 ,1.51296 ,1.25009 ,12.26592 
262 ,52.0874 ,1.51487 ,1.24667 ,12.23235 
263 ,52.2953 ,1.51700 ,1.22272 ,11.99730 
264 ,52.4873 ,1.51888 ,1.22956 ,12.06445 
265 ,52.6797 ,1.52083 ,1.20561 ,11.82941 
266 ,52.8875 ,1.52288 ,1.19876 ,11.76225 
267 ,53.0958 ,1.52494 ,1.16796 ,11.46004 
268 ,53.2879 ,1.52683 ,1.17823 ,11.56078 
269 ,53.4800 ,1.52883 ,1.15427 ,11.32573 
270 ,53.6721 ,1.53071 ,1.13032 ,11.09068 
271 ,53.8801 ,1.53274 ,1.13032 ,11.09068 
272 ,54.0718 ,1.53470 ,1.10979 ,10.88921 
273 ,54.2643 ,1.53663 ,1.10636 ,10.85563 
274 ,54.4724 ,1.53874 ,1.07214 ,10.51985 
275 ,54.6964 ,1.54096 ,1.07214 ,10.51985 
276 ,54.9045 ,1.54301 ,1.05845 ,10.38554 
277 ,55.0966 ,1.54498 ,1.04134 ,10.21765 
278 ,55.3045 ,1.54701 ,1.05161 ,10.31838 
279 ,55.5127 ,1.54911 ,1.00712 ,9.88186 
280 ,55.7047 ,1.55103 ,1.00370 ,9.84829 
281 ,55.8967 ,1.55297 ,0.98659 ,9.68039 
282 ,56.0890 ,1.55488 ,0.98659 ,9.68039 
283 ,56.2966 ,1.55695 ,0.96263 ,9.44535 
284 ,56.4891 ,1.55890 ,0.94894 ,9.31103 
285 ,56.6970 ,1.56097 ,0.93183 ,9.14314 
286 ,56.8893 ,1.56291 ,0.92499 ,9.07598 
287 ,57.0812 ,1.56480 ,0.91130 ,8.94167 
288 ,57.2733 ,1.56671 ,0.90103 ,8.84094 
289 ,57.4654 ,1.56859 ,0.89419 ,8.77378 
290 ,57.7055 ,1.57103 ,0.87708 ,8.60589 
291 ,57.8977 ,1.57298 ,0.84970 ,8.33726 
292 ,58.1057 ,1.57503 ,0.87366 ,8.57231 
293 ,58.2978 ,1.57696 ,0.83259 ,8.16937 
294 ,58.4894 ,1.57884 ,0.83259 ,8.16937 
295 ,58.6819 ,1.58079 ,0.82575 ,8.10221 
296 ,58.8741 ,1.58269 ,0.79495 ,7.80001 
297 ,59.0662 ,1.58463 ,0.78810 ,7.73285 
298 ,59.2584 ,1.58658 ,0.76072 ,7.46423 
299 ,59.4659 ,1.58863 ,0.77099 ,7.56496 
300 ,59.6423 ,1.59051 ,0.74361 ,7.29633 
301 ,59.8345 ,1.59231 ,0.72992 ,7.16202 
302 ,60.0586 ,1.59446 ,0.72650 ,7.12844 
303 ,60.2665 ,1.59661 ,0.72308 ,7.09486 
304 ,60.4587 ,1.59852 ,0.68886 ,6.75908 
305 ,60.6823 ,1.60076 ,0.67859 ,6.65835 
306 ,60.8747 ,1.60273 ,0.66490 ,6.52403 
307 ,61.0670 ,1.60467 ,0.66833 ,6.55761 
308 ,61.2591 ,1.60659 ,0.65464 ,6.42330 
309 ,61.4668 ,1.60865 ,0.65464 ,6.42330 
310 ,61.6751 ,1.61072 ,0.62042 ,6.08752 
311 ,61.8669 ,1.61265 ,0.62384 ,6.12109 
312 ,62.0752 ,1.61470 ,0.58962 ,5.78531 
313 ,62.2832 ,1.61679 ,0.59988 ,5.88605 
314 ,62.4914 ,1.61889 ,0.57593 ,5.65100 
315 ,62.6836 ,1.62079 ,0.56566 ,5.55026 
316 ,62.8913 ,1.62290 ,0.55539 ,5.44953 
317 ,63.0836 ,1.62477 ,0.53828 ,5.28164 
318 ,63.2758 ,1.62669 ,0.53144 ,5.21448 
319 ,63.4838 ,1.62876 ,0.51775 ,5.08017 
320 ,63.7078 ,1.63096 ,0.51775 ,5.08017 
321 ,63.9157 ,1.63313 ,0.49037 ,4.81154 
322 ,64.1081 ,1.63501 ,0.49037 ,4.81154 
323 ,64.3160 ,1.63711 ,0.44931 ,4.40860 
324 ,64.5080 ,1.63902 ,0.46642 ,4.57649 
325 ,64.7004 ,1.64090 ,0.44246 ,4.34144 
326 ,64.8922 ,1.64293 ,0.43562 ,4.27429 
327 ,65.1004 ,1.64492 ,0.41166 ,4.03924 
328 ,65.2926 ,1.64689 ,0.40824 ,4.00566 
329 ,65.5005 ,1.64898 ,0.39455 ,3.87135 
330 ,65.6928 ,1.65087 ,0.38771 ,3.80419 
331 ,65.9007 ,1.65294 ,0.36718 ,3.60272 
332 ,66.0927 ,1.65489 ,0.36033 ,3.53557 
333 ,66.3009 ,1.65695 ,0.34664 ,3.40125 
334 ,66.4931 ,1.65889 ,0.33980 ,3.33410 
335 ,66.6850 ,1.66081 ,0.34322 ,3.36767 
336 ,66.8933 ,1.66290 ,0.32269 ,3.16620 
337 ,67.0850 ,1.66484 ,0.31242 ,3.06547 
338 ,67.2773 ,1.66683 ,0.28847 ,2.83042 
339 ,67.4693 ,1.66861 ,0.28847 ,2.83042 
340 ,67.6622 ,1.67053 ,0.26793 ,2.62895 
341 ,67.8536 ,1.67244 ,0.26451 ,2.59537 
342 ,68.0456 ,1.67443 ,0.25767 ,2.52822 
343 ,68.2377 ,1.67629 ,0.22344 ,2.19243 
344 ,68.4293 ,1.67822 ,0.24055 ,2.36032 
345 ,68.6215 ,1.68015 ,0.20291 ,1.99096 
346 ,68.8137 ,1.68208 ,0.21318 ,2.09170 
347 ,69.0060 ,1.68402 ,0.20291 ,1.99096 
348 ,69.2139 ,1.68601 ,0.19607 ,1.92381 
349 ,69.4057 ,1.68801 ,0.18238 ,1.78949 
350 ,69.5982 ,1.68993 ,0.16527 ,1.62160 
351 ,69.8059 ,1.69193 ,0.15842 ,1.55445 
352 ,69.9982 ,1.69388 ,0.14816 ,1.45371 
353 ,70.1901 ,1.69581 ,0.14816 ,1.45371 
354 ,70.3827 ,1.69773 ,0.11736 ,1.15151 
355 ,70.5743 ,1.69982 ,0.12420 ,1.21866 
356 ,70.7508 ,1.70154 ,0.09682 ,0.95004 
357 ,70.9429 ,1.70339 ,0.08656 ,0.84930 
358 ,71.1509 ,1.70546 ,0.08656 ,0.84930 
359 ,71.3430 ,1.70735 ,0.06602 ,0.64783 
360 ,71.5352 ,1.70923 ,0.04549 ,0.44636 
361 ,71.7111 ,1.71114 ,0.05918 ,0.58067 
362 ,71.9033 ,1.71292 ,0.03180 ,0.31205 
363 ,72.1112 ,1.71508 ,0.03522 ,0.34563 
364 ,72.3034 ,1.71697 ,0.00443 ,0.04342 
365 ,72.5113 ,1.71903 ,0.00443 ,0.04342 
366 ,72.7033 ,1.72092 ,-0.00926 ,-0.09089 
367 ,72.8953 ,1.72298 ,-0.01269 ,-0.12447 
368 ,73.0874 ,1.72480 ,-0.02295 ,-0.22520 
369 ,73.2794 ,1.72672 ,-0.05033 ,-0.49383 
370 ,73.4716 ,1.72862 ,-0.04691 ,-0.46025 
371 ,73.6637 ,1.73051 ,-0.06402 ,-0.62814 
372 ,73.8557 ,1.73248 ,-0.07771 ,-0.76246 
373 ,74.0639 ,1.73448 ,-0.07428 ,-0.72888 
374 ,74.2560 ,1.73649 ,-0.08455 ,-0.82961 
375 ,74.4480 ,1.73840 ,-0.08455 ,-0.82961 
376 ,74.6405 ,1.74031 ,-0.10851 ,-1.06466 
377 ,74.8483 ,1.74235 ,-0.12219 ,-1.19898 
378 ,75.0727 ,1.74445 ,-0.13246 ,-1.29971 
379 ,75.2807 ,1.74675 ,-0.14273 ,-1.40045 
380 ,75.4729 ,1.74866 ,-0.14273 ,-1.40045 
381 ,75.6810 ,1.75073 ,-0.16668 ,-1.63549 
382 ,75.8728 ,1.75267 ,-0.16668 ,-1.63549 
383 ,76.0648 ,1.75453 ,-0.17011 ,-1.66907 
384 ,76.2571 ,1.75646 ,-0.19406 ,-1.90412 
385 ,76.4812 ,1.75861 ,-0.20775 ,-2.03843 
386 ,76.6732 ,1.76065 ,-0.21459 ,-2.10559 
387 ,76.8654 ,1.76253 ,-0.21459 ,-2.10559 
388 ,77.0570 ,1.76449 ,-0.24881 ,-2.44137 
389 ,77.2334 ,1.76638 ,-0.23513 ,-2.30706 
390 ,77.4256 ,1.76816 ,-0.25224 ,-2.47495 
391 ,77.6336 ,1.77026 ,-0.25908 ,-2.54211 
392 ,77.8258 ,1.77215 ,-0.27277 ,-2.67642 
393 ,78.0179 ,1.77408 ,-0.28304 ,-2.77716 
394 ,78.2254 ,1.77612 ,-0.28646 ,-2.81073 
395 ,78.4180 ,1.77806 ,-0.31384 ,-3.07936 
396 ,78.6261 ,1.78013 ,-0.30357 ,-2.97863 
397 ,78.8341 ,1.78223 ,-0.32068 ,-3.14652 
398 ,79.0263 ,1.78421 ,-0.31384 ,-3.07936 
399 ,79.2184 ,1.78610 ,-0.34121 ,-3.34799 
400 ,79.4103 ,1.78800 ,-0.33095 ,-3.24725 
401 ,79.6185 ,1.79007 ,-0.36517 ,-3.58303 
402 ,79.8102 ,1.79199 ,-0.35490 ,-3.48230 
403 ,80.0025 ,1.79389 ,-0.38228 ,-3.75093 
404 ,80.1946 ,1.79588 ,-0.38912 ,-3.81808 
405 ,80.3863 ,1.79779 ,-0.38912 ,-3.81808 
406 ,80.5787 ,1.79969 ,-0.42335 ,-4.15387 
407 ,80.7869 ,1.80177 ,-0.41308 ,-4.05313 
408 ,80.9948 ,1.80383 ,-0.43361 ,-4.25460 
409 ,81.1870 ,1.80581 ,-0.43019 ,-4.22102 
410 ,81.3790 ,1.80768 ,-0.45072 ,-4.42249 
411 ,81.5710 ,1.80956 ,-0.44730 ,-4.38891 
412 ,81.7630 ,1.81149 ,-0.45757 ,-4.48965 
413 ,81.9389 ,1.81340 ,-0.46099 ,-4.52323 
414 ,82.1151 ,1.81511 ,-0.46783 ,-4.59038 
415 ,82.3235 ,1.81700 ,-0.49863 ,-4.89259 
416 ,82.5315 ,1.81922 ,-0.49179 ,-4.82543 
417 ,82.7236 ,1.82119 ,-0.51232 ,-5.02690 
418 ,82.9315 ,1.82320 ,-0.50890 ,-4.99332 
419 ,83.1399 ,1.82522 ,-0.53970 ,-5.29553 
420 ,83.3480 ,1.82738 ,-0.52259 ,-5.12764 
421 ,83.5559 ,1.82944 ,-0.56023 ,-5.49700 
422 ,83.7480 ,1.83132 ,-0.54312 ,-5.32911 
423 ,83.9403 ,1.83323 ,-0.57734 ,-5.66489 
424 ,84.1323 ,1.83521 ,-0.57392 ,-5.63131 
425 ,84.3404 ,1.83731 ,-0.59103 ,-5.79920 
426 ,84.5321 ,1.83914 ,-0.59103 ,-5.79920 
427 ,84.7401 ,1.84127 ,-0.60130 ,-5.89994 
428 ,84.9164 ,1.84317 ,-0.61156 ,-6.00067 
429 ,85.1085 ,1.84497 ,-0.61499 ,-6.03425 
430 ,85.3166 ,1.84706 ,-0.63552 ,-6.23572 
431 ,85.5086 ,1.84895 ,-0.63894 ,-6.26930 
432 ,85.7167 ,1.85096 ,-0.64579 ,-6.33646 
433 ,85.8924 ,1.85292 ,-0.64236 ,-6.30288 
434 ,86.0851 ,1.85470 ,-0.65947 ,-6.47077 
435 ,86.2932 ,1.85685 ,-0.67316 ,-6.60508 
436 ,86.4853 ,1.85872 ,-0.68343 ,-6.70582 
437 ,86.6771 ,1.86064 ,-0.71081 ,-6.97444 
438 ,86.8694 ,1.86257 ,-0.68343 ,-6.70582 
439 ,87.0614 ,1.86448 ,-0.71765 ,-7.04160 
440 ,87.2535 ,1.86640 ,-0.70739 ,-6.94086 
441 ,87.4617 ,1.86846 ,-0.73134 ,-7.17591 
442 ,87.6696 ,1.87054 ,-0.73818 ,-7.24307 
443 ,87.8778 ,1.87265 ,-0.75872 ,-7.44454 
444 ,88.0856 ,1.87465 ,-0.74845 ,-7.34380 
445 ,88.2777 ,1.87660 ,-0.76556 ,-7.51170 
446 ,88.4701 ,1.87860 ,-0.76556 ,-7.51170 
447 ,88.6780 ,1.88061 ,-0.78610 ,-7.71317 
448 ,88.8701 ,1.88252 ,-0.77925 ,-7.64601 
449 ,89.0622 ,1.88445 ,-0.81689 ,-8.01537 
450 ,89.2543 ,1.88638 ,-0.81005 ,-7.94821 
451 ,89.4464 ,1.88834 ,-0.82032 ,-8.04895 
452 ,89.6385 ,1.89026 ,-0.84427 ,-8.28400 
453 ,89.8306 ,1.89218 ,-0.82374 ,-8.08253 
454 ,90.0227 ,1.89409 ,-0.85454 ,-8.38473 
455 ,90.2143 ,1.89602 ,-0.84427 ,-8.28400 
456 ,90.4068 ,1.89794 ,-0.86138 ,-8.45189 
457 ,90.6148 ,1.90004 ,-0.87165 ,-8.55262 
458 ,90.8069 ,1.90194 ,-0.87507 ,-8.58620 
459 ,90.9988 ,1.90380 ,-0.89560 ,-8.78767 
460 ,91.1911 ,1.90574 ,-0.87507 ,-8.58620 
461 ,91.3990 ,1.90778 ,-0.91614 ,-8.98914 
462 ,91.5913 ,1.90970 ,-0.91272 ,-8.95556 
463 ,91.7833 ,1.91167 ,-0.91956 ,-9.02272 
