Data stamp = , 01-05-2022 05:01:55 099

Calibration Values: 
Slope = , 26.54 , g/V 
Offset Voltage at no contact = , -0.501760 , V 

No , Time , Stage Position ,   Mass , Force 
   ,  (s) ,      (mm)      ,   (g)  , (mN)  

1 ,0.0000 ,0.99942 ,5.36696 ,52.66062 
2 ,0.2131 ,0.99950 ,5.36354 ,52.62704 
3 ,0.9336 ,1.00255 ,5.37038 ,52.69420 
4 ,1.1256 ,1.00542 ,5.37381 ,52.72778 
5 ,1.3177 ,1.00730 ,5.39434 ,52.92925 
6 ,1.5258 ,1.00933 ,5.35327 ,52.52631 
7 ,1.7500 ,1.01159 ,5.33958 ,52.39199 
8 ,1.9580 ,1.01376 ,5.31905 ,52.19052 
9 ,2.1660 ,1.01580 ,5.29167 ,51.92190 
10 ,2.3584 ,1.01777 ,5.28141 ,51.82116 
11 ,2.5662 ,1.01982 ,5.25061 ,51.51896 
12 ,2.7585 ,1.02178 ,5.24718 ,51.48538 
13 ,2.9343 ,1.02367 ,5.19585 ,50.98170 
14 ,3.1104 ,1.02533 ,5.20612 ,51.08244 
15 ,3.3028 ,1.02723 ,5.19927 ,51.01528 
16 ,3.5107 ,1.02925 ,5.15479 ,50.57876 
17 ,3.7026 ,1.03124 ,5.15136 ,50.54519 
18 ,3.8951 ,1.03312 ,5.11030 ,50.14225 
19 ,4.1032 ,1.03521 ,5.11030 ,50.14225 
20 ,4.3112 ,1.03724 ,5.07950 ,49.84004 
21 ,4.5033 ,1.03915 ,5.07265 ,49.77289 
22 ,4.6951 ,1.04107 ,5.03843 ,49.43710 
23 ,4.9191 ,1.04326 ,5.04185 ,49.47068 
24 ,5.1111 ,1.04527 ,4.99394 ,49.00058 
25 ,5.3033 ,1.04720 ,5.01106 ,49.16848 
26 ,5.4954 ,1.04915 ,4.97683 ,48.83269 
27 ,5.6877 ,1.05101 ,4.96657 ,48.73196 
28 ,5.8956 ,1.05308 ,4.92892 ,48.36260 
29 ,6.1039 ,1.05520 ,4.93235 ,48.39618 
30 ,6.3119 ,1.05725 ,4.89128 ,47.99324 
31 ,6.5038 ,1.05918 ,4.87759 ,47.85892 
32 ,6.6959 ,1.06106 ,4.85364 ,47.62387 
33 ,6.8881 ,1.06307 ,4.83995 ,47.48956 
34 ,7.0962 ,1.06512 ,4.82626 ,47.35525 
35 ,7.3045 ,1.06724 ,4.80915 ,47.18736 
36 ,7.5285 ,1.06941 ,4.78861 ,46.98589 
37 ,7.7206 ,1.07133 ,4.78177 ,46.91873 
38 ,7.9285 ,1.07332 ,4.74070 ,46.51579 
39 ,8.1204 ,1.07534 ,4.73728 ,46.48221 
40 ,8.3126 ,1.07732 ,4.69964 ,46.11285 
41 ,8.5366 ,1.07938 ,4.69964 ,46.11285 
42 ,8.7131 ,1.08139 ,4.66884 ,45.81065 
43 ,8.9050 ,1.08314 ,4.66884 ,45.81065 
44 ,9.0967 ,1.08514 ,4.64146 ,45.54202 
45 ,9.2891 ,1.08709 ,4.63462 ,45.47486 
46 ,9.4972 ,1.08913 ,4.60040 ,45.13908 
47 ,9.7055 ,1.09126 ,4.60040 ,45.13908 
48 ,9.9294 ,1.09333 ,4.55933 ,44.73614 
49 ,10.1376 ,1.09550 ,4.55591 ,44.70256 
50 ,10.3456 ,1.09761 ,4.54222 ,44.56825 
51 ,10.5376 ,1.09967 ,4.49773 ,44.13173 
52 ,10.7138 ,1.10137 ,4.50115 ,44.16531 
53 ,10.9056 ,1.10314 ,4.48062 ,43.96384 
54 ,11.3219 ,1.10720 ,4.46009 ,43.76237 
55 ,11.5300 ,1.10943 ,4.43271 ,43.49374 
56 ,11.7382 ,1.11147 ,4.40875 ,43.25870 
57 ,11.9300 ,1.11343 ,4.39164 ,43.09080 
58 ,12.1060 ,1.11529 ,4.37795 ,42.95649 
59 ,12.2984 ,1.11709 ,4.36084 ,42.78860 
60 ,12.5062 ,1.11916 ,4.35058 ,42.68786 
61 ,12.6983 ,1.12112 ,4.31978 ,42.38566 
62 ,12.8904 ,1.12302 ,4.29924 ,42.18419 
63 ,13.0825 ,1.12493 ,4.30609 ,42.25135 
64 ,13.2745 ,1.12684 ,4.27187 ,41.91556 
65 ,13.4668 ,1.12880 ,4.26160 ,41.81483 
66 ,13.6588 ,1.13071 ,4.23422 ,41.54620 
67 ,13.8508 ,1.13265 ,4.21711 ,41.37831 
68 ,14.0429 ,1.13461 ,4.21711 ,41.37831 
69 ,14.2349 ,1.13644 ,4.18974 ,41.10968 
70 ,14.4111 ,1.13837 ,4.18631 ,41.07611 
71 ,14.6030 ,1.14017 ,4.17605 ,40.97537 
72 ,14.8115 ,1.14223 ,4.13840 ,40.60601 
73 ,15.0037 ,1.14427 ,4.12129 ,40.43812 
74 ,15.1954 ,1.14602 ,4.10076 ,40.23665 
75 ,15.3879 ,1.14794 ,4.10760 ,40.30380 
76 ,15.5957 ,1.15008 ,4.06996 ,39.93444 
77 ,15.7876 ,1.15199 ,4.06312 ,39.86729 
78 ,15.9798 ,1.15390 ,4.03916 ,39.63224 
79 ,16.1719 ,1.15583 ,4.02889 ,39.53150 
80 ,16.3639 ,1.15774 ,4.01520 ,39.39719 
81 ,16.5399 ,1.15963 ,3.99125 ,39.16214 
82 ,16.7321 ,1.16144 ,3.96729 ,38.92709 
83 ,16.9401 ,1.16345 ,3.97414 ,38.99425 
84 ,17.1322 ,1.16542 ,3.94676 ,38.72562 
85 ,17.3243 ,1.16733 ,3.95018 ,38.75920 
86 ,17.5004 ,1.16925 ,3.91254 ,38.38984 
87 ,17.6924 ,1.17100 ,3.89543 ,38.22195 
88 ,17.8848 ,1.17297 ,3.88516 ,38.12122 
89 ,18.1091 ,1.17511 ,3.84067 ,37.68470 
90 ,18.3167 ,1.17733 ,3.84067 ,37.68470 
91 ,18.5092 ,1.17916 ,3.83383 ,37.61754 
92 ,18.7171 ,1.18128 ,3.79961 ,37.28176 
93 ,18.9093 ,1.18321 ,3.80645 ,37.34891 
94 ,19.1011 ,1.18510 ,3.77565 ,37.04671 
95 ,19.2936 ,1.18703 ,3.74828 ,36.77808 
96 ,19.5016 ,1.18912 ,3.74828 ,36.77808 
97 ,19.6938 ,1.19104 ,3.71405 ,36.44230 
98 ,19.8858 ,1.19295 ,3.72090 ,36.50946 
99 ,20.0779 ,1.19489 ,3.67983 ,36.10652 
100 ,20.2699 ,1.19681 ,3.67641 ,36.07294 
101 ,20.4781 ,1.19885 ,3.65588 ,35.87147 
102 ,20.6862 ,1.20098 ,3.65246 ,35.83789 
103 ,20.8943 ,1.20289 ,3.61823 ,35.50211 
104 ,21.1023 ,1.20514 ,3.62166 ,35.53569 
105 ,21.2941 ,1.20700 ,3.58401 ,35.16632 
106 ,21.4703 ,1.20890 ,3.58059 ,35.13275 
107 ,21.6785 ,1.21089 ,3.54637 ,34.79696 
108 ,21.8704 ,1.21277 ,3.55663 ,34.89770 
109 ,22.0628 ,1.21486 ,3.50530 ,34.39402 
110 ,22.2548 ,1.21665 ,3.50188 ,34.36045 
111 ,22.4308 ,1.21849 ,3.50530 ,34.39402 
112 ,22.6226 ,1.22032 ,3.49504 ,34.29329 
113 ,22.8151 ,1.22222 ,3.45739 ,33.92393 
114 ,23.0073 ,1.22414 ,3.46766 ,34.02466 
115 ,23.2152 ,1.22623 ,3.42317 ,33.58814 
116 ,23.4070 ,1.22815 ,3.41975 ,33.55457 
117 ,23.5995 ,1.23006 ,3.39237 ,33.28594 
118 ,23.8075 ,1.23217 ,3.38895 ,33.25236 
119 ,24.0152 ,1.23420 ,3.34788 ,32.84942 
120 ,24.2073 ,1.23612 ,3.35130 ,32.88300 
121 ,24.3997 ,1.23808 ,3.33419 ,32.71511 
122 ,24.5919 ,1.23999 ,3.32051 ,32.58080 
123 ,24.8000 ,1.24207 ,3.27944 ,32.17786 
124 ,24.9921 ,1.24401 ,3.29655 ,32.34575 
125 ,25.1841 ,1.24592 ,3.27259 ,32.11070 
126 ,25.3922 ,1.24790 ,3.24522 ,31.84207 
127 ,25.5999 ,1.25006 ,3.23153 ,31.70776 
128 ,25.7923 ,1.25203 ,3.21784 ,31.57345 
129 ,25.9844 ,1.25389 ,3.19046 ,31.30482 
130 ,26.1766 ,1.25586 ,3.17677 ,31.17051 
131 ,26.3691 ,1.25778 ,3.17677 ,31.17051 
132 ,26.5768 ,1.25982 ,3.14255 ,30.83472 
133 ,26.7684 ,1.26181 ,3.14597 ,30.86830 
134 ,26.9770 ,1.26374 ,3.10833 ,30.49894 
135 ,27.1690 ,1.26577 ,3.12544 ,30.66683 
136 ,27.3766 ,1.26777 ,3.08438 ,30.26389 
137 ,27.5688 ,1.26979 ,3.08095 ,30.23031 
138 ,27.7612 ,1.27169 ,3.06042 ,30.02884 
139 ,27.9531 ,1.27357 ,3.03647 ,29.79380 
140 ,28.1454 ,1.27555 ,3.03647 ,29.79380 
141 ,28.3372 ,1.27745 ,3.00224 ,29.45801 
142 ,28.5456 ,1.27956 ,2.99540 ,29.39086 
143 ,28.7371 ,1.28145 ,2.97144 ,29.15581 
144 ,28.9613 ,1.28348 ,2.97829 ,29.22297 
145 ,29.1698 ,1.28570 ,2.93722 ,28.82003 
146 ,29.3778 ,1.28784 ,2.92011 ,28.65213 
147 ,29.5700 ,1.28976 ,2.92696 ,28.71929 
148 ,29.7780 ,1.29182 ,2.88247 ,28.28277 
149 ,29.9702 ,1.29378 ,2.88931 ,28.34993 
150 ,30.1781 ,1.29584 ,2.85167 ,27.98057 
151 ,30.3860 ,1.29792 ,2.85167 ,27.98057 
152 ,30.5784 ,1.29980 ,2.82429 ,27.71194 
153 ,30.7705 ,1.30179 ,2.81402 ,27.61121 
154 ,30.9785 ,1.30384 ,2.79007 ,27.37616 
155 ,31.1702 ,1.30577 ,2.79691 ,27.44332 
156 ,31.3627 ,1.30768 ,2.77980 ,27.27542 
157 ,31.5709 ,1.30979 ,2.76611 ,27.14111 
158 ,31.7629 ,1.31168 ,2.72505 ,26.73817 
159 ,31.9547 ,1.31364 ,2.71136 ,26.60386 
160 ,32.1469 ,1.31550 ,2.71136 ,26.60386 
161 ,32.3390 ,1.31746 ,2.69767 ,26.46954 
162 ,32.5472 ,1.31951 ,2.69083 ,26.40239 
163 ,32.7391 ,1.32143 ,2.64292 ,25.93229 
164 ,32.9311 ,1.32336 ,2.65318 ,26.03303 
165 ,33.1230 ,1.32528 ,2.61554 ,25.66367 
166 ,33.2991 ,1.32715 ,2.60527 ,25.56293 
167 ,33.4914 ,1.32898 ,2.61212 ,25.63009 
168 ,33.6836 ,1.33089 ,2.57789 ,25.29430 
169 ,33.8754 ,1.33286 ,2.56763 ,25.19357 
170 ,34.0677 ,1.33473 ,2.56763 ,25.19357 
171 ,34.2599 ,1.33668 ,2.53683 ,24.89136 
172 ,34.4515 ,1.33865 ,2.52656 ,24.79063 
173 ,34.6440 ,1.34044 ,2.51630 ,24.68989 
174 ,34.8359 ,1.34237 ,2.49234 ,24.45485 
175 ,35.0121 ,1.34425 ,2.49234 ,24.45485 
176 ,35.2039 ,1.34607 ,2.46839 ,24.21980 
177 ,35.3961 ,1.34802 ,2.44101 ,23.95117 
178 ,35.5884 ,1.34990 ,2.43759 ,23.91759 
179 ,35.7963 ,1.35197 ,2.42048 ,23.74970 
180 ,35.9886 ,1.35395 ,2.42048 ,23.74970 
181 ,36.1807 ,1.35588 ,2.38283 ,23.38034 
182 ,36.3733 ,1.35780 ,2.38625 ,23.41392 
183 ,36.5647 ,1.35971 ,2.35888 ,23.14529 
184 ,36.7408 ,1.36158 ,2.35888 ,23.14529 
185 ,36.9325 ,1.36338 ,2.34519 ,23.01098 
186 ,37.1249 ,1.36531 ,2.30070 ,22.57446 
187 ,37.3172 ,1.36716 ,2.30754 ,22.64162 
188 ,37.5093 ,1.36914 ,2.31097 ,22.67520 
189 ,37.7010 ,1.37106 ,2.26648 ,22.23868 
190 ,37.9094 ,1.37309 ,2.26648 ,22.23868 
191 ,38.1495 ,1.37552 ,2.23910 ,21.97005 
192 ,38.3574 ,1.37761 ,2.22199 ,21.80216 
193 ,38.5500 ,1.37952 ,2.22199 ,21.80216 
194 ,38.7577 ,1.38157 ,2.19461 ,21.53353 
195 ,38.9498 ,1.38357 ,2.19461 ,21.53353 
196 ,39.1417 ,1.38547 ,2.15355 ,21.13059 
197 ,39.3500 ,1.38749 ,2.15697 ,21.16417 
198 ,39.5580 ,1.38959 ,2.13986 ,20.99628 
199 ,39.7499 ,1.39150 ,2.13301 ,20.92912 
200 ,39.9418 ,1.39357 ,2.10564 ,20.66050 
201 ,40.1340 ,1.39541 ,2.10564 ,20.66050 
202 ,40.3261 ,1.39729 ,2.07826 ,20.39187 
203 ,40.5184 ,1.39921 ,2.06115 ,20.22398 
204 ,40.7264 ,1.40116 ,2.06457 ,20.25756 
205 ,40.9342 ,1.40341 ,2.04404 ,20.05609 
206 ,41.1263 ,1.40529 ,2.01666 ,19.78746 
207 ,41.3346 ,1.40739 ,2.02350 ,19.85462 
208 ,41.5265 ,1.40925 ,1.98244 ,19.45168 
209 ,41.7349 ,1.41123 ,1.98244 ,19.45168 
210 ,41.9430 ,1.41342 ,1.95506 ,19.18305 
211 ,42.1507 ,1.41546 ,1.95506 ,19.18305 
212 ,42.3431 ,1.41743 ,1.91399 ,18.78011 
213 ,42.5350 ,1.41935 ,1.93111 ,18.94801 
214 ,42.7434 ,1.42147 ,1.90031 ,18.64580 
215 ,42.9514 ,1.42351 ,1.90031 ,18.64580 
216 ,43.1435 ,1.42543 ,1.86608 ,18.31002 
217 ,43.3354 ,1.42736 ,1.86608 ,18.31002 
218 ,43.5273 ,1.42931 ,1.83871 ,18.04139 
219 ,43.7196 ,1.43122 ,1.82844 ,17.94066 
220 ,43.9276 ,1.43326 ,1.80449 ,17.70561 
221 ,44.1199 ,1.43521 ,1.80106 ,17.67203 
222 ,44.3275 ,1.43730 ,1.78395 ,17.50414 
223 ,44.5198 ,1.43923 ,1.76342 ,17.30267 
224 ,44.7279 ,1.44126 ,1.75657 ,17.23551 
225 ,44.9199 ,1.44321 ,1.74973 ,17.16836 
226 ,45.1281 ,1.44531 ,1.73946 ,17.06762 
227 ,45.3201 ,1.44722 ,1.72920 ,16.96689 
228 ,45.5284 ,1.44931 ,1.70524 ,16.73184 
229 ,45.7365 ,1.45142 ,1.69840 ,16.66468 
230 ,45.9283 ,1.45324 ,1.67102 ,16.39605 
231 ,46.1205 ,1.45524 ,1.66418 ,16.32890 
232 ,46.3287 ,1.45728 ,1.63680 ,16.06027 
233 ,46.5364 ,1.45932 ,1.64707 ,16.16101 
234 ,46.7288 ,1.46124 ,1.61627 ,15.85880 
235 ,46.9208 ,1.46321 ,1.60942 ,15.79164 
236 ,47.1452 ,1.46532 ,1.58204 ,15.52302 
237 ,47.3532 ,1.46747 ,1.58889 ,15.59018 
238 ,47.5451 ,1.46945 ,1.54098 ,15.12008 
239 ,47.7373 ,1.47142 ,1.54782 ,15.18724 
240 ,47.9454 ,1.47340 ,1.52387 ,14.95219 
241 ,48.1375 ,1.47532 ,1.53071 ,15.01934 
242 ,48.3297 ,1.47725 ,1.51360 ,14.85145 
243 ,48.5376 ,1.47923 ,1.49649 ,14.68356 
244 ,48.7293 ,1.48127 ,1.47596 ,14.48209 
245 ,48.9219 ,1.48319 ,1.46911 ,14.41493 
246 ,49.1139 ,1.48513 ,1.46227 ,14.34778 
247 ,49.3058 ,1.48701 ,1.42805 ,14.01199 
248 ,49.4982 ,1.48898 ,1.44516 ,14.17989 
249 ,49.6903 ,1.49088 ,1.40409 ,13.77695 
250 ,49.9301 ,1.49318 ,1.41094 ,13.84410 
251 ,50.1383 ,1.49536 ,1.39725 ,13.70979 
252 ,50.3302 ,1.49729 ,1.36303 ,13.37401 
253 ,50.5224 ,1.49918 ,1.36303 ,13.37401 
254 ,50.7145 ,1.50112 ,1.35618 ,13.30685 
255 ,50.9224 ,1.50315 ,1.33565 ,13.10538 
256 ,51.1145 ,1.50510 ,1.31169 ,12.87033 
257 ,51.3066 ,1.50704 ,1.29458 ,12.70244 
258 ,51.4985 ,1.50893 ,1.30485 ,12.80318 
259 ,51.7068 ,1.51099 ,1.26720 ,12.43381 
260 ,51.8989 ,1.51297 ,1.28432 ,12.60171 
261 ,52.1072 ,1.51511 ,1.23641 ,12.13161 
262 ,52.3151 ,1.51711 ,1.25009 ,12.26592 
263 ,52.5074 ,1.51902 ,1.22272 ,11.99730 
264 ,52.7154 ,1.52112 ,1.21929 ,11.96372 
265 ,52.9075 ,1.52312 ,1.18507 ,11.62794 
266 ,53.1475 ,1.52541 ,1.16454 ,11.42647 
267 ,53.3553 ,1.52752 ,1.17481 ,11.52720 
268 ,53.5477 ,1.52940 ,1.15085 ,11.29215 
269 ,53.7398 ,1.53135 ,1.15085 ,11.29215 
270 ,53.9319 ,1.53328 ,1.12005 ,10.98995 
271 ,54.1396 ,1.53533 ,1.12347 ,11.02353 
272 ,54.3482 ,1.53740 ,1.08583 ,10.65416 
273 ,54.5562 ,1.53953 ,1.06530 ,10.45270 
274 ,54.7642 ,1.54164 ,1.07214 ,10.51985 
275 ,54.9565 ,1.54349 ,1.06530 ,10.45270 
276 ,55.1321 ,1.54543 ,1.03792 ,10.18407 
277 ,55.3242 ,1.54718 ,1.02423 ,10.04976 
278 ,55.5162 ,1.54912 ,1.03450 ,10.15049 
279 ,55.7083 ,1.55106 ,1.00370 ,9.84829 
280 ,55.9004 ,1.55294 ,1.00028 ,9.81471 
281 ,56.1244 ,1.55523 ,0.99343 ,9.74755 
282 ,56.3166 ,1.55717 ,0.96948 ,9.51250 
283 ,56.5248 ,1.55921 ,0.95579 ,9.37819 
284 ,56.7329 ,1.56130 ,0.93183 ,9.14314 
285 ,56.9251 ,1.56320 ,0.92841 ,9.10956 
286 ,57.1171 ,1.56512 ,0.91814 ,9.00883 
287 ,57.2929 ,1.56700 ,0.89077 ,8.74020 
288 ,57.4849 ,1.56877 ,0.89077 ,8.74020 
289 ,57.6772 ,1.57075 ,0.87366 ,8.57231 
290 ,57.8699 ,1.57264 ,0.85654 ,8.40442 
291 ,58.0614 ,1.57457 ,0.86339 ,8.47158 
292 ,58.2536 ,1.57651 ,0.83259 ,8.16937 
293 ,58.4456 ,1.57836 ,0.83259 ,8.16937 
294 ,58.6371 ,1.58040 ,0.81206 ,7.96790 
295 ,58.8293 ,1.58225 ,0.80863 ,7.93432 
296 ,59.0376 ,1.58429 ,0.78810 ,7.73285 
297 ,59.2781 ,1.58664 ,0.77784 ,7.63212 
298 ,59.4702 ,1.58869 ,0.75730 ,7.43065 
299 ,59.6617 ,1.59057 ,0.76757 ,7.53138 
300 ,59.8543 ,1.59253 ,0.73335 ,7.19560 
301 ,60.0623 ,1.59460 ,0.73677 ,7.22918 
302 ,60.2543 ,1.59646 ,0.69913 ,6.85982 
303 ,60.4463 ,1.59843 ,0.70939 ,6.96055 
304 ,60.6385 ,1.60028 ,0.68544 ,6.72550 
305 ,60.8306 ,1.60241 ,0.68544 ,6.72550 
306 ,61.0227 ,1.60417 ,0.68544 ,6.72550 
307 ,61.2149 ,1.60608 ,0.63753 ,6.25541 
308 ,61.4229 ,1.60818 ,0.64095 ,6.28899 
309 ,61.6309 ,1.61026 ,0.62384 ,6.12109 
310 ,61.8229 ,1.61219 ,0.62042 ,6.08752 
311 ,62.0146 ,1.61407 ,0.59646 ,5.85247 
312 ,62.2233 ,1.61612 ,0.59646 ,5.85247 
313 ,62.4150 ,1.61806 ,0.57593 ,5.65100 
314 ,62.6073 ,1.62004 ,0.56566 ,5.55026 
315 ,62.8152 ,1.62198 ,0.54855 ,5.38237 
316 ,63.0396 ,1.62431 ,0.55197 ,5.41595 
317 ,63.2477 ,1.62643 ,0.54171 ,5.31522 
318 ,63.4397 ,1.62835 ,0.52117 ,5.11375 
319 ,63.6317 ,1.63025 ,0.50748 ,4.97943 
320 ,63.8237 ,1.63219 ,0.51091 ,5.01301 
321 ,64.0156 ,1.63407 ,0.46642 ,4.57649 
322 ,64.2079 ,1.63605 ,0.47668 ,4.67723 
323 ,64.3999 ,1.63791 ,0.45615 ,4.47576 
324 ,64.5921 ,1.63982 ,0.45957 ,4.50934 
325 ,64.7838 ,1.64183 ,0.43220 ,4.24071 
326 ,64.9760 ,1.64363 ,0.42877 ,4.20713 
327 ,65.1681 ,1.64560 ,0.42535 ,4.17355 
328 ,65.3602 ,1.64756 ,0.41166 ,4.03924 
329 ,65.5528 ,1.64941 ,0.40140 ,3.93850 
330 ,65.7446 ,1.65138 ,0.39797 ,3.90493 
331 ,65.9527 ,1.65341 ,0.37402 ,3.66988 
332 ,66.1607 ,1.65552 ,0.36033 ,3.53557 
333 ,66.3363 ,1.65736 ,0.34322 ,3.36767 
334 ,66.5288 ,1.65917 ,0.35006 ,3.43483 
335 ,66.7208 ,1.66113 ,0.32953 ,3.23336 
336 ,66.9129 ,1.66312 ,0.33295 ,3.26694 
337 ,67.1052 ,1.66498 ,0.31584 ,3.09905 
338 ,67.3130 ,1.66707 ,0.30215 ,2.96473 
339 ,67.5054 ,1.66897 ,0.29189 ,2.86400 
340 ,67.7132 ,1.67107 ,0.27135 ,2.66253 
341 ,67.9214 ,1.67316 ,0.25082 ,2.46106 
342 ,68.1456 ,1.67534 ,0.25424 ,2.49464 
343 ,68.3537 ,1.67741 ,0.22344 ,2.19243 
344 ,68.5297 ,1.67935 ,0.24055 ,2.36032 
345 ,68.7379 ,1.68116 ,0.22002 ,2.15885 
346 ,68.9298 ,1.68324 ,0.22002 ,2.15885 
347 ,69.1219 ,1.68514 ,0.18238 ,1.78949 
348 ,69.3142 ,1.68705 ,0.18580 ,1.82307 
349 ,69.5061 ,1.68900 ,0.18238 ,1.78949 
350 ,69.7142 ,1.69101 ,0.14816 ,1.45371 
351 ,69.9223 ,1.69316 ,0.15158 ,1.48729 
352 ,70.1301 ,1.69524 ,0.15842 ,1.55445 
353 ,70.3224 ,1.69709 ,0.12420 ,1.21866 
354 ,70.5146 ,1.69906 ,0.10367 ,1.01719 
355 ,70.7226 ,1.70111 ,0.10367 ,1.01719 
356 ,70.9147 ,1.70304 ,0.09682 ,0.95004 
357 ,71.1068 ,1.70495 ,0.09340 ,0.91646 
358 ,71.3149 ,1.70705 ,0.06602 ,0.64783 
359 ,71.4909 ,1.70891 ,0.08656 ,0.84930 
360 ,71.6831 ,1.71075 ,0.05918 ,0.58067 
361 ,71.8747 ,1.71279 ,0.04891 ,0.47994 
362 ,72.0672 ,1.71458 ,0.04207 ,0.41278 
363 ,72.2593 ,1.71649 ,0.00785 ,0.07700 
364 ,72.4512 ,1.71839 ,0.01811 ,0.17773 
365 ,72.6434 ,1.72032 ,-0.00242 ,-0.02373 
366 ,72.8351 ,1.72220 ,-0.01611 ,-0.15805 
367 ,73.0113 ,1.72419 ,-0.00926 ,-0.09089 
368 ,73.2194 ,1.72608 ,-0.02980 ,-0.29236 
369 ,73.4115 ,1.72817 ,-0.02295 ,-0.22520 
370 ,73.6036 ,1.72990 ,-0.05033 ,-0.49383 
371 ,73.7957 ,1.73178 ,-0.06060 ,-0.59457 
372 ,73.9716 ,1.73375 ,-0.05717 ,-0.56099 
373 ,74.1639 ,1.73554 ,-0.09140 ,-0.89677 
374 ,74.3719 ,1.73758 ,-0.08797 ,-0.86319 
375 ,74.5801 ,1.73959 ,-0.09824 ,-0.96393 
376 ,74.7882 ,1.74175 ,-0.09824 ,-0.96393 
377 ,74.9963 ,1.74381 ,-0.12904 ,-1.26613 
378 ,75.1882 ,1.74576 ,-0.12562 ,-1.23255 
379 ,75.3803 ,1.74768 ,-0.15299 ,-1.50118 
380 ,75.5726 ,1.74962 ,-0.15299 ,-1.50118 
381 ,75.7804 ,1.75171 ,-0.17353 ,-1.70265 
382 ,75.9887 ,1.75376 ,-0.16326 ,-1.60191 
383 ,76.1804 ,1.75579 ,-0.19406 ,-1.90412 
384 ,76.3727 ,1.75759 ,-0.18722 ,-1.83696 
385 ,76.5650 ,1.75953 ,-0.20775 ,-2.03843 
386 ,76.7571 ,1.76147 ,-0.21802 ,-2.13917 
387 ,76.9649 ,1.76356 ,-0.21459 ,-2.10559 
388 ,77.1573 ,1.76542 ,-0.23170 ,-2.27348 
389 ,77.3651 ,1.76756 ,-0.24197 ,-2.37422 
390 ,77.5735 ,1.76959 ,-0.23855 ,-2.34064 
391 ,77.7655 ,1.77156 ,-0.26935 ,-2.64284 
392 ,77.9575 ,1.77342 ,-0.27961 ,-2.74358 
393 ,78.1498 ,1.77535 ,-0.27277 ,-2.67642 
394 ,78.3413 ,1.77729 ,-0.30015 ,-2.94505 
395 ,78.5337 ,1.77921 ,-0.29330 ,-2.87789 
396 ,78.7257 ,1.78113 ,-0.30015 ,-2.94505 
397 ,78.9338 ,1.78322 ,-0.31041 ,-3.04578 
398 ,79.1421 ,1.78526 ,-0.32752 ,-3.21367 
399 ,79.3502 ,1.78737 ,-0.33437 ,-3.28083 
400 ,79.5581 ,1.78949 ,-0.35490 ,-3.48230 
401 ,79.7660 ,1.79158 ,-0.35490 ,-3.48230 
402 ,79.9584 ,1.79346 ,-0.37544 ,-3.68377 
403 ,80.1983 ,1.79587 ,-0.38228 ,-3.75093 
404 ,80.4066 ,1.79790 ,-0.38912 ,-3.81808 
405 ,80.5986 ,1.79986 ,-0.41308 ,-4.05313 
406 ,80.8066 ,1.80189 ,-0.41650 ,-4.08671 
407 ,80.9988 ,1.80384 ,-0.40966 ,-4.01955 
408 ,81.1907 ,1.80581 ,-0.41308 ,-4.05313 
409 ,81.3830 ,1.80770 ,-0.45072 ,-4.42249 
410 ,81.5752 ,1.80961 ,-0.44046 ,-4.32176 
411 ,81.7671 ,1.81155 ,-0.45414 ,-4.45607 
412 ,81.9751 ,1.81359 ,-0.46099 ,-4.52323 
413 ,82.1673 ,1.81555 ,-0.47810 ,-4.69112 
414 ,82.3593 ,1.81750 ,-0.50206 ,-4.92617 
415 ,82.5673 ,1.81954 ,-0.50206 ,-4.92617 
416 ,82.7591 ,1.82143 ,-0.51917 ,-5.09406 
417 ,82.9518 ,1.82336 ,-0.51232 ,-5.02690 
418 ,83.2077 ,1.82579 ,-0.52943 ,-5.19479 
419 ,83.3999 ,1.82785 ,-0.53628 ,-5.26195 
420 ,83.6079 ,1.82995 ,-0.53285 ,-5.22837 
421 ,83.7995 ,1.83189 ,-0.57050 ,-5.59773 
422 ,83.9921 ,1.83379 ,-0.54312 ,-5.32911 
423 ,84.2001 ,1.83584 ,-0.58761 ,-5.76562 
424 ,84.4082 ,1.83798 ,-0.57392 ,-5.63131 
425 ,84.6003 ,1.83984 ,-0.58761 ,-5.76562 
426 ,84.8084 ,1.84188 ,-0.60472 ,-5.93352 
427 ,85.0004 ,1.84387 ,-0.62183 ,-6.10141 
428 ,85.1926 ,1.84573 ,-0.60814 ,-5.96709 
429 ,85.3847 ,1.84770 ,-0.63210 ,-6.20214 
430 ,85.5927 ,1.84981 ,-0.62868 ,-6.16856 
431 ,85.7848 ,1.85168 ,-0.65263 ,-6.40361 
432 ,85.9764 ,1.85362 ,-0.64921 ,-6.37003 
433 ,86.2169 ,1.85591 ,-0.67316 ,-6.60508 
434 ,86.4249 ,1.85809 ,-0.67316 ,-6.60508 
435 ,86.6169 ,1.85997 ,-0.68343 ,-6.70582 
436 ,86.8247 ,1.86207 ,-0.70739 ,-6.94086 
437 ,87.0170 ,1.86408 ,-0.69370 ,-6.80655 
438 ,87.2249 ,1.86604 ,-0.71081 ,-6.97444 
439 ,87.4174 ,1.86800 ,-0.73476 ,-7.20949 
440 ,87.6251 ,1.87006 ,-0.74161 ,-7.27665 
441 ,87.8176 ,1.87203 ,-0.74161 ,-7.27665 
442 ,88.0097 ,1.87395 ,-0.75530 ,-7.41096 
443 ,88.2014 ,1.87586 ,-0.76556 ,-7.51170 
444 ,88.3936 ,1.87783 ,-0.77241 ,-7.57885 
445 ,88.5857 ,1.87972 ,-0.79294 ,-7.78032 
446 ,88.7941 ,1.88179 ,-0.77241 ,-7.57885 
447 ,88.9855 ,1.88372 ,-0.81005 ,-7.94821 
448 ,89.1942 ,1.88577 ,-0.80663 ,-7.91464 
449 ,89.4022 ,1.88780 ,-0.82716 ,-8.11611 
450 ,89.5942 ,1.88974 ,-0.80663 ,-7.91464 
451 ,89.7863 ,1.89167 ,-0.83743 ,-8.21684 
452 ,89.9944 ,1.89376 ,-0.83401 ,-8.18326 
453 ,90.1865 ,1.89571 ,-0.85454 ,-8.38473 
454 ,90.3943 ,1.89775 ,-0.84769 ,-8.31758 
455 ,90.5864 ,1.89976 ,-0.87507 ,-8.58620 
456 ,90.7948 ,1.90175 ,-0.87165 ,-8.55262 
457 ,90.9867 ,1.90366 ,-0.87849 ,-8.61978 
458 ,91.1789 ,1.90562 ,-0.89218 ,-8.75409 
459 ,91.3715 ,1.90750 ,-0.90587 ,-8.88841 
460 ,91.5787 ,1.90959 ,-0.91956 ,-9.02272 
461 ,91.7713 ,1.91151 ,-0.92298 ,-9.05630 
462 ,91.9633 ,1.91345 ,-0.92983 ,-9.12345 
463 ,92.1715 ,1.91556 ,-0.92983 ,-9.12345 
