Data stamp = , 01-05-2022 23:05:55 457

Calibration Values: 
Slope = , 26.54 , g/V 
Offset Voltage at no contact = , -0.501760 , V 

No , Time , Stage Position ,   Mass , Force 
   ,  (s) ,      (mm)      ,   (g)  , (mN)  

1 ,0.0000 ,0.99945 ,5.35327 ,52.52631 
2 ,0.2080 ,0.99953 ,5.35327 ,52.52631 
3 ,0.7525 ,1.00157 ,5.35327 ,52.52631 
4 ,0.9768 ,1.00385 ,5.35669 ,52.55988 
5 ,1.2007 ,1.00614 ,5.33958 ,52.39199 
6 ,1.4090 ,1.00815 ,5.34301 ,52.42557 
7 ,1.6170 ,1.01033 ,5.32247 ,52.22410 
8 ,1.8091 ,1.01226 ,5.29852 ,51.98905 
9 ,2.0172 ,1.01437 ,5.28825 ,51.88832 
10 ,2.2093 ,1.01630 ,5.25745 ,51.58611 
11 ,2.4174 ,1.01835 ,5.25745 ,51.58611 
12 ,2.6093 ,1.02029 ,5.21639 ,51.18317 
13 ,2.8175 ,1.02226 ,5.20270 ,51.04886 
14 ,3.0255 ,1.02444 ,5.17190 ,50.74666 
15 ,3.2177 ,1.02635 ,5.16505 ,50.67950 
16 ,3.4093 ,1.02826 ,5.13768 ,50.41087 
17 ,3.5858 ,1.03019 ,5.13768 ,50.41087 
18 ,3.7779 ,1.03192 ,5.10688 ,50.10867 
19 ,4.0180 ,1.03417 ,5.08977 ,49.94078 
20 ,4.2260 ,1.03642 ,5.05897 ,49.63857 
21 ,4.4178 ,1.03833 ,5.05897 ,49.63857 
22 ,4.6097 ,1.04023 ,5.02132 ,49.26921 
23 ,4.7859 ,1.04215 ,5.01790 ,49.23563 
24 ,4.9620 ,1.04390 ,5.01448 ,49.20205 
25 ,5.1704 ,1.04578 ,4.98026 ,48.86627 
26 ,5.3785 ,1.04795 ,4.95288 ,48.59764 
27 ,5.5703 ,1.04985 ,4.93235 ,48.39618 
28 ,5.7625 ,1.05179 ,4.91866 ,48.26186 
29 ,5.9705 ,1.05390 ,4.88444 ,47.92608 
30 ,6.1466 ,1.05577 ,4.88786 ,47.95966 
31 ,6.3389 ,1.05756 ,4.86732 ,47.75819 
32 ,6.5310 ,1.05947 ,4.82968 ,47.38883 
33 ,6.7390 ,1.06154 ,4.83652 ,47.45598 
34 ,6.9310 ,1.06351 ,4.79546 ,47.05304 
35 ,7.1232 ,1.06542 ,4.79546 ,47.05304 
36 ,7.3152 ,1.06731 ,4.77835 ,46.88515 
37 ,7.5234 ,1.06941 ,4.76466 ,46.75084 
38 ,7.7154 ,1.07133 ,4.72702 ,46.38148 
39 ,7.9235 ,1.07342 ,4.73044 ,46.41506 
40 ,8.1315 ,1.07546 ,4.69279 ,46.04569 
41 ,8.3237 ,1.07741 ,4.68253 ,45.94496 
42 ,8.5317 ,1.07947 ,4.65173 ,45.64275 
43 ,8.7238 ,1.08146 ,4.65173 ,45.64275 
44 ,8.9156 ,1.08343 ,4.61751 ,45.30697 
45 ,9.1080 ,1.08524 ,4.60040 ,45.13908 
46 ,9.3162 ,1.08732 ,4.59013 ,45.03835 
47 ,9.5082 ,1.08926 ,4.56960 ,44.83688 
48 ,9.7323 ,1.09149 ,4.54564 ,44.60183 
49 ,9.9242 ,1.09340 ,4.54222 ,44.56825 
50 ,10.1165 ,1.09531 ,4.51142 ,44.26604 
51 ,10.3085 ,1.09729 ,4.49431 ,44.09815 
52 ,10.5006 ,1.09920 ,4.48404 ,43.99742 
53 ,10.7086 ,1.10120 ,4.44982 ,43.66163 
54 ,10.9005 ,1.10317 ,4.46351 ,43.79595 
55 ,11.0925 ,1.10505 ,4.42586 ,43.42659 
56 ,11.2849 ,1.10701 ,4.41560 ,43.32585 
57 ,11.4931 ,1.10907 ,4.37795 ,42.95649 
58 ,11.6852 ,1.11102 ,4.37111 ,42.88933 
59 ,11.8773 ,1.11298 ,4.35058 ,42.68786 
60 ,12.0854 ,1.11502 ,4.35400 ,42.72144 
61 ,12.2931 ,1.11707 ,4.31978 ,42.38566 
62 ,12.4856 ,1.11907 ,4.30609 ,42.25135 
63 ,12.7093 ,1.12117 ,4.27529 ,41.94914 
64 ,12.9016 ,1.12316 ,4.27871 ,41.98272 
65 ,13.1098 ,1.12526 ,4.24791 ,41.68051 
66 ,13.2858 ,1.12714 ,4.24791 ,41.68051 
67 ,13.4779 ,1.12892 ,4.22396 ,41.44547 
68 ,13.6700 ,1.13083 ,4.19316 ,41.14326 
69 ,13.8622 ,1.13280 ,4.18289 ,41.04253 
70 ,14.0542 ,1.13472 ,4.16920 ,40.90821 
71 ,14.2462 ,1.13665 ,4.14867 ,40.70674 
72 ,14.4382 ,1.13853 ,4.13156 ,40.53885 
73 ,14.6300 ,1.14042 ,4.09734 ,40.20307 
74 ,14.8224 ,1.14234 ,4.10760 ,40.30380 
75 ,15.0145 ,1.14427 ,4.08023 ,40.03518 
76 ,15.2225 ,1.14634 ,4.08023 ,40.03518 
77 ,15.4143 ,1.14825 ,4.03916 ,39.63224 
78 ,15.6226 ,1.15032 ,4.03232 ,39.56508 
79 ,15.8148 ,1.15227 ,4.00152 ,39.26288 
80 ,16.0226 ,1.15440 ,4.00152 ,39.26288 
81 ,16.2150 ,1.15629 ,3.97414 ,38.99425 
82 ,16.4070 ,1.15820 ,3.96387 ,38.89352 
83 ,16.5989 ,1.16013 ,3.95018 ,38.75920 
84 ,16.8073 ,1.16221 ,3.92623 ,38.52415 
85 ,17.0152 ,1.16432 ,3.89543 ,38.22195 
86 ,17.2074 ,1.16622 ,3.88858 ,38.15479 
87 ,17.4156 ,1.16829 ,3.86805 ,37.95332 
88 ,17.6071 ,1.17021 ,3.84752 ,37.75185 
89 ,17.7998 ,1.17211 ,3.84410 ,37.71828 
90 ,17.9918 ,1.17405 ,3.82014 ,37.48323 
91 ,18.1840 ,1.17599 ,3.80645 ,37.34891 
92 ,18.3919 ,1.17806 ,3.78592 ,37.14744 
93 ,18.5840 ,1.18001 ,3.78250 ,37.11387 
94 ,18.7761 ,1.18190 ,3.75512 ,36.84524 
95 ,18.9843 ,1.18396 ,3.73459 ,36.64377 
96 ,19.1923 ,1.18610 ,3.72432 ,36.54303 
97 ,19.4001 ,1.18808 ,3.70721 ,36.37514 
98 ,19.5924 ,1.19007 ,3.68325 ,36.14010 
99 ,19.7840 ,1.19197 ,3.67299 ,36.03936 
100 ,19.9766 ,1.19394 ,3.64561 ,35.77073 
101 ,20.1847 ,1.19598 ,3.63534 ,35.67000 
102 ,20.3768 ,1.19791 ,3.61139 ,35.43495 
103 ,20.5685 ,1.19979 ,3.59770 ,35.30064 
104 ,20.7609 ,1.20173 ,3.57717 ,35.09917 
105 ,20.9691 ,1.20385 ,3.56690 ,34.99843 
106 ,21.1771 ,1.20591 ,3.53952 ,34.72981 
107 ,21.3689 ,1.20776 ,3.52584 ,34.59549 
108 ,21.6087 ,1.20999 ,3.50530 ,34.39402 
109 ,21.8169 ,1.21231 ,3.49161 ,34.25971 
110 ,22.0088 ,1.21426 ,3.48135 ,34.15898 
111 ,22.2010 ,1.21613 ,3.45397 ,33.89035 
112 ,22.3934 ,1.21805 ,3.43001 ,33.65530 
113 ,22.6016 ,1.22015 ,3.43001 ,33.65530 
114 ,22.7935 ,1.22209 ,3.39921 ,33.35310 
115 ,22.9857 ,1.22395 ,3.39237 ,33.28594 
116 ,23.1778 ,1.22591 ,3.36499 ,33.01731 
117 ,23.3858 ,1.22799 ,3.36157 ,32.98374 
118 ,23.5780 ,1.22990 ,3.33762 ,32.74869 
119 ,23.7861 ,1.23200 ,3.33419 ,32.71511 
120 ,23.9779 ,1.23394 ,3.29313 ,32.31217 
121 ,24.1699 ,1.23582 ,3.29655 ,32.34575 
122 ,24.3627 ,1.23776 ,3.27944 ,32.17786 
123 ,24.5701 ,1.23983 ,3.26917 ,32.07712 
124 ,24.7626 ,1.24168 ,3.23495 ,31.74134 
125 ,24.9866 ,1.24394 ,3.22811 ,31.67418 
126 ,25.1947 ,1.24606 ,3.20757 ,31.47271 
127 ,25.3868 ,1.24799 ,3.20073 ,31.40555 
128 ,25.5790 ,1.24987 ,3.16651 ,31.06977 
129 ,25.7870 ,1.25197 ,3.16309 ,31.03619 
130 ,25.9791 ,1.25388 ,3.13229 ,30.73399 
131 ,26.1710 ,1.25577 ,3.13229 ,30.73399 
132 ,26.3629 ,1.25771 ,3.11860 ,30.59968 
133 ,26.5713 ,1.25975 ,3.09122 ,30.33105 
134 ,26.7794 ,1.26185 ,3.06042 ,30.02884 
135 ,26.9713 ,1.26379 ,3.06726 ,30.09600 
136 ,27.1636 ,1.26573 ,3.03647 ,29.79380 
137 ,27.3719 ,1.26769 ,3.02278 ,29.65948 
138 ,27.5793 ,1.26988 ,3.00224 ,29.45801 
139 ,27.7718 ,1.27179 ,2.99198 ,29.35728 
140 ,27.9640 ,1.27376 ,2.98171 ,29.25654 
141 ,28.1560 ,1.27570 ,2.96118 ,29.05507 
142 ,28.3642 ,1.27774 ,2.94749 ,28.92076 
143 ,28.5718 ,1.27973 ,2.92011 ,28.65213 
144 ,28.7800 ,1.28183 ,2.91669 ,28.61856 
145 ,28.9883 ,1.28393 ,2.89616 ,28.41709 
146 ,29.1803 ,1.28591 ,2.87562 ,28.21562 
147 ,29.3725 ,1.28779 ,2.87220 ,28.18204 
148 ,29.5801 ,1.28988 ,2.84825 ,27.94699 
149 ,29.7725 ,1.29176 ,2.84482 ,27.91341 
150 ,29.9806 ,1.29386 ,2.80718 ,27.54405 
151 ,30.1728 ,1.29583 ,2.81060 ,27.57763 
152 ,30.3970 ,1.29804 ,2.78322 ,27.30900 
153 ,30.6208 ,1.30021 ,2.76611 ,27.14111 
154 ,30.8126 ,1.30222 ,2.74216 ,26.90606 
155 ,31.0211 ,1.30424 ,2.73874 ,26.87248 
156 ,31.2131 ,1.30622 ,2.71820 ,26.67101 
157 ,31.3893 ,1.30810 ,2.69425 ,26.43597 
158 ,31.5973 ,1.31001 ,2.67714 ,26.26807 
159 ,31.7894 ,1.31198 ,2.68740 ,26.36881 
160 ,31.9974 ,1.31407 ,2.64976 ,25.99945 
161 ,32.1894 ,1.31597 ,2.64292 ,25.93229 
162 ,32.3814 ,1.31786 ,2.62238 ,25.73082 
163 ,32.5736 ,1.31980 ,2.61212 ,25.63009 
164 ,32.7658 ,1.32173 ,2.61554 ,25.66367 
165 ,32.9575 ,1.32366 ,2.57789 ,25.29430 
166 ,33.1496 ,1.32557 ,2.57105 ,25.22715 
167 ,33.3581 ,1.32769 ,2.55736 ,25.09283 
168 ,33.5501 ,1.32958 ,2.54367 ,24.95852 
169 ,33.7422 ,1.33149 ,2.51972 ,24.72347 
170 ,33.9342 ,1.33345 ,2.50603 ,24.58916 
171 ,34.1261 ,1.33531 ,2.49234 ,24.45485 
172 ,34.3344 ,1.33734 ,2.46839 ,24.21980 
173 ,34.5423 ,1.33951 ,2.44443 ,23.98475 
174 ,34.7344 ,1.34139 ,2.45812 ,24.11906 
175 ,34.9426 ,1.34350 ,2.42390 ,23.78328 
176 ,35.1346 ,1.34538 ,2.42732 ,23.81686 
177 ,35.3264 ,1.34744 ,2.39310 ,23.48108 
178 ,35.5186 ,1.34926 ,2.38625 ,23.41392 
179 ,35.7108 ,1.35114 ,2.39310 ,23.48108 
180 ,35.9351 ,1.35330 ,2.35203 ,23.07814 
181 ,36.1272 ,1.35537 ,2.33834 ,22.94382 
182 ,36.3351 ,1.35739 ,2.32465 ,22.80951 
183 ,36.5273 ,1.35932 ,2.32123 ,22.77593 
184 ,36.7194 ,1.36123 ,2.28701 ,22.44015 
185 ,36.9276 ,1.36335 ,2.28017 ,22.37299 
186 ,37.1192 ,1.36525 ,2.26306 ,22.20510 
187 ,37.3113 ,1.36713 ,2.26306 ,22.20510 
188 ,37.5357 ,1.36932 ,2.22541 ,21.83574 
189 ,37.7438 ,1.37153 ,2.20488 ,21.63427 
190 ,37.9359 ,1.37343 ,2.20830 ,21.66785 
191 ,38.1280 ,1.37532 ,2.19803 ,21.56711 
192 ,38.3198 ,1.37724 ,2.17750 ,21.36564 
193 ,38.5281 ,1.37930 ,2.17408 ,21.33206 
194 ,38.7200 ,1.38124 ,2.15012 ,21.09702 
195 ,38.9122 ,1.38318 ,2.13644 ,20.96270 
196 ,39.1203 ,1.38520 ,2.09879 ,20.59334 
197 ,39.3124 ,1.38717 ,2.10906 ,20.69408 
198 ,39.5044 ,1.38908 ,2.08168 ,20.42545 
199 ,39.7124 ,1.39112 ,2.07826 ,20.39187 
200 ,39.9367 ,1.39329 ,2.06115 ,20.22398 
201 ,40.1446 ,1.39551 ,2.03035 ,19.92178 
202 ,40.3369 ,1.39743 ,2.04061 ,20.02251 
203 ,40.5447 ,1.39950 ,2.00639 ,19.68673 
204 ,40.7370 ,1.40140 ,2.00982 ,19.72031 
205 ,40.9288 ,1.40331 ,1.98928 ,19.51884 
206 ,41.1372 ,1.40529 ,1.96533 ,19.28379 
207 ,41.3454 ,1.40750 ,1.95164 ,19.14948 
208 ,41.5374 ,1.40943 ,1.95506 ,19.18305 
209 ,41.7451 ,1.41137 ,1.93453 ,18.98158 
210 ,41.9536 ,1.41357 ,1.92426 ,18.88085 
211 ,42.1616 ,1.41568 ,1.90031 ,18.64580 
212 ,42.3697 ,1.41762 ,1.89004 ,18.54507 
213 ,42.5618 ,1.41964 ,1.85240 ,18.17570 
214 ,42.7858 ,1.42192 ,1.84897 ,18.14213 
215 ,42.9780 ,1.42380 ,1.82844 ,17.94066 
216 ,43.1861 ,1.42591 ,1.82160 ,17.87350 
217 ,43.3782 ,1.42785 ,1.82160 ,17.87350 
218 ,43.5702 ,1.42970 ,1.81133 ,17.77276 
219 ,43.7784 ,1.43182 ,1.79422 ,17.60487 
220 ,43.9859 ,1.43384 ,1.76684 ,17.33625 
221 ,44.1784 ,1.43579 ,1.76684 ,17.33625 
222 ,44.3704 ,1.43773 ,1.74289 ,17.10120 
223 ,44.5466 ,1.43957 ,1.71893 ,16.86615 
224 ,44.7547 ,1.44148 ,1.71893 ,16.86615 
225 ,44.9628 ,1.44367 ,1.69840 ,16.66468 
226 ,45.1547 ,1.44556 ,1.69498 ,16.63110 
227 ,45.3469 ,1.44750 ,1.67102 ,16.39605 
228 ,45.5389 ,1.44944 ,1.67786 ,16.46321 
229 ,45.7471 ,1.45151 ,1.63338 ,16.02669 
230 ,45.9548 ,1.45359 ,1.64364 ,16.12743 
231 ,46.1468 ,1.45543 ,1.60942 ,15.79164 
232 ,46.3392 ,1.45740 ,1.62311 ,15.92596 
233 ,46.5475 ,1.45954 ,1.58889 ,15.59018 
234 ,46.7393 ,1.46140 ,1.57178 ,15.42228 
235 ,46.9477 ,1.46352 ,1.56836 ,15.38871 
236 ,47.1398 ,1.46543 ,1.55124 ,15.22081 
237 ,47.3478 ,1.46745 ,1.53071 ,15.01934 
238 ,47.5397 ,1.46942 ,1.52387 ,14.95219 
239 ,47.7320 ,1.47136 ,1.51018 ,14.81787 
240 ,47.9397 ,1.47341 ,1.49307 ,14.64998 
241 ,48.1319 ,1.47532 ,1.49649 ,14.68356 
242 ,48.3558 ,1.47739 ,1.45885 ,14.31420 
243 ,48.5483 ,1.47954 ,1.44858 ,14.21346 
244 ,48.7564 ,1.48158 ,1.45200 ,14.24704 
245 ,48.9483 ,1.48352 ,1.42462 ,13.97842 
246 ,49.1404 ,1.48537 ,1.43147 ,14.04557 
247 ,49.3326 ,1.48732 ,1.41436 ,13.87768 
248 ,49.5080 ,1.48921 ,1.38356 ,13.57548 
249 ,49.7006 ,1.49101 ,1.37671 ,13.50832 
250 ,49.9088 ,1.49306 ,1.35618 ,13.30685 
251 ,50.1007 ,1.49499 ,1.33907 ,13.13896 
252 ,50.3091 ,1.49697 ,1.35960 ,13.34043 
253 ,50.5011 ,1.49902 ,1.33223 ,13.07180 
254 ,50.7093 ,1.50112 ,1.31169 ,12.87033 
255 ,50.9172 ,1.50315 ,1.31169 ,12.87033 
256 ,51.1093 ,1.50507 ,1.27063 ,12.46739 
257 ,51.3009 ,1.50700 ,1.27405 ,12.50097 
258 ,51.5090 ,1.50901 ,1.26720 ,12.43381 
259 ,51.7170 ,1.51115 ,1.25352 ,12.29950 
260 ,51.9094 ,1.51313 ,1.22614 ,12.03088 
261 ,52.1659 ,1.51563 ,1.21245 ,11.89656 
262 ,52.3739 ,1.51777 ,1.20903 ,11.86298 
263 ,52.5661 ,1.51966 ,1.18507 ,11.62794 
264 ,52.7736 ,1.52172 ,1.18850 ,11.66151 
265 ,52.9821 ,1.52379 ,1.17138 ,11.49362 
266 ,53.1903 ,1.52587 ,1.13716 ,11.15784 
267 ,53.3983 ,1.52794 ,1.14743 ,11.25857 
268 ,53.5901 ,1.52984 ,1.11321 ,10.92279 
269 ,53.8143 ,1.53214 ,1.11663 ,10.95637 
270 ,54.0225 ,1.53427 ,1.09610 ,10.75490 
271 ,54.2305 ,1.53626 ,1.07556 ,10.55343 
272 ,54.4227 ,1.53822 ,1.06187 ,10.41912 
273 ,54.6146 ,1.54017 ,1.05161 ,10.31838 
274 ,54.8550 ,1.54256 ,1.05503 ,10.35196 
275 ,55.0470 ,1.54450 ,1.01739 ,9.98260 
276 ,55.2712 ,1.54660 ,1.02423 ,10.04976 
277 ,55.4791 ,1.54874 ,1.01396 ,9.94902 
278 ,55.6712 ,1.55071 ,0.98317 ,9.64682 
279 ,55.8633 ,1.55260 ,0.97632 ,9.57966 
280 ,56.0550 ,1.55450 ,0.96948 ,9.51250 
281 ,56.2635 ,1.55661 ,0.94894 ,9.31103 
282 ,56.4716 ,1.55865 ,0.92157 ,9.04241 
283 ,56.6637 ,1.56062 ,0.91472 ,8.97525 
284 ,56.8557 ,1.56254 ,0.91814 ,9.00883 
285 ,57.0639 ,1.56466 ,0.89419 ,8.77378 
286 ,57.2718 ,1.56662 ,0.87708 ,8.60589 
287 ,57.4640 ,1.56862 ,0.86681 ,8.50515 
288 ,57.6719 ,1.57071 ,0.84970 ,8.33726 
289 ,57.8641 ,1.57263 ,0.83601 ,8.20295 
290 ,58.0562 ,1.57457 ,0.83601 ,8.20295 
291 ,58.2479 ,1.57649 ,0.80179 ,7.86717 
292 ,58.4564 ,1.57853 ,0.81206 ,7.96790 
293 ,58.6644 ,1.58063 ,0.79495 ,7.80001 
294 ,58.8565 ,1.58257 ,0.77441 ,7.59854 
295 ,59.0645 ,1.58461 ,0.76757 ,7.53138 
296 ,59.2563 ,1.58656 ,0.78468 ,7.69927 
297 ,59.4485 ,1.58849 ,0.73677 ,7.22918 
298 ,59.6408 ,1.59035 ,0.74019 ,7.26276 
299 ,59.8327 ,1.59231 ,0.70255 ,6.89340 
300 ,60.0410 ,1.59438 ,0.72308 ,7.09486 
301 ,60.2329 ,1.59629 ,0.68886 ,6.75908 
302 ,60.4728 ,1.59871 ,0.67859 ,6.65835 
303 ,60.6811 ,1.60073 ,0.68201 ,6.69193 
304 ,60.8733 ,1.60273 ,0.65464 ,6.42330 
305 ,61.0655 ,1.60464 ,0.64095 ,6.28899 
306 ,61.2574 ,1.60656 ,0.64437 ,6.32256 
307 ,61.4495 ,1.60846 ,0.61699 ,6.05394 
308 ,61.6252 ,1.61034 ,0.61699 ,6.05394 
309 ,61.8177 ,1.61217 ,0.61015 ,5.98678 
310 ,62.0258 ,1.61426 ,0.58962 ,5.78531 
311 ,62.2338 ,1.61620 ,0.57251 ,5.61742 
312 ,62.4418 ,1.61841 ,0.57251 ,5.61742 
313 ,62.6339 ,1.62029 ,0.55539 ,5.44953 
314 ,62.8261 ,1.62222 ,0.53828 ,5.28164 
315 ,63.0342 ,1.62431 ,0.53828 ,5.28164 
316 ,63.2262 ,1.62622 ,0.52802 ,5.18090 
317 ,63.4184 ,1.62812 ,0.51091 ,5.01301 
318 ,63.6262 ,1.63023 ,0.49037 ,4.81154 
319 ,63.8343 ,1.63243 ,0.47668 ,4.67723 
320 ,64.0265 ,1.63421 ,0.46642 ,4.57649 
321 ,64.2186 ,1.63614 ,0.47326 ,4.64365 
322 ,64.4103 ,1.63799 ,0.44246 ,4.34144 
323 ,64.5862 ,1.63991 ,0.44588 ,4.37502 
324 ,64.7784 ,1.64170 ,0.43220 ,4.24071 
325 ,64.9543 ,1.64358 ,0.40824 ,4.00566 
326 ,65.1630 ,1.64546 ,0.40482 ,3.97208 
327 ,65.3712 ,1.64767 ,0.37744 ,3.70346 
328 ,65.5632 ,1.64959 ,0.39797 ,3.90493 
329 ,65.7710 ,1.65161 ,0.36033 ,3.53557 
330 ,65.9469 ,1.65351 ,0.36718 ,3.60272 
331 ,66.1394 ,1.65535 ,0.36033 ,3.53557 
332 ,66.3474 ,1.65742 ,0.33638 ,3.30052 
333 ,66.5392 ,1.65930 ,0.33638 ,3.30052 
334 ,66.7316 ,1.66121 ,0.32611 ,3.19978 
335 ,66.9394 ,1.66336 ,0.31584 ,3.09905 
336 ,67.1156 ,1.66520 ,0.28847 ,2.83042 
337 ,67.3078 ,1.66701 ,0.28162 ,2.76326 
338 ,67.4999 ,1.66893 ,0.28504 ,2.79684 
339 ,67.7080 ,1.67099 ,0.26109 ,2.56179 
340 ,67.9159 ,1.67308 ,0.26451 ,2.59537 
341 ,68.1400 ,1.67527 ,0.25767 ,2.52822 
342 ,68.3639 ,1.67750 ,0.23371 ,2.29317 
343 ,68.5559 ,1.67954 ,0.22002 ,2.15885 
344 ,68.7484 ,1.68141 ,0.19949 ,1.95738 
345 ,68.9401 ,1.68335 ,0.20976 ,2.05812 
346 ,69.1325 ,1.68526 ,0.18922 ,1.85665 
347 ,69.3246 ,1.68722 ,0.18922 ,1.85665 
348 ,69.5327 ,1.68928 ,0.16185 ,1.58802 
349 ,69.7567 ,1.69136 ,0.16869 ,1.65518 
350 ,69.9649 ,1.69358 ,0.13447 ,1.31940 
351 ,70.1729 ,1.69565 ,0.12420 ,1.21866 
352 ,70.3646 ,1.69756 ,0.12762 ,1.25224 
353 ,70.5572 ,1.69952 ,0.10367 ,1.01719 
354 ,70.7812 ,1.70159 ,0.11051 ,1.08435 
355 ,70.9735 ,1.70371 ,0.08656 ,0.84930 
356 ,71.1813 ,1.70570 ,0.08998 ,0.88288 
357 ,71.3735 ,1.70763 ,0.05234 ,0.51352 
358 ,71.5815 ,1.70965 ,0.06945 ,0.68141 
359 ,71.7895 ,1.71181 ,0.04549 ,0.44636 
360 ,71.9817 ,1.71369 ,0.04549 ,0.44636 
361 ,72.1739 ,1.71566 ,0.01811 ,0.17773 
362 ,72.3662 ,1.71763 ,0.02154 ,0.21131 
363 ,72.5737 ,1.71968 ,0.00100 ,0.00984 
364 ,72.7662 ,1.72155 ,0.00785 ,0.07700 
365 ,72.9898 ,1.72384 ,-0.01269 ,-0.12447 
366 ,73.1981 ,1.72588 ,-0.02295 ,-0.22520 
367 ,73.4063 ,1.72798 ,-0.02637 ,-0.25878 
368 ,73.5980 ,1.72986 ,-0.05375 ,-0.52741 
369 ,73.7905 ,1.73182 ,-0.04691 ,-0.46025 
370 ,73.9986 ,1.73392 ,-0.07086 ,-0.69530 
371 ,74.1905 ,1.73580 ,-0.08113 ,-0.79604 
372 ,74.3987 ,1.73789 ,-0.08113 ,-0.79604 
373 ,74.5906 ,1.73980 ,-0.08797 ,-0.86319 
374 ,74.7829 ,1.74172 ,-0.09140 ,-0.89677 
375 ,74.9750 ,1.74366 ,-0.13246 ,-1.29971 
376 ,75.1670 ,1.74558 ,-0.12219 ,-1.19898 
377 ,75.3592 ,1.74748 ,-0.14273 ,-1.40045 
378 ,75.5672 ,1.74958 ,-0.15984 ,-1.56834 
379 ,75.7589 ,1.75147 ,-0.15642 ,-1.53476 
380 ,75.9834 ,1.75359 ,-0.16326 ,-1.60191 
381 ,76.1914 ,1.75579 ,-0.18037 ,-1.76981 
382 ,76.3995 ,1.75783 ,-0.19748 ,-1.93770 
383 ,76.5916 ,1.75991 ,-0.19748 ,-1.93770 
384 ,76.7995 ,1.76188 ,-0.22144 ,-2.17275 
385 ,77.0239 ,1.76412 ,-0.20775 ,-2.03843 
386 ,77.2318 ,1.76624 ,-0.23513 ,-2.30706 
387 ,77.4239 ,1.76812 ,-0.24539 ,-2.40779 
388 ,77.6160 ,1.77006 ,-0.27277 ,-2.67642 
389 ,77.8081 ,1.77194 ,-0.23855 ,-2.34064 
390 ,78.0161 ,1.77399 ,-0.28646 ,-2.81073 
391 ,78.2402 ,1.77619 ,-0.26935 ,-2.64284 
392 ,78.4323 ,1.77820 ,-0.28304 ,-2.77716 
393 ,78.6245 ,1.78014 ,-0.30015 ,-2.94505 
394 ,78.8646 ,1.78247 ,-0.30699 ,-3.01220 
395 ,79.0723 ,1.78460 ,-0.33095 ,-3.24725 
396 ,79.2648 ,1.78653 ,-0.33095 ,-3.24725 
397 ,79.4729 ,1.78851 ,-0.34121 ,-3.34799 
398 ,79.6650 ,1.79053 ,-0.34121 ,-3.34799 
399 ,79.8570 ,1.79247 ,-0.36175 ,-3.54946 
400 ,80.0491 ,1.79437 ,-0.36175 ,-3.54946 
401 ,80.2251 ,1.79626 ,-0.38570 ,-3.78450 
402 ,80.4012 ,1.79800 ,-0.39597 ,-3.88524 
403 ,80.5929 ,1.79982 ,-0.39939 ,-3.91882 
404 ,80.7855 ,1.80174 ,-0.41308 ,-4.05313 
405 ,80.9774 ,1.80365 ,-0.42335 ,-4.15387 
406 ,81.1695 ,1.80558 ,-0.41992 ,-4.12029 
407 ,81.3616 ,1.80754 ,-0.45414 ,-4.45607 
408 ,81.5698 ,1.80956 ,-0.43361 ,-4.25460 
409 ,81.7618 ,1.81147 ,-0.46441 ,-4.55681 
410 ,81.9537 ,1.81346 ,-0.45414 ,-4.45607 
411 ,82.1779 ,1.81559 ,-0.47126 ,-4.62396 
412 ,82.3861 ,1.81773 ,-0.47468 ,-4.65754 
413 ,82.5939 ,1.81983 ,-0.49521 ,-4.85901 
414 ,82.7862 ,1.82173 ,-0.49863 ,-4.89259 
415 ,82.9780 ,1.82368 ,-0.52601 ,-5.16121 
416 ,83.1863 ,1.82572 ,-0.51917 ,-5.09406 
417 ,83.3779 ,1.82769 ,-0.53628 ,-5.26195 
418 ,83.5864 ,1.82970 ,-0.53970 ,-5.29553 
419 ,83.7784 ,1.83167 ,-0.54997 ,-5.39626 
420 ,83.9867 ,1.83377 ,-0.54997 ,-5.39626 
421 ,84.2107 ,1.83586 ,-0.56023 ,-5.49700 
422 ,84.4028 ,1.83788 ,-0.59103 ,-5.79920 
423 ,84.5949 ,1.83979 ,-0.58077 ,-5.69847 
424 ,84.7871 ,1.84174 ,-0.58419 ,-5.73205 
425 ,84.9791 ,1.84365 ,-0.60130 ,-5.89994 
426 ,85.1869 ,1.84575 ,-0.62868 ,-6.16856 
427 ,85.3793 ,1.84763 ,-0.62868 ,-6.16856 
428 ,85.5869 ,1.84978 ,-0.62868 ,-6.16856 
429 ,85.7794 ,1.85171 ,-0.63552 ,-6.23572 
430 ,85.9875 ,1.85371 ,-0.64579 ,-6.33646 
431 ,86.1955 ,1.85577 ,-0.65263 ,-6.40361 
432 ,86.3877 ,1.85773 ,-0.66974 ,-6.57150 
433 ,86.5798 ,1.85968 ,-0.66632 ,-6.53793 
434 ,86.7558 ,1.86155 ,-0.67659 ,-6.63866 
435 ,86.9479 ,1.86330 ,-0.69712 ,-6.84013 
436 ,87.1400 ,1.86525 ,-0.70396 ,-6.90729 
437 ,87.3322 ,1.86713 ,-0.70396 ,-6.90729 
438 ,87.5242 ,1.86910 ,-0.73818 ,-7.24307 
439 ,87.7162 ,1.87105 ,-0.72107 ,-7.07518 
440 ,87.9081 ,1.87299 ,-0.73134 ,-7.17591 
441 ,88.1002 ,1.87488 ,-0.74845 ,-7.34380 
442 ,88.3084 ,1.87695 ,-0.75872 ,-7.44454 
443 ,88.5004 ,1.87882 ,-0.76898 ,-7.54527 
444 ,88.6925 ,1.88079 ,-0.76556 ,-7.51170 
445 ,88.8844 ,1.88267 ,-0.79636 ,-7.81390 
446 ,89.0768 ,1.88461 ,-0.78267 ,-7.67959 
447 ,89.2689 ,1.88651 ,-0.79978 ,-7.84748 
448 ,89.4610 ,1.88845 ,-0.81005 ,-7.94821 
449 ,89.6530 ,1.89038 ,-0.79636 ,-7.81390 
450 ,89.8613 ,1.89249 ,-0.82716 ,-8.11611 
451 ,90.0693 ,1.89460 ,-0.83401 ,-8.18326 
452 ,90.2772 ,1.89657 ,-0.84085 ,-8.25042 
453 ,90.4852 ,1.89873 ,-0.86823 ,-8.51904 
454 ,90.6771 ,1.90059 ,-0.85796 ,-8.41831 
455 ,90.9014 ,1.90284 ,-0.89218 ,-8.75409 
456 ,91.1091 ,1.90491 ,-0.88534 ,-8.68694 
457 ,91.3017 ,1.90683 ,-0.88192 ,-8.65336 
458 ,91.4936 ,1.90877 ,-0.89903 ,-8.82125 
459 ,91.7019 ,1.91086 ,-0.90587 ,-8.88841 
460 ,91.8939 ,1.91284 ,-0.90929 ,-8.92198 
461 ,92.0857 ,1.91470 ,-0.93667 ,-9.19061 
462 ,92.2781 ,1.91664 ,-0.92640 ,-9.08988 
463 ,92.4861 ,1.91876 ,-0.95036 ,-9.32492 
