Data stamp = , 30-04-2022 11:07:12 661

Calibration Values: 
Slope = , 26.54 , g/V 
Offset Voltage at no contact = , -0.501760 , V 

No , Time , Stage Position ,   Mass , Force 
   ,  (s) ,      (mm)      ,   (g)  , (mN)  

1 ,0.0000 ,0.99945 ,5.39092 ,52.89567 
2 ,0.2107 ,0.99953 ,5.37381 ,52.72778 
3 ,0.7711 ,1.00162 ,5.37038 ,52.69420 
4 ,1.2353 ,1.00522 ,5.39092 ,52.89567 
5 ,1.4434 ,1.00857 ,5.37038 ,52.69420 
6 ,1.6354 ,1.01047 ,5.36354 ,52.62704 
7 ,1.8277 ,1.01245 ,5.31221 ,52.12337 
8 ,2.0198 ,1.01437 ,5.30878 ,52.08979 
9 ,2.2276 ,1.01644 ,5.28141 ,51.82116 
10 ,2.4198 ,1.01832 ,5.28825 ,51.88832 
11 ,2.6277 ,1.02043 ,5.24718 ,51.48538 
12 ,2.8199 ,1.02237 ,5.24376 ,51.45180 
13 ,3.0280 ,1.02444 ,5.20612 ,51.08244 
14 ,3.2361 ,1.02643 ,5.20270 ,51.04886 
15 ,3.4280 ,1.02844 ,5.18559 ,50.88097 
16 ,3.6364 ,1.03052 ,5.17874 ,50.81381 
17 ,3.8283 ,1.03243 ,5.13083 ,50.34372 
18 ,4.0365 ,1.03454 ,5.13083 ,50.34372 
19 ,4.2445 ,1.03657 ,5.08634 ,49.90720 
20 ,4.4365 ,1.03854 ,5.08977 ,49.94078 
21 ,4.6449 ,1.04051 ,5.06923 ,49.73931 
22 ,4.8525 ,1.04268 ,5.03501 ,49.40352 
23 ,5.0451 ,1.04464 ,5.03501 ,49.40352 
24 ,5.2530 ,1.04667 ,5.00421 ,49.10132 
25 ,5.4452 ,1.04859 ,4.98368 ,48.89985 
26 ,5.6533 ,1.05066 ,4.97341 ,48.79911 
27 ,5.8450 ,1.05262 ,4.94261 ,48.49691 
28 ,6.0373 ,1.05456 ,4.94261 ,48.49691 
29 ,6.2455 ,1.05655 ,4.90839 ,48.16113 
30 ,6.4374 ,1.05852 ,4.90155 ,48.09397 
31 ,6.6295 ,1.06044 ,4.87075 ,47.79177 
32 ,6.8535 ,1.06259 ,4.87417 ,47.82534 
33 ,7.0614 ,1.06479 ,4.84337 ,47.52314 
34 ,7.2859 ,1.06687 ,4.80230 ,47.12020 
35 ,7.4781 ,1.06894 ,4.80230 ,47.12020 
36 ,7.6702 ,1.07088 ,4.77835 ,46.88515 
37 ,7.8782 ,1.07291 ,4.77150 ,46.81800 
38 ,8.0860 ,1.07489 ,4.74070 ,46.51579 
39 ,8.2784 ,1.07693 ,4.73386 ,46.44863 
40 ,8.4864 ,1.07900 ,4.70306 ,46.14643 
41 ,8.6784 ,1.08091 ,4.68595 ,45.97854 
42 ,8.8705 ,1.08280 ,4.66542 ,45.77707 
43 ,9.0626 ,1.08477 ,4.66199 ,45.74349 
44 ,9.2702 ,1.08680 ,4.61751 ,45.30697 
45 ,9.4627 ,1.08881 ,4.61066 ,45.23981 
46 ,9.6869 ,1.09089 ,4.58328 ,44.97119 
47 ,9.8949 ,1.09304 ,4.60724 ,45.20624 
48 ,10.0871 ,1.09500 ,4.55591 ,44.70256 
49 ,10.2952 ,1.09709 ,4.54564 ,44.60183 
50 ,10.4873 ,1.09904 ,4.50457 ,44.19889 
51 ,10.6953 ,1.10110 ,4.50457 ,44.19889 
52 ,10.8875 ,1.10302 ,4.47720 ,43.93026 
53 ,11.0795 ,1.10493 ,4.46693 ,43.82953 
54 ,11.2876 ,1.10701 ,4.43613 ,43.52732 
55 ,11.4951 ,1.10905 ,4.42929 ,43.46016 
56 ,11.6878 ,1.11098 ,4.41218 ,43.29227 
57 ,11.8958 ,1.11306 ,4.40191 ,43.19154 
58 ,12.0879 ,1.11499 ,4.36769 ,42.85576 
59 ,12.2800 ,1.11688 ,4.37795 ,42.95649 
60 ,12.4719 ,1.11883 ,4.33004 ,42.48639 
61 ,12.6801 ,1.12089 ,4.34031 ,42.58713 
62 ,12.9039 ,1.12303 ,4.29582 ,42.15061 
63 ,13.0961 ,1.12504 ,4.27871 ,41.98272 
64 ,13.3043 ,1.12713 ,4.26160 ,41.81483 
65 ,13.4962 ,1.12908 ,4.26502 ,41.84841 
66 ,13.7045 ,1.13108 ,4.24791 ,41.68051 
67 ,13.8966 ,1.13310 ,4.24107 ,41.61336 
68 ,14.0888 ,1.13503 ,4.18974 ,41.10968 
69 ,14.2806 ,1.13694 ,4.18631 ,41.07611 
70 ,14.4729 ,1.13886 ,4.16920 ,40.90821 
71 ,14.6647 ,1.14079 ,4.14867 ,40.70674 
72 ,14.8571 ,1.14269 ,4.13156 ,40.53885 
73 ,15.0653 ,1.14478 ,4.10418 ,40.27023 
74 ,15.2573 ,1.14667 ,4.10760 ,40.30380 
75 ,15.4653 ,1.14879 ,4.08023 ,40.03518 
76 ,15.6411 ,1.15068 ,4.07338 ,39.96802 
77 ,15.8329 ,1.15237 ,4.05627 ,39.80013 
78 ,16.0256 ,1.15431 ,4.04600 ,39.69940 
79 ,16.2333 ,1.15647 ,4.01520 ,39.39719 
80 ,16.4253 ,1.15831 ,3.99809 ,39.22930 
81 ,16.6180 ,1.16023 ,3.99125 ,39.16214 
82 ,16.8098 ,1.16223 ,3.96045 ,38.85994 
83 ,17.0181 ,1.16427 ,3.96729 ,38.92709 
84 ,17.2261 ,1.16635 ,3.91938 ,38.45700 
85 ,17.4339 ,1.16841 ,3.91938 ,38.45700 
86 ,17.6262 ,1.17037 ,3.88858 ,38.15479 
87 ,17.8183 ,1.17224 ,3.88516 ,38.12122 
88 ,18.0103 ,1.17418 ,3.85094 ,37.78543 
89 ,18.2021 ,1.17609 ,3.85094 ,37.78543 
90 ,18.3946 ,1.17803 ,3.83383 ,37.61754 
91 ,18.6023 ,1.18008 ,3.82699 ,37.55038 
92 ,18.7948 ,1.18200 ,3.80303 ,37.31534 
93 ,18.9867 ,1.18390 ,3.77223 ,37.01313 
94 ,19.1788 ,1.18587 ,3.76196 ,36.91240 
95 ,19.3870 ,1.18792 ,3.74485 ,36.74450 
96 ,19.5950 ,1.19002 ,3.72774 ,36.57661 
97 ,19.7871 ,1.19199 ,3.69694 ,36.27441 
98 ,19.9953 ,1.19404 ,3.70037 ,36.30799 
99 ,20.1873 ,1.19604 ,3.67641 ,36.07294 
100 ,20.3793 ,1.19788 ,3.66614 ,35.97220 
101 ,20.5874 ,1.19996 ,3.63877 ,35.70358 
102 ,20.7954 ,1.20200 ,3.62850 ,35.60284 
103 ,20.9876 ,1.20398 ,3.58743 ,35.19990 
104 ,21.1792 ,1.20591 ,3.60454 ,35.36779 
105 ,21.3715 ,1.20779 ,3.58401 ,35.16632 
106 ,21.5638 ,1.20973 ,3.56690 ,34.99843 
107 ,21.7559 ,1.21162 ,3.55321 ,34.86412 
108 ,21.9480 ,1.21350 ,3.50872 ,34.42760 
109 ,22.1401 ,1.21547 ,3.51215 ,34.46118 
110 ,22.3477 ,1.21751 ,3.49504 ,34.29329 
111 ,22.5402 ,1.21944 ,3.48819 ,34.22613 
112 ,22.7321 ,1.22140 ,3.45397 ,33.89035 
113 ,22.9243 ,1.22330 ,3.44370 ,33.78961 
114 ,23.1163 ,1.22521 ,3.42317 ,33.58814 
115 ,23.3086 ,1.22717 ,3.39921 ,33.35310 
116 ,23.5005 ,1.22904 ,3.39921 ,33.35310 
117 ,23.6922 ,1.23098 ,3.36499 ,33.01731 
118 ,23.8846 ,1.23286 ,3.35473 ,32.91658 
119 ,24.0768 ,1.23478 ,3.34446 ,32.81584 
120 ,24.2690 ,1.23677 ,3.32393 ,32.61437 
121 ,24.4606 ,1.23867 ,3.32051 ,32.58080 
122 ,24.6530 ,1.24058 ,3.29655 ,32.34575 
123 ,24.8610 ,1.24265 ,3.29313 ,32.31217 
124 ,25.0532 ,1.24456 ,3.25206 ,31.90923 
125 ,25.2774 ,1.24674 ,3.24864 ,31.87565 
126 ,25.4853 ,1.24892 ,3.22811 ,31.67418 
127 ,25.6776 ,1.25087 ,3.21442 ,31.53987 
128 ,25.8856 ,1.25290 ,3.19046 ,31.30482 
129 ,26.0778 ,1.25482 ,3.18362 ,31.23766 
130 ,26.2857 ,1.25692 ,3.15624 ,30.96904 
131 ,26.4778 ,1.25880 ,3.14597 ,30.86830 
132 ,26.6695 ,1.26076 ,3.12544 ,30.66683 
133 ,26.8618 ,1.26271 ,3.12202 ,30.63325 
134 ,27.0701 ,1.26475 ,3.08780 ,30.29747 
135 ,27.2622 ,1.26667 ,3.09806 ,30.39821 
136 ,27.4703 ,1.26876 ,3.05358 ,29.96169 
137 ,27.6622 ,1.27067 ,3.05700 ,29.99527 
138 ,27.8382 ,1.27252 ,3.02620 ,29.69306 
139 ,28.0302 ,1.27431 ,2.99198 ,29.35728 
140 ,28.2385 ,1.27645 ,3.00909 ,29.52517 
141 ,28.4307 ,1.27836 ,2.98171 ,29.25654 
142 ,28.6228 ,1.28032 ,2.98171 ,29.25654 
143 ,28.8304 ,1.28228 ,2.94407 ,28.88718 
144 ,29.0227 ,1.28430 ,2.94064 ,28.85360 
145 ,29.2306 ,1.28640 ,2.90300 ,28.48424 
146 ,29.4231 ,1.28828 ,2.90985 ,28.55140 
147 ,29.6152 ,1.29023 ,2.88589 ,28.31635 
148 ,29.8392 ,1.29231 ,2.87562 ,28.21562 
149 ,30.0311 ,1.29434 ,2.84825 ,27.94699 
150 ,30.2230 ,1.29623 ,2.84825 ,27.94699 
151 ,30.4155 ,1.29819 ,2.81060 ,27.57763 
152 ,30.6076 ,1.30015 ,2.80718 ,27.54405 
153 ,30.7998 ,1.30202 ,2.80034 ,27.47689 
154 ,31.0073 ,1.30415 ,2.78322 ,27.30900 
155 ,31.2158 ,1.30612 ,2.77296 ,27.20827 
156 ,31.4238 ,1.30827 ,2.75243 ,27.00680 
157 ,31.6159 ,1.31021 ,2.73874 ,26.87248 
158 ,31.8239 ,1.31222 ,2.72505 ,26.73817 
159 ,32.0161 ,1.31415 ,2.68740 ,26.36881 
160 ,32.2081 ,1.31609 ,2.67714 ,26.26807 
161 ,32.4323 ,1.31833 ,2.64976 ,25.99945 
162 ,32.6243 ,1.32030 ,2.66345 ,26.13376 
163 ,32.8485 ,1.32246 ,2.61896 ,25.69724 
164 ,33.0567 ,1.32458 ,2.61212 ,25.63009 
165 ,33.2487 ,1.32649 ,2.58816 ,25.39504 
166 ,33.4568 ,1.32845 ,2.59843 ,25.49577 
167 ,33.6489 ,1.33046 ,2.56078 ,25.12641 
168 ,33.8570 ,1.33259 ,2.55736 ,25.09283 
169 ,34.0490 ,1.33452 ,2.52314 ,24.75705 
170 ,34.2406 ,1.33637 ,2.52656 ,24.79063 
171 ,34.4330 ,1.33833 ,2.49576 ,24.48842 
172 ,34.6411 ,1.34046 ,2.50603 ,24.58916 
173 ,34.8334 ,1.34238 ,2.46496 ,24.18622 
174 ,35.0413 ,1.34441 ,2.45812 ,24.11906 
175 ,35.2334 ,1.34632 ,2.43074 ,23.85044 
176 ,35.4255 ,1.34824 ,2.43416 ,23.88402 
177 ,35.6178 ,1.35019 ,2.41363 ,23.68255 
178 ,35.8257 ,1.35231 ,2.40679 ,23.61539 
179 ,36.0177 ,1.35420 ,2.39994 ,23.54823 
180 ,36.2100 ,1.35608 ,2.37256 ,23.27961 
181 ,36.4178 ,1.35814 ,2.35888 ,23.14529 
182 ,36.6419 ,1.36034 ,2.34177 ,22.97740 
183 ,36.8503 ,1.36252 ,2.32123 ,22.77593 
184 ,37.0421 ,1.36446 ,2.31781 ,22.74235 
185 ,37.2504 ,1.36650 ,2.28701 ,22.44015 
186 ,37.4585 ,1.36860 ,2.27674 ,22.33941 
187 ,37.6665 ,1.37064 ,2.26306 ,22.20510 
188 ,37.8586 ,1.37260 ,2.25279 ,22.10437 
189 ,38.0507 ,1.37452 ,2.22883 ,21.86932 
190 ,38.2588 ,1.37659 ,2.22541 ,21.83574 
191 ,38.4504 ,1.37851 ,2.19461 ,21.53353 
192 ,38.6425 ,1.38041 ,2.18777 ,21.46638 
193 ,38.8510 ,1.38243 ,2.17066 ,21.29849 
194 ,39.0591 ,1.38462 ,2.14670 ,21.06344 
195 ,39.2673 ,1.38668 ,2.14328 ,21.02986 
196 ,39.4592 ,1.38856 ,2.13644 ,20.96270 
197 ,39.6510 ,1.39052 ,2.11248 ,20.72766 
198 ,39.8432 ,1.39243 ,2.10564 ,20.66050 
199 ,40.0355 ,1.39431 ,2.06457 ,20.25756 
200 ,40.2276 ,1.39631 ,2.07484 ,20.35829 
201 ,40.4196 ,1.39819 ,2.07141 ,20.32472 
202 ,40.6117 ,1.40007 ,2.03719 ,19.98893 
203 ,40.8035 ,1.40202 ,2.04404 ,20.05609 
204 ,40.9959 ,1.40399 ,2.00639 ,19.68673 
205 ,41.2039 ,1.40605 ,2.00982 ,19.72031 
206 ,41.4120 ,1.40810 ,1.97217 ,19.35094 
207 ,41.6042 ,1.41007 ,1.97902 ,19.41810 
208 ,41.8118 ,1.41208 ,1.95506 ,19.18305 
209 ,41.9882 ,1.41398 ,1.94822 ,19.11590 
210 ,42.1964 ,1.41587 ,1.92768 ,18.91443 
211 ,42.3883 ,1.41787 ,1.92084 ,18.84727 
212 ,42.5805 ,1.41978 ,1.91057 ,18.74654 
213 ,42.7727 ,1.42169 ,1.88319 ,18.47791 
214 ,42.9646 ,1.42365 ,1.87635 ,18.41075 
215 ,43.1729 ,1.42565 ,1.85582 ,18.20928 
216 ,43.3970 ,1.42785 ,1.85240 ,18.17570 
217 ,43.6048 ,1.43010 ,1.83186 ,17.97423 
218 ,43.7970 ,1.43196 ,1.81475 ,17.80634 
219 ,43.9889 ,1.43389 ,1.80106 ,17.67203 
220 ,44.1811 ,1.43577 ,1.80106 ,17.67203 
221 ,44.3889 ,1.43784 ,1.77369 ,17.40340 
222 ,44.5810 ,1.43976 ,1.75657 ,17.23551 
223 ,44.7734 ,1.44176 ,1.72578 ,16.93331 
224 ,44.9815 ,1.44377 ,1.73946 ,17.06762 
225 ,45.2051 ,1.44592 ,1.72235 ,16.89973 
226 ,45.3977 ,1.44797 ,1.69840 ,16.66468 
227 ,45.6056 ,1.44998 ,1.68129 ,16.49679 
228 ,45.7978 ,1.45196 ,1.67786 ,16.46321 
229 ,46.0056 ,1.45403 ,1.65391 ,16.22816 
230 ,46.2136 ,1.45604 ,1.63338 ,16.02669 
231 ,46.4060 ,1.45805 ,1.62995 ,15.99311 
232 ,46.6141 ,1.46006 ,1.60942 ,15.79164 
233 ,46.8063 ,1.46209 ,1.60942 ,15.79164 
234 ,47.0143 ,1.46410 ,1.57520 ,15.45586 
235 ,47.2220 ,1.46620 ,1.57520 ,15.45586 
236 ,47.3978 ,1.46806 ,1.54098 ,15.12008 
237 ,47.5901 ,1.46986 ,1.52729 ,14.98577 
238 ,47.7825 ,1.47185 ,1.54440 ,15.15366 
239 ,47.9907 ,1.47388 ,1.51018 ,14.81787 
240 ,48.1827 ,1.47582 ,1.51702 ,14.88503 
241 ,48.3749 ,1.47771 ,1.47596 ,14.48209 
242 ,48.6147 ,1.48003 ,1.48965 ,14.61640 
243 ,48.8227 ,1.48217 ,1.45885 ,14.31420 
244 ,49.0146 ,1.48411 ,1.44858 ,14.21346 
245 ,49.2228 ,1.48618 ,1.43489 ,14.07915 
246 ,49.4153 ,1.48814 ,1.42462 ,13.97842 
247 ,49.6070 ,1.49018 ,1.40409 ,13.77695 
248 ,49.8153 ,1.49200 ,1.39383 ,13.67621 
249 ,50.0075 ,1.49410 ,1.36987 ,13.44116 
250 ,50.1993 ,1.49595 ,1.38356 ,13.57548 
251 ,50.3918 ,1.49786 ,1.34249 ,13.17254 
252 ,50.5836 ,1.49985 ,1.34591 ,13.20612 
253 ,50.7915 ,1.50188 ,1.32196 ,12.97107 
254 ,50.9999 ,1.50395 ,1.31169 ,12.87033 
255 ,51.1915 ,1.50590 ,1.30143 ,12.76960 
256 ,51.3837 ,1.50774 ,1.29116 ,12.66886 
257 ,51.5760 ,1.50968 ,1.30143 ,12.76960 
258 ,51.7842 ,1.51168 ,1.25694 ,12.33308 
259 ,51.9920 ,1.51383 ,1.23983 ,12.16519 
260 ,52.1843 ,1.51579 ,1.21929 ,11.96372 
261 ,52.3925 ,1.51788 ,1.20561 ,11.82941 
262 ,52.6004 ,1.51994 ,1.21587 ,11.93014 
263 ,52.7922 ,1.52188 ,1.18165 ,11.59436 
264 ,52.9847 ,1.52383 ,1.16454 ,11.42647 
265 ,53.1927 ,1.52589 ,1.17138 ,11.49362 
266 ,53.3847 ,1.52775 ,1.14401 ,11.22500 
267 ,53.5764 ,1.52972 ,1.14743 ,11.25857 
268 ,53.7686 ,1.53169 ,1.12347 ,11.02353 
269 ,53.9445 ,1.53351 ,1.12347 ,11.02353 
270 ,54.1370 ,1.53536 ,1.10979 ,10.88921 
271 ,54.3931 ,1.53788 ,1.08583 ,10.65416 
272 ,54.5854 ,1.53982 ,1.07556 ,10.55343 
273 ,54.7775 ,1.54177 ,1.06872 ,10.48627 
274 ,54.9690 ,1.54370 ,1.03108 ,10.11691 
275 ,55.1775 ,1.54562 ,1.03108 ,10.11691 
276 ,55.3857 ,1.54784 ,1.00712 ,9.88186 
277 ,55.5938 ,1.54976 ,1.01396 ,9.94902 
278 ,55.8019 ,1.55199 ,0.99685 ,9.78113 
279 ,55.9940 ,1.55392 ,0.99685 ,9.78113 
280 ,56.2019 ,1.55590 ,0.97290 ,9.54608 
281 ,56.4101 ,1.55803 ,0.95579 ,9.37819 
282 ,56.6022 ,1.55995 ,0.94210 ,9.24388 
283 ,56.8102 ,1.56200 ,0.92157 ,9.04241 
284 ,57.0023 ,1.56391 ,0.91814 ,9.00883 
285 ,57.1940 ,1.56590 ,0.90788 ,8.90809 
286 ,57.3865 ,1.56783 ,0.89077 ,8.74020 
287 ,57.5946 ,1.56989 ,0.88050 ,8.63947 
288 ,57.7867 ,1.57183 ,0.85654 ,8.40442 
289 ,57.9784 ,1.57377 ,0.84628 ,8.30368 
290 ,58.1707 ,1.57562 ,0.84286 ,8.27011 
291 ,58.3467 ,1.57753 ,0.81548 ,8.00148 
292 ,58.5390 ,1.57931 ,0.82575 ,8.10221 
293 ,58.7470 ,1.58142 ,0.79152 ,7.76643 
294 ,58.9392 ,1.58330 ,0.78810 ,7.73285 
295 ,59.1472 ,1.58530 ,0.78810 ,7.73285 
296 ,59.3390 ,1.58731 ,0.75730 ,7.43065 
297 ,59.5310 ,1.58929 ,0.75730 ,7.43065 
298 ,59.7234 ,1.59114 ,0.74361 ,7.29633 
299 ,59.9155 ,1.59305 ,0.73335 ,7.19560 
300 ,60.1237 ,1.59511 ,0.70597 ,6.92697 
301 ,60.3316 ,1.59722 ,0.70255 ,6.89340 
302 ,60.5075 ,1.59907 ,0.66833 ,6.55761 
303 ,60.7000 ,1.60089 ,0.68201 ,6.69193 
304 ,60.8919 ,1.60283 ,0.66833 ,6.55761 
305 ,61.1001 ,1.60480 ,0.64779 ,6.35614 
306 ,61.2919 ,1.60687 ,0.65464 ,6.42330 
307 ,61.4843 ,1.60884 ,0.63068 ,6.18825 
308 ,61.6923 ,1.61091 ,0.62384 ,6.12109 
309 ,61.9006 ,1.61289 ,0.60673 ,5.95320 
310 ,62.0925 ,1.61481 ,0.61015 ,5.98678 
311 ,62.3006 ,1.61693 ,0.57593 ,5.65100 
312 ,62.4925 ,1.61878 ,0.56908 ,5.58384 
313 ,62.6848 ,1.62074 ,0.55197 ,5.41595 
314 ,62.8768 ,1.62265 ,0.54855 ,5.38237 
315 ,63.0691 ,1.62461 ,0.53144 ,5.21448 
316 ,63.2769 ,1.62668 ,0.51775 ,5.08017 
317 ,63.4691 ,1.62859 ,0.50748 ,4.97943 
318 ,63.6609 ,1.63047 ,0.48353 ,4.74438 
319 ,63.8533 ,1.63248 ,0.50064 ,4.91228 
320 ,64.0933 ,1.63465 ,0.46642 ,4.57649 
321 ,64.3012 ,1.63691 ,0.45273 ,4.44218 
322 ,64.4935 ,1.63879 ,0.45273 ,4.44218 
323 ,64.7016 ,1.64089 ,0.43904 ,4.30787 
324 ,64.8932 ,1.64288 ,0.42877 ,4.20713 
325 ,65.0853 ,1.64475 ,0.41509 ,4.07282 
326 ,65.2778 ,1.64667 ,0.39797 ,3.90493 
327 ,65.4859 ,1.64879 ,0.38429 ,3.77061 
328 ,65.6939 ,1.65077 ,0.39113 ,3.83777 
329 ,65.8857 ,1.65275 ,0.35691 ,3.50199 
330 ,66.0783 ,1.65472 ,0.35006 ,3.43483 
331 ,66.2863 ,1.65676 ,0.33295 ,3.26694 
332 ,66.4942 ,1.65877 ,0.34322 ,3.36767 
333 ,66.6864 ,1.66078 ,0.31242 ,3.06547 
334 ,66.8787 ,1.66272 ,0.30215 ,2.96473 
335 ,67.0703 ,1.66463 ,0.31584 ,3.09905 
336 ,67.2788 ,1.66660 ,0.28162 ,2.76326 
337 ,67.4867 ,1.66878 ,0.28162 ,2.76326 
338 ,67.6788 ,1.67067 ,0.25767 ,2.52822 
339 ,67.8708 ,1.67256 ,0.26793 ,2.62895 
340 ,68.0465 ,1.67447 ,0.22687 ,2.22601 
341 ,68.2389 ,1.67632 ,0.23371 ,2.29317 
342 ,68.4472 ,1.67833 ,0.21318 ,2.09170 
343 ,68.6391 ,1.68031 ,0.19949 ,1.95738 
344 ,68.8473 ,1.68235 ,0.20633 ,2.02454 
345 ,69.0393 ,1.68428 ,0.18580 ,1.82307 
346 ,69.2474 ,1.68635 ,0.18238 ,1.78949 
347 ,69.4393 ,1.68829 ,0.16527 ,1.62160 
348 ,69.6314 ,1.69021 ,0.16869 ,1.65518 
349 ,69.8235 ,1.69211 ,0.14473 ,1.42013 
350 ,70.0157 ,1.69403 ,0.14131 ,1.38655 
351 ,70.2235 ,1.69600 ,0.12762 ,1.25224 
352 ,70.4160 ,1.69807 ,0.11051 ,1.08435 
353 ,70.6237 ,1.70006 ,0.09682 ,0.95004 
354 ,70.8161 ,1.70205 ,0.09682 ,0.95004 
355 ,71.0238 ,1.70415 ,0.07287 ,0.71499 
356 ,71.2162 ,1.70603 ,0.06602 ,0.64783 
357 ,71.4081 ,1.70799 ,0.06602 ,0.64783 
358 ,71.6164 ,1.71000 ,0.04891 ,0.47994 
359 ,71.8085 ,1.71194 ,0.04549 ,0.44636 
360 ,72.0005 ,1.71384 ,0.02496 ,0.24489 
361 ,72.1927 ,1.71575 ,0.02154 ,0.21131 
362 ,72.4004 ,1.71785 ,-0.00584 ,-0.05731 
363 ,72.5928 ,1.71978 ,-0.00242 ,-0.02373 
364 ,72.7850 ,1.72175 ,-0.01953 ,-0.19163 
365 ,72.9925 ,1.72371 ,-0.02980 ,-0.29236 
366 ,73.2170 ,1.72594 ,-0.04348 ,-0.42667 
367 ,73.4251 ,1.72812 ,-0.04691 ,-0.46025 
368 ,73.6331 ,1.73013 ,-0.04006 ,-0.39310 
369 ,73.8413 ,1.73229 ,-0.07428 ,-0.72888 
370 ,74.0493 ,1.73432 ,-0.06402 ,-0.62814 
371 ,74.2414 ,1.73626 ,-0.09482 ,-0.93035 
372 ,74.4496 ,1.73835 ,-0.10166 ,-0.99751 
373 ,74.6416 ,1.74037 ,-0.10508 ,-1.03108 
374 ,74.8337 ,1.74217 ,-0.11535 ,-1.13182 
375 ,75.0257 ,1.74414 ,-0.12562 ,-1.23255 
376 ,75.2178 ,1.74605 ,-0.14615 ,-1.43402 
377 ,75.4259 ,1.74802 ,-0.13588 ,-1.33329 
378 ,75.6338 ,1.75022 ,-0.15642 ,-1.53476 
379 ,75.8421 ,1.75224 ,-0.18379 ,-1.80338 
380 ,76.0499 ,1.75434 ,-0.17695 ,-1.73623 
381 ,76.2422 ,1.75627 ,-0.20433 ,-2.00485 
382 ,76.4503 ,1.75835 ,-0.21117 ,-2.07201 
383 ,76.6423 ,1.76029 ,-0.21459 ,-2.10559 
384 ,76.8343 ,1.76217 ,-0.21117 ,-2.07201 
385 ,77.0266 ,1.76411 ,-0.23513 ,-2.30706 
386 ,77.2188 ,1.76608 ,-0.25566 ,-2.50853 
387 ,77.4425 ,1.76819 ,-0.24197 ,-2.37422 
388 ,77.6347 ,1.77020 ,-0.26593 ,-2.60926 
389 ,77.8425 ,1.77227 ,-0.26935 ,-2.64284 
390 ,78.0348 ,1.77424 ,-0.27277 ,-2.67642 
391 ,78.2268 ,1.77610 ,-0.27961 ,-2.74358 
392 ,78.4352 ,1.77806 ,-0.32068 ,-3.14652 
393 ,78.6112 ,1.78008 ,-0.29673 ,-2.91147 
394 ,78.8032 ,1.78192 ,-0.32410 ,-3.18010 
395 ,79.0114 ,1.78392 ,-0.32068 ,-3.14652 
396 ,79.2035 ,1.78586 ,-0.33437 ,-3.28083 
397 ,79.3956 ,1.78784 ,-0.34806 ,-3.41514 
398 ,79.6033 ,1.78981 ,-0.35832 ,-3.51588 
399 ,79.7957 ,1.79182 ,-0.37886 ,-3.71735 
400 ,80.0034 ,1.79387 ,-0.37201 ,-3.65019 
401 ,80.2279 ,1.79599 ,-0.39597 ,-3.88524 
402 ,80.4520 ,1.79827 ,-0.40966 ,-4.01955 
403 ,80.6440 ,1.80042 ,-0.43019 ,-4.22102 
404 ,80.8361 ,1.80221 ,-0.43019 ,-4.22102 
405 ,81.0281 ,1.80409 ,-0.42335 ,-4.15387 
406 ,81.2203 ,1.80606 ,-0.44046 ,-4.32176 
407 ,81.4120 ,1.80792 ,-0.44046 ,-4.32176 
408 ,81.6042 ,1.80985 ,-0.45072 ,-4.42249 
409 ,81.8121 ,1.81186 ,-0.47468 ,-4.65754 
410 ,82.0042 ,1.81390 ,-0.46783 ,-4.59038 
411 ,82.1965 ,1.81579 ,-0.48837 ,-4.79185 
412 ,82.3889 ,1.81781 ,-0.48494 ,-4.75828 
413 ,82.5968 ,1.81985 ,-0.50548 ,-4.95975 
414 ,82.8049 ,1.82184 ,-0.51232 ,-5.02690 
415 ,82.9971 ,1.82381 ,-0.51574 ,-5.06048 
416 ,83.1889 ,1.82571 ,-0.50548 ,-4.95975 
417 ,83.3972 ,1.82782 ,-0.54312 ,-5.32911 
418 ,83.6210 ,1.82993 ,-0.53628 ,-5.26195 
419 ,83.8133 ,1.83199 ,-0.55681 ,-5.46342 
420 ,84.0054 ,1.83387 ,-0.55681 ,-5.46342 
421 ,84.2135 ,1.83585 ,-0.58077 ,-5.69847 
422 ,84.4052 ,1.83791 ,-0.57734 ,-5.66489 
423 ,84.5975 ,1.83984 ,-0.61841 ,-6.06783 
424 ,84.8217 ,1.84194 ,-0.59788 ,-5.86636 
425 ,85.0298 ,1.84411 ,-0.61841 ,-6.06783 
426 ,85.2219 ,1.84599 ,-0.60130 ,-5.89994 
427 ,85.4298 ,1.84814 ,-0.62525 ,-6.13499 
428 ,85.6217 ,1.85002 ,-0.62868 ,-6.16856 
429 ,85.8138 ,1.85194 ,-0.64579 ,-6.33646 
430 ,86.0062 ,1.85388 ,-0.64921 ,-6.37003 
431 ,86.2141 ,1.85594 ,-0.68001 ,-6.67224 
432 ,86.4064 ,1.85790 ,-0.66974 ,-6.57150 
433 ,86.5981 ,1.85993 ,-0.69712 ,-6.84013 
434 ,86.7906 ,1.86172 ,-0.69370 ,-6.80655 
435 ,86.9986 ,1.86384 ,-0.71081 ,-6.97444 
436 ,87.1906 ,1.86569 ,-0.70054 ,-6.87371 
437 ,87.4148 ,1.86783 ,-0.71765 ,-7.04160 
438 ,87.6067 ,1.86990 ,-0.72107 ,-7.07518 
439 ,87.8150 ,1.87203 ,-0.74845 ,-7.34380 
440 ,88.0547 ,1.87420 ,-0.73818 ,-7.24307 
441 ,88.2472 ,1.87625 ,-0.75872 ,-7.44454 
442 ,88.4392 ,1.87822 ,-0.76898 ,-7.54527 
443 ,88.6474 ,1.88033 ,-0.76898 ,-7.54527 
444 ,88.8395 ,1.88221 ,-0.79294 ,-7.78032 
445 ,89.0476 ,1.88431 ,-0.78610 ,-7.71317 
446 ,89.2396 ,1.88619 ,-0.79978 ,-7.84748 
447 ,89.4478 ,1.88829 ,-0.79978 ,-7.84748 
448 ,89.6397 ,1.89023 ,-0.79978 ,-7.84748 
449 ,89.8316 ,1.89221 ,-0.83058 ,-8.14968 
450 ,90.0238 ,1.89404 ,-0.83058 ,-8.14968 
451 ,90.2320 ,1.89612 ,-0.85796 ,-8.41831 
452 ,90.4241 ,1.89806 ,-0.84769 ,-8.31758 
453 ,90.6316 ,1.90011 ,-0.86481 ,-8.48547 
454 ,90.8238 ,1.90208 ,-0.86481 ,-8.48547 
455 ,91.0177 ,1.90395 ,-0.89560 ,-8.78767 
456 ,91.2400 ,1.90619 ,-0.89903 ,-8.82125 
457 ,91.4321 ,1.90817 ,-0.90587 ,-8.88841 
458 ,91.6241 ,1.91001 ,-0.89218 ,-8.75409 
459 ,91.8166 ,1.91201 ,-0.92983 ,-9.12345 
460 ,92.0083 ,1.91400 ,-0.92640 ,-9.08988 
461 ,92.2166 ,1.91596 ,-0.92983 ,-9.12345 
462 ,92.4249 ,1.91804 ,-0.93325 ,-9.15703 
