Data stamp = , 01-05-2022 06:47:57 169

Calibration Values: 
Slope = , 26.54 , g/V 
Offset Voltage at no contact = , -0.501760 , V 

No , Time , Stage Position ,   Mass , Force 
   ,  (s) ,      (mm)      ,   (g)  , (mN)  

1 ,0.0000 ,0.99950 ,5.38065 ,52.79493 
2 ,0.2193 ,0.99958 ,5.38407 ,52.82851 
3 ,0.7637 ,1.00176 ,5.37381 ,52.72778 
4 ,0.9720 ,1.00399 ,5.39092 ,52.89567 
5 ,1.1799 ,1.00605 ,5.37723 ,52.76135 
6 ,1.3881 ,1.00806 ,5.38407 ,52.82851 
7 ,1.5638 ,1.01001 ,5.33958 ,52.39199 
8 ,1.7563 ,1.01182 ,5.32932 ,52.29126 
9 ,1.9643 ,1.01393 ,5.30536 ,52.05621 
10 ,2.1565 ,1.01586 ,5.28483 ,51.85474 
11 ,2.3481 ,1.01774 ,5.28483 ,51.85474 
12 ,2.5406 ,1.01963 ,5.25745 ,51.58611 
13 ,2.7323 ,1.02159 ,5.24376 ,51.45180 
14 ,2.9244 ,1.02345 ,5.21981 ,51.21675 
15 ,3.1164 ,1.02538 ,5.19243 ,50.94813 
16 ,3.3089 ,1.02736 ,5.20270 ,51.04886 
17 ,3.5169 ,1.02941 ,5.16505 ,50.67950 
18 ,3.7089 ,1.03135 ,5.15821 ,50.61234 
19 ,3.9011 ,1.03329 ,5.12056 ,50.24298 
20 ,4.1092 ,1.03537 ,5.11714 ,50.20940 
21 ,4.3013 ,1.03728 ,5.07950 ,49.84004 
22 ,4.4933 ,1.03918 ,5.07950 ,49.84004 
23 ,4.6850 ,1.04115 ,5.06581 ,49.70573 
24 ,4.8612 ,1.04295 ,5.03501 ,49.40352 
25 ,5.0535 ,1.04482 ,5.02132 ,49.26921 
26 ,5.2775 ,1.04689 ,4.99737 ,49.03416 
27 ,5.4698 ,1.04894 ,4.98710 ,48.93343 
28 ,5.6617 ,1.05087 ,4.95288 ,48.59764 
29 ,5.8856 ,1.05297 ,4.93919 ,48.46333 
30 ,6.0781 ,1.05498 ,4.91181 ,48.19471 
31 ,6.2862 ,1.05712 ,4.90839 ,48.16113 
32 ,6.4781 ,1.05900 ,4.88444 ,47.92608 
33 ,6.6542 ,1.06090 ,4.87417 ,47.82534 
34 ,6.8464 ,1.06269 ,4.86048 ,47.69103 
35 ,7.0381 ,1.06458 ,4.81599 ,47.25451 
36 ,7.2306 ,1.06657 ,4.81599 ,47.25451 
37 ,7.4385 ,1.06859 ,4.77835 ,46.88515 
38 ,7.6307 ,1.07052 ,4.78519 ,46.95231 
39 ,7.8229 ,1.07250 ,4.75782 ,46.68368 
40 ,8.0308 ,1.07451 ,4.75097 ,46.61653 
41 ,8.2230 ,1.07643 ,4.72702 ,46.38148 
42 ,8.4150 ,1.07840 ,4.72017 ,46.31432 
43 ,8.6072 ,1.08028 ,4.70648 ,46.18001 
44 ,8.8153 ,1.08237 ,4.67568 ,45.87780 
45 ,9.0391 ,1.08463 ,4.64831 ,45.60918 
46 ,9.2310 ,1.08656 ,4.64146 ,45.54202 
47 ,9.4235 ,1.08847 ,4.62435 ,45.37413 
48 ,9.6315 ,1.09054 ,4.59697 ,45.10550 
49 ,9.8236 ,1.09247 ,4.57986 ,44.93761 
50 ,10.0156 ,1.09439 ,4.56960 ,44.83688 
51 ,10.2078 ,1.09637 ,4.54906 ,44.63541 
52 ,10.4158 ,1.09836 ,4.54222 ,44.56825 
53 ,10.6237 ,1.10047 ,4.50457 ,44.19889 
54 ,10.8160 ,1.10238 ,4.48746 ,44.03100 
55 ,11.0079 ,1.10427 ,4.48062 ,43.96384 
56 ,11.2160 ,1.10637 ,4.45324 ,43.69521 
57 ,11.4079 ,1.10830 ,4.44298 ,43.59448 
58 ,11.6004 ,1.11025 ,4.41560 ,43.32585 
59 ,11.8085 ,1.11232 ,4.42244 ,43.39301 
60 ,12.0484 ,1.11470 ,4.39164 ,43.09080 
61 ,12.2564 ,1.11679 ,4.37453 ,42.92291 
62 ,12.4483 ,1.11870 ,4.35742 ,42.75502 
63 ,12.6248 ,1.12060 ,4.33004 ,42.48639 
64 ,12.8329 ,1.12257 ,4.31978 ,42.38566 
65 ,13.0409 ,1.12466 ,4.27871 ,41.98272 
66 ,13.2331 ,1.12656 ,4.28556 ,42.04988 
67 ,13.4569 ,1.12873 ,4.25818 ,41.78125 
68 ,13.6331 ,1.13063 ,4.24449 ,41.64694 
69 ,13.8254 ,1.13246 ,4.23765 ,41.57978 
70 ,14.0172 ,1.13437 ,4.21027 ,41.31115 
71 ,14.2095 ,1.13631 ,4.20685 ,41.27758 
72 ,14.4015 ,1.13823 ,4.16578 ,40.87464 
73 ,14.5938 ,1.14016 ,4.15894 ,40.80748 
74 ,14.7858 ,1.14210 ,4.14867 ,40.70674 
75 ,15.2340 ,1.14535 ,4.13840 ,40.60601 
76 ,15.4256 ,1.14845 ,4.09734 ,40.20307 
77 ,15.6177 ,1.15038 ,4.05969 ,39.83371 
78 ,15.8098 ,1.15230 ,4.06312 ,39.86729 
79 ,16.0019 ,1.15424 ,4.03574 ,39.59866 
80 ,16.1939 ,1.15613 ,4.02547 ,39.49793 
81 ,16.3859 ,1.15803 ,4.00152 ,39.26288 
82 ,16.5781 ,1.16001 ,3.98441 ,39.09499 
83 ,16.7702 ,1.16191 ,3.97756 ,39.02783 
84 ,16.9782 ,1.16392 ,3.95361 ,38.79278 
85 ,17.1704 ,1.16591 ,3.93650 ,38.62489 
86 ,17.3624 ,1.16781 ,3.92281 ,38.49058 
87 ,17.5545 ,1.16973 ,3.88174 ,38.08764 
88 ,17.7466 ,1.17167 ,3.90227 ,38.28911 
89 ,17.9387 ,1.17359 ,3.86121 ,37.88617 
90 ,18.1147 ,1.17546 ,3.86121 ,37.88617 
91 ,18.3068 ,1.17727 ,3.84067 ,37.68470 
92 ,18.4828 ,1.17915 ,3.81672 ,37.44965 
93 ,18.6590 ,1.18093 ,3.80645 ,37.34891 
94 ,18.8350 ,1.18266 ,3.78250 ,37.11387 
95 ,19.0271 ,1.18447 ,3.77908 ,37.08029 
96 ,19.2192 ,1.18639 ,3.74828 ,36.77808 
97 ,19.4113 ,1.18830 ,3.74143 ,36.71093 
98 ,19.6034 ,1.19021 ,3.72774 ,36.57661 
99 ,19.7954 ,1.19214 ,3.70721 ,36.37514 
100 ,20.0040 ,1.19412 ,3.70037 ,36.30799 
101 ,20.2119 ,1.19639 ,3.69010 ,36.20725 
102 ,20.4199 ,1.19834 ,3.65588 ,35.87147 
103 ,20.6281 ,1.20037 ,3.64561 ,35.77073 
104 ,20.8359 ,1.20256 ,3.61481 ,35.46853 
105 ,21.0284 ,1.20444 ,3.61139 ,35.43495 
106 ,21.2363 ,1.20655 ,3.57375 ,35.06559 
107 ,21.4285 ,1.20845 ,3.58743 ,35.19990 
108 ,21.6204 ,1.21038 ,3.54637 ,34.79696 
109 ,21.8286 ,1.21248 ,3.53610 ,34.69623 
110 ,22.0205 ,1.21438 ,3.52584 ,34.59549 
111 ,22.2124 ,1.21629 ,3.50188 ,34.36045 
112 ,22.4049 ,1.21824 ,3.49161 ,34.25971 
113 ,22.6289 ,1.22038 ,3.46424 ,33.99108 
114 ,22.8209 ,1.22241 ,3.45055 ,33.85677 
115 ,23.0290 ,1.22442 ,3.44028 ,33.75604 
116 ,23.2213 ,1.22640 ,3.42317 ,33.58814 
117 ,23.4131 ,1.22831 ,3.39579 ,33.31952 
118 ,23.6215 ,1.23038 ,3.39237 ,33.28594 
119 ,23.8135 ,1.23226 ,3.35473 ,32.91658 
120 ,24.0376 ,1.23458 ,3.33762 ,32.74869 
121 ,24.2297 ,1.23640 ,3.34788 ,32.84942 
122 ,24.4213 ,1.23840 ,3.31708 ,32.54722 
123 ,24.6139 ,1.24034 ,3.29655 ,32.34575 
124 ,24.8215 ,1.24235 ,3.28971 ,32.27859 
125 ,25.0299 ,1.24450 ,3.26575 ,32.04354 
126 ,25.2541 ,1.24657 ,3.23837 ,31.77492 
127 ,25.4462 ,1.24863 ,3.23837 ,31.77492 
128 ,25.6540 ,1.25070 ,3.21100 ,31.50629 
129 ,25.8622 ,1.25277 ,3.20415 ,31.43913 
130 ,26.0541 ,1.25472 ,3.18362 ,31.23766 
131 ,26.2463 ,1.25659 ,3.18020 ,31.20409 
132 ,26.4385 ,1.25857 ,3.13913 ,30.80115 
133 ,26.6462 ,1.26067 ,3.14255 ,30.83472 
134 ,26.8385 ,1.26255 ,3.10491 ,30.46536 
135 ,27.0788 ,1.26493 ,3.11175 ,30.53252 
136 ,27.2709 ,1.26691 ,3.08095 ,30.23031 
137 ,27.4790 ,1.26890 ,3.07069 ,30.12958 
138 ,27.6710 ,1.27086 ,3.05700 ,29.99527 
139 ,27.8631 ,1.27294 ,3.03304 ,29.76022 
140 ,28.0548 ,1.27472 ,3.01251 ,29.55875 
141 ,28.2472 ,1.27659 ,3.00909 ,29.52517 
142 ,28.4713 ,1.27876 ,2.98513 ,29.29012 
143 ,28.6634 ,1.28078 ,2.98855 ,29.32370 
144 ,28.8711 ,1.28290 ,2.95433 ,28.98792 
145 ,29.0636 ,1.28481 ,2.95091 ,28.95434 
146 ,29.2716 ,1.28688 ,2.92696 ,28.71929 
147 ,29.4637 ,1.28877 ,2.92696 ,28.71929 
148 ,29.6557 ,1.29068 ,2.87905 ,28.24919 
149 ,29.8477 ,1.29262 ,2.88247 ,28.28277 
150 ,30.0399 ,1.29454 ,2.87220 ,28.18204 
151 ,30.2321 ,1.29650 ,2.83798 ,27.84625 
152 ,30.4400 ,1.29851 ,2.83798 ,27.84625 
153 ,30.6322 ,1.30046 ,2.81060 ,27.57763 
154 ,30.8402 ,1.30252 ,2.80718 ,27.54405 
155 ,31.0319 ,1.30445 ,2.79007 ,27.37616 
156 ,31.2404 ,1.30647 ,2.79007 ,27.37616 
157 ,31.4484 ,1.30865 ,2.75927 ,27.07395 
158 ,31.6404 ,1.31056 ,2.74558 ,26.93964 
159 ,31.8486 ,1.31269 ,2.74216 ,26.90606 
160 ,32.0405 ,1.31458 ,2.71136 ,26.60386 
161 ,32.2485 ,1.31655 ,2.69425 ,26.43597 
162 ,32.4407 ,1.31855 ,2.69767 ,26.46954 
163 ,32.6329 ,1.32043 ,2.64976 ,25.99945 
164 ,32.8248 ,1.32235 ,2.64292 ,25.93229 
165 ,33.0332 ,1.32445 ,2.61212 ,25.63009 
166 ,33.2407 ,1.32657 ,2.61212 ,25.63009 
167 ,33.4173 ,1.32843 ,2.59158 ,25.42862 
168 ,33.6090 ,1.33022 ,2.58132 ,25.32788 
169 ,33.8020 ,1.33212 ,2.57789 ,25.29430 
170 ,34.0093 ,1.33426 ,2.54710 ,24.99210 
171 ,34.2176 ,1.33630 ,2.53341 ,24.85779 
172 ,34.4092 ,1.33820 ,2.52998 ,24.82421 
173 ,34.6019 ,1.34018 ,2.50603 ,24.58916 
174 ,34.7939 ,1.34209 ,2.49234 ,24.45485 
175 ,35.0178 ,1.34425 ,2.47865 ,24.32053 
176 ,35.2099 ,1.34621 ,2.46839 ,24.21980 
177 ,35.4021 ,1.34814 ,2.45470 ,24.08549 
178 ,35.5940 ,1.35021 ,2.42048 ,23.74970 
179 ,35.7862 ,1.35199 ,2.42732 ,23.81686 
180 ,35.9944 ,1.35400 ,2.39994 ,23.54823 
181 ,36.2025 ,1.35618 ,2.39310 ,23.48108 
182 ,36.3944 ,1.35811 ,2.35888 ,23.14529 
183 ,36.5861 ,1.35996 ,2.37256 ,23.27961 
184 ,36.7782 ,1.36193 ,2.33150 ,22.87667 
185 ,36.9866 ,1.36397 ,2.32808 ,22.84309 
186 ,37.1786 ,1.36589 ,2.31439 ,22.70877 
187 ,37.3708 ,1.36784 ,2.29043 ,22.47373 
188 ,37.5628 ,1.36974 ,2.28359 ,22.40657 
189 ,37.7708 ,1.37190 ,2.26306 ,22.20510 
190 ,37.9790 ,1.37388 ,2.23910 ,21.97005 
191 ,38.1711 ,1.37585 ,2.22541 ,21.83574 
192 ,38.3630 ,1.37773 ,2.22541 ,21.83574 
193 ,38.5712 ,1.37969 ,2.19803 ,21.56711 
194 ,38.7629 ,1.38175 ,2.20146 ,21.60069 
195 ,38.9552 ,1.38370 ,2.16723 ,21.26491 
196 ,39.1635 ,1.38576 ,2.16039 ,21.19775 
197 ,39.3716 ,1.38786 ,2.13301 ,20.92912 
198 ,39.5793 ,1.38991 ,2.13986 ,20.99628 
199 ,39.7717 ,1.39185 ,2.10564 ,20.66050 
200 ,39.9638 ,1.39374 ,2.10906 ,20.69408 
201 ,40.1558 ,1.39565 ,2.07826 ,20.39187 
202 ,40.3477 ,1.39758 ,2.07826 ,20.39187 
203 ,40.5399 ,1.39952 ,2.06799 ,20.29114 
204 ,40.7322 ,1.40147 ,2.04061 ,20.02251 
205 ,40.9398 ,1.40351 ,2.04404 ,20.05609 
206 ,41.1323 ,1.40543 ,2.00982 ,19.72031 
207 ,41.3240 ,1.40739 ,2.00297 ,19.65315 
208 ,41.5164 ,1.40924 ,1.99270 ,19.55241 
209 ,41.7083 ,1.41115 ,1.96875 ,19.31737 
210 ,41.9164 ,1.41332 ,1.95164 ,19.14948 
211 ,42.1082 ,1.41514 ,1.94479 ,19.08232 
212 ,42.3013 ,1.41714 ,1.93795 ,19.01516 
213 ,42.5087 ,1.41911 ,1.91399 ,18.78011 
214 ,42.7170 ,1.42125 ,1.89346 ,18.57864 
215 ,42.9087 ,1.42323 ,1.88662 ,18.51149 
216 ,43.1170 ,1.42526 ,1.85582 ,18.20928 
217 ,43.3090 ,1.42717 ,1.85582 ,18.20928 
218 ,43.5173 ,1.42929 ,1.83871 ,18.04139 
219 ,43.7092 ,1.43117 ,1.82160 ,17.87350 
220 ,43.9171 ,1.43326 ,1.80791 ,17.73919 
221 ,44.1095 ,1.43520 ,1.79764 ,17.63845 
222 ,44.3173 ,1.43725 ,1.79764 ,17.63845 
223 ,44.5096 ,1.43915 ,1.75315 ,17.20193 
224 ,44.7018 ,1.44113 ,1.77711 ,17.43698 
225 ,44.9098 ,1.44307 ,1.71551 ,16.83257 
226 ,45.1020 ,1.44511 ,1.74289 ,17.10120 
227 ,45.3098 ,1.44715 ,1.68813 ,16.56395 
228 ,45.5180 ,1.44920 ,1.69840 ,16.66468 
229 ,45.7261 ,1.45132 ,1.67786 ,16.46321 
230 ,45.9180 ,1.45324 ,1.66760 ,16.36248 
231 ,46.1263 ,1.45536 ,1.65733 ,16.26174 
232 ,46.3183 ,1.45719 ,1.64364 ,16.12743 
233 ,46.5100 ,1.45916 ,1.62653 ,15.95954 
234 ,46.7020 ,1.46111 ,1.63680 ,16.06027 
235 ,46.8945 ,1.46302 ,1.59231 ,15.62375 
236 ,47.0867 ,1.46492 ,1.59573 ,15.65733 
237 ,47.3108 ,1.46712 ,1.56151 ,15.32155 
238 ,47.5186 ,1.46925 ,1.56151 ,15.32155 
239 ,47.7270 ,1.47132 ,1.54098 ,15.12008 
240 ,47.9350 ,1.47336 ,1.52045 ,14.91861 
241 ,48.1272 ,1.47534 ,1.51360 ,14.85145 
242 ,48.3191 ,1.47731 ,1.52729 ,14.98577 
243 ,48.5268 ,1.47933 ,1.49649 ,14.68356 
244 ,48.7188 ,1.48126 ,1.46911 ,14.41493 
245 ,48.9113 ,1.48319 ,1.45542 ,14.28062 
246 ,49.1676 ,1.48576 ,1.43831 ,14.11273 
247 ,49.3596 ,1.48771 ,1.43147 ,14.04557 
248 ,49.5677 ,1.48977 ,1.42805 ,14.01199 
249 ,49.7753 ,1.49176 ,1.40751 ,13.81053 
250 ,49.9679 ,1.49373 ,1.39040 ,13.64263 
251 ,50.1599 ,1.49569 ,1.38698 ,13.60906 
252 ,50.3519 ,1.49760 ,1.35618 ,13.30685 
253 ,50.5600 ,1.49966 ,1.35960 ,13.34043 
254 ,50.7677 ,1.50172 ,1.32880 ,13.03822 
255 ,50.9601 ,1.50369 ,1.32538 ,13.00465 
256 ,51.1681 ,1.50573 ,1.30827 ,12.83675 
257 ,51.3601 ,1.50767 ,1.30827 ,12.83675 
258 ,51.5524 ,1.50961 ,1.27063 ,12.46739 
259 ,51.7442 ,1.51150 ,1.28432 ,12.60171 
260 ,51.9521 ,1.51357 ,1.25009 ,12.26592 
261 ,52.1446 ,1.51554 ,1.24325 ,12.19877 
262 ,52.3527 ,1.51762 ,1.23298 ,12.09803 
263 ,52.5608 ,1.51959 ,1.21587 ,11.93014 
264 ,52.7688 ,1.52172 ,1.19192 ,11.69509 
265 ,52.9610 ,1.52369 ,1.18850 ,11.66151 
266 ,53.1529 ,1.52571 ,1.16796 ,11.46004 
267 ,53.3451 ,1.52752 ,1.16454 ,11.42647 
268 ,53.5372 ,1.52943 ,1.17481 ,11.52720 
269 ,53.7291 ,1.53129 ,1.12347 ,11.02353 
270 ,53.9533 ,1.53351 ,1.11663 ,10.95637 
271 ,54.1451 ,1.53548 ,1.12690 ,11.05710 
272 ,54.3373 ,1.53744 ,1.10294 ,10.82206 
273 ,54.5456 ,1.53954 ,1.09267 ,10.72132 
274 ,54.7694 ,1.54166 ,1.06872 ,10.48627 
275 ,54.9618 ,1.54365 ,1.07556 ,10.55343 
276 ,55.1537 ,1.54561 ,1.03450 ,10.15049 
277 ,55.3457 ,1.54747 ,1.03450 ,10.15049 
278 ,55.5379 ,1.54943 ,1.03108 ,10.11691 
279 ,55.7300 ,1.55135 ,1.00028 ,9.81471 
280 ,55.9221 ,1.55327 ,1.01054 ,9.91544 
281 ,56.1299 ,1.55536 ,0.97974 ,9.61324 
282 ,56.3219 ,1.55725 ,0.97632 ,9.57966 
283 ,56.5145 ,1.55922 ,0.96263 ,9.44535 
284 ,56.7224 ,1.56128 ,0.95237 ,9.34461 
285 ,56.9144 ,1.56317 ,0.92841 ,9.10956 
286 ,57.1067 ,1.56509 ,0.91130 ,8.94167 
287 ,57.2984 ,1.56703 ,0.91814 ,9.00883 
288 ,57.4908 ,1.56894 ,0.89077 ,8.74020 
289 ,57.6828 ,1.57087 ,0.89419 ,8.77378 
290 ,57.8909 ,1.57282 ,0.85997 ,8.43800 
291 ,58.0830 ,1.57490 ,0.85312 ,8.37084 
292 ,58.2751 ,1.57678 ,0.85654 ,8.40442 
293 ,58.4672 ,1.57868 ,0.83259 ,8.16937 
294 ,58.6591 ,1.58065 ,0.83601 ,8.20295 
295 ,58.8674 ,1.58269 ,0.80179 ,7.86717 
296 ,59.0591 ,1.58461 ,0.79495 ,7.80001 
297 ,59.2513 ,1.58655 ,0.77441 ,7.59854 
298 ,59.4433 ,1.58847 ,0.77099 ,7.56496 
299 ,59.6353 ,1.59043 ,0.76072 ,7.46423 
300 ,59.8274 ,1.59232 ,0.74361 ,7.29633 
301 ,60.0676 ,1.59464 ,0.72308 ,7.09486 
302 ,60.2598 ,1.59664 ,0.72992 ,7.16202 
303 ,60.4518 ,1.59853 ,0.68886 ,6.75908 
304 ,60.6439 ,1.60045 ,0.69570 ,6.82624 
305 ,60.8361 ,1.60238 ,0.69570 ,6.82624 
306 ,61.0602 ,1.60452 ,0.67859 ,6.65835 
307 ,61.2680 ,1.60677 ,0.63753 ,6.25541 
308 ,61.4764 ,1.60876 ,0.64437 ,6.32256 
309 ,61.6686 ,1.61067 ,0.62042 ,6.08752 
310 ,61.8601 ,1.61271 ,0.62042 ,6.08752 
311 ,62.0526 ,1.61453 ,0.59304 ,5.81889 
312 ,62.2606 ,1.61663 ,0.61357 ,6.02036 
313 ,62.4526 ,1.61856 ,0.58277 ,5.71815 
314 ,62.6444 ,1.62053 ,0.57935 ,5.68458 
315 ,62.8364 ,1.62238 ,0.56908 ,5.58384 
316 ,63.0605 ,1.62465 ,0.55197 ,5.41595 
317 ,63.2529 ,1.62656 ,0.53144 ,5.21448 
318 ,63.4450 ,1.62845 ,0.52117 ,5.11375 
319 ,63.6373 ,1.63042 ,0.53144 ,5.21448 
320 ,63.8453 ,1.63248 ,0.50064 ,4.91228 
321 ,64.0370 ,1.63439 ,0.49380 ,4.84512 
322 ,64.2293 ,1.63628 ,0.46984 ,4.61007 
323 ,64.4215 ,1.63821 ,0.46642 ,4.57649 
324 ,64.6137 ,1.64014 ,0.44588 ,4.37502 
325 ,64.8063 ,1.64210 ,0.44588 ,4.37502 
326 ,65.0137 ,1.64414 ,0.43220 ,4.24071 
327 ,65.2061 ,1.64603 ,0.40482 ,3.97208 
328 ,65.4140 ,1.64816 ,0.40482 ,3.97208 
329 ,65.6061 ,1.65006 ,0.39113 ,3.83777 
330 ,65.7981 ,1.65198 ,0.39797 ,3.90493 
331 ,65.9901 ,1.65395 ,0.36375 ,3.56914 
332 ,66.2301 ,1.65625 ,0.35006 ,3.43483 
333 ,66.4222 ,1.65820 ,0.36033 ,3.53557 
334 ,66.6144 ,1.66011 ,0.33638 ,3.30052 
335 ,66.8070 ,1.66207 ,0.32269 ,3.16620 
336 ,67.0146 ,1.66415 ,0.30558 ,2.99831 
337 ,67.2069 ,1.66610 ,0.30215 ,2.96473 
338 ,67.3987 ,1.66804 ,0.30558 ,2.99831 
339 ,67.6067 ,1.67005 ,0.26451 ,2.59537 
340 ,67.7987 ,1.67196 ,0.27478 ,2.69611 
341 ,67.9910 ,1.67394 ,0.24740 ,2.42748 
342 ,68.1830 ,1.67587 ,0.24740 ,2.42748 
343 ,68.3747 ,1.67771 ,0.24055 ,2.36032 
344 ,68.5671 ,1.67964 ,0.20633 ,2.02454 
345 ,68.7592 ,1.68161 ,0.22002 ,2.15885 
346 ,68.9353 ,1.68343 ,0.19949 ,1.95738 
347 ,69.1273 ,1.68527 ,0.19264 ,1.89023 
348 ,69.3194 ,1.68716 ,0.19264 ,1.89023 
349 ,69.5112 ,1.68907 ,0.15842 ,1.55445 
350 ,69.7037 ,1.69101 ,0.16527 ,1.62160 
351 ,69.8957 ,1.69295 ,0.15158 ,1.48729 
352 ,70.1198 ,1.69509 ,0.14816 ,1.45371 
353 ,70.3118 ,1.69711 ,0.11393 ,1.11793 
354 ,70.5197 ,1.69919 ,0.12762 ,1.25224 
355 ,70.7122 ,1.70116 ,0.10025 ,0.98361 
356 ,70.9363 ,1.70326 ,0.10025 ,0.98361 
357 ,71.1443 ,1.70543 ,0.08314 ,0.81572 
358 ,71.3365 ,1.70734 ,0.07971 ,0.78214 
359 ,71.5445 ,1.70945 ,0.06260 ,0.61425 
360 ,71.7366 ,1.71133 ,0.07287 ,0.71499 
361 ,71.9447 ,1.71342 ,0.05234 ,0.51352 
362 ,72.1527 ,1.71541 ,0.04891 ,0.47994 
363 ,72.3449 ,1.71739 ,0.02154 ,0.21131 
364 ,72.5528 ,1.71951 ,-0.00242 ,-0.02373 
365 ,72.7285 ,1.72137 ,-0.00242 ,-0.02373 
366 ,72.9211 ,1.72325 ,0.00443 ,0.04342 
367 ,73.1291 ,1.72525 ,-0.03322 ,-0.32594 
368 ,73.3211 ,1.72722 ,-0.03322 ,-0.32594 
369 ,73.5133 ,1.72911 ,-0.04006 ,-0.39310 
370 ,73.7056 ,1.73104 ,-0.04348 ,-0.42667 
371 ,73.8972 ,1.73296 ,-0.05033 ,-0.49383 
372 ,74.0896 ,1.73483 ,-0.08455 ,-0.82961 
373 ,74.2817 ,1.73682 ,-0.07771 ,-0.76246 
374 ,74.4897 ,1.73875 ,-0.09140 ,-0.89677 
375 ,74.6819 ,1.74083 ,-0.09140 ,-0.89677 
376 ,74.8735 ,1.74271 ,-0.11877 ,-1.16540 
377 ,75.1137 ,1.74510 ,-0.13246 ,-1.29971 
378 ,75.3219 ,1.74711 ,-0.12904 ,-1.26613 
379 ,75.5142 ,1.74911 ,-0.14615 ,-1.43402 
380 ,75.7221 ,1.75120 ,-0.14273 ,-1.40045 
381 ,75.9143 ,1.75312 ,-0.17695 ,-1.73623 
382 ,76.1225 ,1.75520 ,-0.16668 ,-1.63549 
383 ,76.3301 ,1.75721 ,-0.19406 ,-1.90412 
384 ,76.5225 ,1.75918 ,-0.18722 ,-1.83696 
385 ,76.7145 ,1.76108 ,-0.21117 ,-2.07201 
386 ,76.9069 ,1.76302 ,-0.22486 ,-2.20632 
387 ,77.1143 ,1.76511 ,-0.23855 ,-2.34064 
388 ,77.3075 ,1.76702 ,-0.24197 ,-2.37422 
389 ,77.5149 ,1.76909 ,-0.23513 ,-2.30706 
390 ,77.7070 ,1.77099 ,-0.25908 ,-2.54211 
391 ,77.8985 ,1.77293 ,-0.26250 ,-2.57569 
392 ,78.1073 ,1.77503 ,-0.28988 ,-2.84431 
393 ,78.3152 ,1.77714 ,-0.29330 ,-2.87789 
394 ,78.5234 ,1.77919 ,-0.29330 ,-2.87789 
395 ,78.7314 ,1.78121 ,-0.31384 ,-3.07936 
396 ,78.9236 ,1.78319 ,-0.31726 ,-3.11294 
397 ,79.1316 ,1.78526 ,-0.34806 ,-3.41514 
398 ,79.3233 ,1.78720 ,-0.33095 ,-3.24725 
399 ,79.5156 ,1.78911 ,-0.33779 ,-3.31441 
400 ,79.7078 ,1.79100 ,-0.36859 ,-3.61661 
401 ,79.8998 ,1.79293 ,-0.35490 ,-3.48230 
402 ,80.1077 ,1.79495 ,-0.37544 ,-3.68377 
403 ,80.2998 ,1.79690 ,-0.36859 ,-3.61661 
404 ,80.4921 ,1.79890 ,-0.40966 ,-4.01955 
405 ,80.7000 ,1.80093 ,-0.38570 ,-3.78450 
406 ,80.9081 ,1.80301 ,-0.41308 ,-4.05313 
407 ,81.1324 ,1.80526 ,-0.43361 ,-4.25460 
408 ,81.3405 ,1.80738 ,-0.43703 ,-4.28818 
409 ,81.5165 ,1.80922 ,-0.46099 ,-4.52323 
410 ,81.7087 ,1.81098 ,-0.46783 ,-4.59038 
411 ,81.9167 ,1.81310 ,-0.46099 ,-4.52323 
412 ,82.1089 ,1.81501 ,-0.48152 ,-4.72470 
413 ,82.3169 ,1.81714 ,-0.47126 ,-4.62396 
414 ,82.5088 ,1.81899 ,-0.50548 ,-4.95975 
415 ,82.7171 ,1.82111 ,-0.50548 ,-4.95975 
416 ,82.9252 ,1.82321 ,-0.51917 ,-5.09406 
417 ,83.1333 ,1.82528 ,-0.52601 ,-5.16121 
418 ,83.3413 ,1.82734 ,-0.51917 ,-5.09406 
419 ,83.5335 ,1.82923 ,-0.54997 ,-5.39626 
420 ,83.7255 ,1.83116 ,-0.54312 ,-5.32911 
421 ,83.9174 ,1.83307 ,-0.55681 ,-5.46342 
422 ,84.1416 ,1.83535 ,-0.56365 ,-5.53058 
423 ,84.3497 ,1.83738 ,-0.58419 ,-5.73205 
424 ,84.5417 ,1.83938 ,-0.58761 ,-5.76562 
425 ,84.7335 ,1.84137 ,-0.61499 ,-6.03425 
426 ,84.9257 ,1.84320 ,-0.59445 ,-5.83278 
427 ,85.1178 ,1.84513 ,-0.61841 ,-6.06783 
428 ,85.3099 ,1.84704 ,-0.62525 ,-6.13499 
429 ,85.5184 ,1.84911 ,-0.62525 ,-6.13499 
430 ,85.7099 ,1.85104 ,-0.64236 ,-6.30288 
431 ,85.9021 ,1.85293 ,-0.64579 ,-6.33646 
432 ,86.1104 ,1.85490 ,-0.66632 ,-6.53793 
433 ,86.3181 ,1.85701 ,-0.65947 ,-6.47077 
434 ,86.5107 ,1.85900 ,-0.69370 ,-6.80655 
435 ,86.7184 ,1.86111 ,-0.68343 ,-6.70582 
436 ,86.9105 ,1.86298 ,-0.70739 ,-6.94086 
437 ,87.0869 ,1.86491 ,-0.70054 ,-6.87371 
438 ,87.3108 ,1.86690 ,-0.71765 ,-7.04160 
439 ,87.5349 ,1.86911 ,-0.72107 ,-7.07518 
440 ,87.7432 ,1.87134 ,-0.72450 ,-7.10876 
441 ,87.9353 ,1.87329 ,-0.74845 ,-7.34380 
442 ,88.1433 ,1.87536 ,-0.74845 ,-7.34380 
443 ,88.3353 ,1.87727 ,-0.77241 ,-7.57885 
444 ,88.5272 ,1.87917 ,-0.77583 ,-7.61243 
445 ,88.7195 ,1.88112 ,-0.76898 ,-7.54527 
446 ,88.9275 ,1.88316 ,-0.78952 ,-7.74674 
447 ,89.1194 ,1.88510 ,-0.78610 ,-7.71317 
448 ,89.3118 ,1.88707 ,-0.80321 ,-7.88106 
449 ,89.5197 ,1.88908 ,-0.80663 ,-7.91464 
450 ,89.7120 ,1.89100 ,-0.84085 ,-8.25042 
451 ,89.9038 ,1.89297 ,-0.82716 ,-8.11611 
452 ,90.0962 ,1.89485 ,-0.84427 ,-8.28400 
453 ,90.3047 ,1.89697 ,-0.84769 ,-8.31758 
454 ,90.5124 ,1.89901 ,-0.86823 ,-8.51904 
455 ,90.7045 ,1.90094 ,-0.86481 ,-8.48547 
456 ,90.9122 ,1.90294 ,-0.87849 ,-8.61978 
457 ,91.1205 ,1.90500 ,-0.87849 ,-8.61978 
458 ,91.3282 ,1.90714 ,-0.89218 ,-8.75409 
459 ,91.5208 ,1.90912 ,-0.89218 ,-8.75409 
460 ,91.7128 ,1.91103 ,-0.91614 ,-8.98914 
461 ,91.9204 ,1.91313 ,-0.91272 ,-8.95556 
462 ,92.1289 ,1.91507 ,-0.93325 ,-9.15703 
463 ,92.3370 ,1.91728 ,-0.93667 ,-9.19061 
