Data stamp = , 01-05-2022 00:19:12 211

Calibration Values: 
Slope = , 26.54 , g/V 
Offset Voltage at no contact = , -0.501760 , V 

No , Time , Stage Position ,   Mass , Force 
   ,  (s) ,      (mm)      ,   (g)  , (mN)  

1 ,0.0000 ,0.99948 ,5.40803 ,53.06356 
2 ,0.2031 ,0.99953 ,5.40118 ,52.99640 
3 ,0.7796 ,1.00171 ,5.41487 ,53.13072 
4 ,1.0039 ,1.00414 ,5.39092 ,52.89567 
5 ,1.1958 ,1.00615 ,5.40118 ,52.99640 
6 ,1.3721 ,1.00802 ,5.38749 ,52.86209 
7 ,1.5641 ,1.00979 ,5.37723 ,52.76135 
8 ,1.7563 ,1.01175 ,5.34643 ,52.45915 
9 ,1.9483 ,1.01369 ,5.33274 ,52.32484 
10 ,2.1721 ,1.01587 ,5.31905 ,52.19052 
11 ,2.3641 ,1.01784 ,5.30536 ,52.05621 
12 ,2.5564 ,1.01978 ,5.25745 ,51.58611 
13 ,2.7807 ,1.02204 ,5.26430 ,51.65327 
14 ,2.9884 ,1.02405 ,5.22665 ,51.28391 
15 ,3.1809 ,1.02606 ,5.22323 ,51.25033 
16 ,3.3729 ,1.02796 ,5.17190 ,50.74666 
17 ,3.5650 ,1.02985 ,5.17874 ,50.81381 
18 ,3.7731 ,1.03194 ,5.14452 ,50.47803 
19 ,3.9652 ,1.03389 ,5.15136 ,50.54519 
20 ,4.1729 ,1.03596 ,5.11030 ,50.14225 
21 ,4.3653 ,1.03782 ,5.09319 ,49.97436 
22 ,4.5570 ,1.03976 ,5.07608 ,49.80646 
23 ,4.7334 ,1.04172 ,5.04185 ,49.47068 
24 ,4.9416 ,1.04360 ,5.04870 ,49.53784 
25 ,5.1332 ,1.04555 ,5.01106 ,49.16848 
26 ,5.3418 ,1.04749 ,5.00763 ,49.13490 
27 ,5.5494 ,1.04966 ,4.97341 ,48.79911 
28 ,5.7738 ,1.05192 ,4.94603 ,48.53049 
29 ,5.9661 ,1.05389 ,4.94946 ,48.56407 
30 ,6.1579 ,1.05578 ,4.92550 ,48.32902 
31 ,6.3501 ,1.05768 ,4.89470 ,48.02681 
32 ,6.5422 ,1.05961 ,4.89470 ,48.02681 
33 ,6.7341 ,1.06158 ,4.85706 ,47.65745 
34 ,6.9422 ,1.06358 ,4.85364 ,47.62387 
35 ,7.1503 ,1.06569 ,4.80573 ,47.15378 
36 ,7.3588 ,1.06779 ,4.79888 ,47.08662 
37 ,7.5667 ,1.06986 ,4.78519 ,46.95231 
38 ,7.7588 ,1.07183 ,4.76808 ,46.78442 
39 ,7.9348 ,1.07368 ,4.73728 ,46.48221 
40 ,8.1267 ,1.07544 ,4.74755 ,46.58295 
41 ,8.3189 ,1.07734 ,4.71333 ,46.24716 
42 ,8.5109 ,1.07932 ,4.69279 ,46.04569 
43 ,8.7190 ,1.08126 ,4.69279 ,46.04569 
44 ,8.9269 ,1.08345 ,4.65857 ,45.70991 
45 ,9.1192 ,1.08543 ,4.65857 ,45.70991 
46 ,9.3271 ,1.08742 ,4.61408 ,45.27339 
47 ,9.5193 ,1.08938 ,4.61751 ,45.30697 
48 ,9.7271 ,1.09146 ,4.60040 ,45.13908 
49 ,9.9193 ,1.09336 ,4.57302 ,44.87045 
50 ,10.0951 ,1.09527 ,4.53880 ,44.53467 
51 ,10.2876 ,1.09703 ,4.53880 ,44.53467 
52 ,10.4798 ,1.09901 ,4.53537 ,44.50109 
53 ,10.6878 ,1.10107 ,4.50457 ,44.19889 
54 ,10.8799 ,1.10298 ,4.47720 ,43.93026 
55 ,11.0719 ,1.10493 ,4.46009 ,43.76237 
56 ,11.2640 ,1.10682 ,4.46009 ,43.76237 
57 ,11.4561 ,1.10873 ,4.42929 ,43.46016 
58 ,11.6482 ,1.11060 ,4.41902 ,43.35943 
59 ,11.8568 ,1.11274 ,4.39507 ,43.12438 
60 ,12.0485 ,1.11468 ,4.37111 ,42.88933 
61 ,12.2400 ,1.11659 ,4.37111 ,42.88933 
62 ,12.4326 ,1.11854 ,4.33004 ,42.48639 
63 ,12.6405 ,1.12054 ,4.33347 ,42.51997 
64 ,12.8327 ,1.12249 ,4.30951 ,42.28492 
65 ,13.0249 ,1.12440 ,4.30267 ,42.21777 
66 ,13.2326 ,1.12652 ,4.25476 ,41.74767 
67 ,13.4410 ,1.12844 ,4.27187 ,41.91556 
68 ,13.6331 ,1.13052 ,4.23765 ,41.57978 
69 ,13.8412 ,1.13249 ,4.23422 ,41.54620 
70 ,14.0492 ,1.13474 ,4.20685 ,41.27758 
71 ,14.2573 ,1.13670 ,4.17947 ,41.00895 
72 ,14.4649 ,1.13883 ,4.16920 ,40.90821 
73 ,14.6573 ,1.14071 ,4.14525 ,40.67317 
74 ,14.8495 ,1.14269 ,4.13840 ,40.60601 
75 ,15.0415 ,1.14459 ,4.13156 ,40.53885 
76 ,15.2337 ,1.14648 ,4.08707 ,40.10233 
77 ,15.4257 ,1.14839 ,4.10076 ,40.23665 
78 ,15.6338 ,1.15048 ,4.06312 ,39.86729 
79 ,15.8257 ,1.15240 ,4.06654 ,39.90087 
80 ,16.0340 ,1.15453 ,4.02205 ,39.46435 
81 ,16.2261 ,1.15642 ,4.02889 ,39.53150 
82 ,16.4181 ,1.15836 ,3.99809 ,39.22930 
83 ,16.6099 ,1.16027 ,3.98441 ,39.09499 
84 ,16.8018 ,1.16230 ,3.95703 ,38.82636 
85 ,16.9940 ,1.16411 ,3.95361 ,38.79278 
86 ,17.1865 ,1.16602 ,3.93650 ,38.62489 
87 ,17.3784 ,1.16795 ,3.91254 ,38.38984 
88 ,17.5862 ,1.17002 ,3.90227 ,38.28911 
89 ,17.7945 ,1.17211 ,3.87832 ,38.05406 
90 ,17.9868 ,1.17397 ,3.88174 ,38.08764 
91 ,18.1789 ,1.17597 ,3.86121 ,37.88617 
92 ,18.3710 ,1.17789 ,3.83041 ,37.58396 
93 ,18.5630 ,1.17980 ,3.82014 ,37.48323 
94 ,18.7552 ,1.18170 ,3.78934 ,37.18102 
95 ,18.9471 ,1.18367 ,3.79961 ,37.28176 
96 ,19.1392 ,1.18553 ,3.76539 ,36.94597 
97 ,19.3314 ,1.18747 ,3.75512 ,36.84524 
98 ,19.5394 ,1.18951 ,3.74828 ,36.77808 
99 ,19.7316 ,1.19145 ,3.71748 ,36.47588 
100 ,19.9392 ,1.19351 ,3.71063 ,36.40872 
101 ,20.1317 ,1.19547 ,3.69010 ,36.20725 
102 ,20.3236 ,1.19738 ,3.69352 ,36.24083 
103 ,20.5158 ,1.19931 ,3.64903 ,35.80431 
104 ,20.7078 ,1.20119 ,3.64903 ,35.80431 
105 ,20.9001 ,1.20320 ,3.62508 ,35.56926 
106 ,21.0920 ,1.20506 ,3.60454 ,35.36779 
107 ,21.2839 ,1.20700 ,3.60797 ,35.40137 
108 ,21.4764 ,1.20888 ,3.57375 ,35.06559 
109 ,21.6844 ,1.21101 ,3.58059 ,35.13275 
110 ,21.8765 ,1.21291 ,3.53952 ,34.72981 
111 ,22.0680 ,1.21480 ,3.53610 ,34.69623 
112 ,22.2760 ,1.21688 ,3.51557 ,34.49476 
113 ,22.4521 ,1.21879 ,3.50530 ,34.39402 
114 ,22.6446 ,1.22063 ,3.48477 ,34.19255 
115 ,22.8688 ,1.22282 ,3.47792 ,34.12540 
116 ,23.0770 ,1.22489 ,3.45055 ,33.85677 
117 ,23.2689 ,1.22678 ,3.43686 ,33.72246 
118 ,23.4612 ,1.22876 ,3.41975 ,33.55457 
119 ,23.6532 ,1.23069 ,3.40606 ,33.42025 
120 ,23.8771 ,1.23290 ,3.37184 ,33.08447 
121 ,24.0853 ,1.23494 ,3.36499 ,33.01731 
122 ,24.2929 ,1.23707 ,3.33762 ,32.74869 
123 ,24.5018 ,1.23905 ,3.33762 ,32.74869 
124 ,24.7095 ,1.24121 ,3.32051 ,32.58080 
125 ,24.9017 ,1.24316 ,3.31366 ,32.51364 
126 ,25.0934 ,1.24509 ,3.26917 ,32.07712 
127 ,25.2859 ,1.24697 ,3.27944 ,32.17786 
128 ,25.4775 ,1.24888 ,3.22468 ,31.64060 
129 ,25.6700 ,1.25085 ,3.23495 ,31.74134 
130 ,25.8781 ,1.25278 ,3.22811 ,31.67418 
131 ,26.0702 ,1.25484 ,3.20073 ,31.40555 
132 ,26.2783 ,1.25684 ,3.19388 ,31.33840 
133 ,26.4860 ,1.25905 ,3.19046 ,31.30482 
134 ,26.6785 ,1.26087 ,3.15624 ,30.96904 
135 ,26.8866 ,1.26297 ,3.14940 ,30.90188 
136 ,27.0786 ,1.26490 ,3.11860 ,30.59968 
137 ,27.2708 ,1.26685 ,3.11175 ,30.53252 
138 ,27.4629 ,1.26879 ,3.10149 ,30.43178 
139 ,27.6548 ,1.27076 ,3.08095 ,30.23031 
140 ,27.8469 ,1.27261 ,3.07753 ,30.19674 
141 ,28.0550 ,1.27463 ,3.04673 ,29.89453 
142 ,28.2469 ,1.27654 ,3.04331 ,29.86095 
143 ,28.4391 ,1.27852 ,3.01935 ,29.62590 
144 ,28.6309 ,1.28042 ,2.99540 ,29.39086 
145 ,28.8233 ,1.28234 ,2.98855 ,29.32370 
146 ,29.0314 ,1.28443 ,2.97144 ,29.15581 
147 ,29.2235 ,1.28635 ,2.96118 ,29.05507 
148 ,29.4312 ,1.28845 ,2.94749 ,28.92076 
149 ,29.6235 ,1.29033 ,2.91669 ,28.61856 
150 ,29.8152 ,1.29224 ,2.89616 ,28.41709 
151 ,30.0078 ,1.29415 ,2.88931 ,28.34993 
152 ,30.1999 ,1.29616 ,2.86878 ,28.14846 
153 ,30.3920 ,1.29807 ,2.86878 ,28.14846 
154 ,30.5840 ,1.29998 ,2.84825 ,27.94699 
155 ,30.7761 ,1.30186 ,2.81745 ,27.64479 
156 ,30.9681 ,1.30383 ,2.83114 ,27.77910 
157 ,31.1759 ,1.30587 ,2.79349 ,27.40974 
158 ,31.3683 ,1.30778 ,2.79691 ,27.44332 
159 ,31.5764 ,1.30986 ,2.75927 ,27.07395 
160 ,31.7685 ,1.31177 ,2.74900 ,26.97322 
161 ,31.9602 ,1.31372 ,2.73189 ,26.80533 
162 ,32.1526 ,1.31563 ,2.70794 ,26.57028 
163 ,32.3444 ,1.31751 ,2.70794 ,26.57028 
164 ,32.5367 ,1.31948 ,2.68398 ,26.33523 
165 ,32.7129 ,1.32135 ,2.69083 ,26.40239 
166 ,32.9049 ,1.32314 ,2.66687 ,26.16734 
167 ,33.0969 ,1.32503 ,2.64976 ,25.99945 
168 ,33.2891 ,1.32696 ,2.64292 ,25.93229 
169 ,33.4970 ,1.32906 ,2.60527 ,25.56293 
170 ,33.6891 ,1.33098 ,2.60869 ,25.59651 
171 ,33.8974 ,1.33307 ,2.58132 ,25.32788 
172 ,34.0891 ,1.33503 ,2.57105 ,25.22715 
173 ,34.2816 ,1.33696 ,2.55052 ,25.02568 
174 ,34.4735 ,1.33894 ,2.55052 ,25.02568 
175 ,34.6657 ,1.34073 ,2.52998 ,24.82421 
176 ,34.8578 ,1.34269 ,2.49576 ,24.48842 
177 ,35.0658 ,1.34468 ,2.49576 ,24.48842 
178 ,35.2575 ,1.34671 ,2.45812 ,24.11906 
179 ,35.4501 ,1.34863 ,2.47865 ,24.32053 
180 ,35.6739 ,1.35079 ,2.43416 ,23.88402 
181 ,35.8660 ,1.35274 ,2.43759 ,23.91759 
182 ,36.0901 ,1.35487 ,2.41705 ,23.71612 
183 ,36.2821 ,1.35691 ,2.39310 ,23.48108 
184 ,36.4905 ,1.35891 ,2.40336 ,23.58181 
185 ,36.7144 ,1.36121 ,2.37256 ,23.27961 
186 ,36.9065 ,1.36314 ,2.36230 ,23.17887 
187 ,37.0987 ,1.36504 ,2.34177 ,22.97740 
188 ,37.3068 ,1.36716 ,2.32808 ,22.84309 
189 ,37.5147 ,1.36923 ,2.28701 ,22.44015 
190 ,37.7388 ,1.37136 ,2.28017 ,22.37299 
191 ,37.9308 ,1.37341 ,2.28017 ,22.37299 
192 ,38.1390 ,1.37550 ,2.25279 ,22.10437 
193 ,38.3306 ,1.37739 ,2.25279 ,22.10437 
194 ,38.5227 ,1.37933 ,2.23226 ,21.90290 
195 ,38.7312 ,1.38134 ,2.22541 ,21.83574 
196 ,38.9074 ,1.38329 ,2.18777 ,21.46638 
197 ,39.0993 ,1.38504 ,2.18092 ,21.39922 
198 ,39.2914 ,1.38698 ,2.18435 ,21.43280 
199 ,39.4837 ,1.38892 ,2.16039 ,21.19775 
200 ,39.6915 ,1.39102 ,2.15012 ,21.09702 
201 ,39.8835 ,1.39286 ,2.11932 ,20.79481 
202 ,40.0759 ,1.39484 ,2.09879 ,20.59334 
203 ,40.2678 ,1.39673 ,2.10906 ,20.69408 
204 ,40.4601 ,1.39867 ,2.07484 ,20.35829 
205 ,40.6681 ,1.40071 ,2.07484 ,20.35829 
206 ,40.8603 ,1.40271 ,2.05773 ,20.19040 
207 ,41.0524 ,1.40462 ,2.05430 ,20.15682 
208 ,41.2443 ,1.40653 ,2.02350 ,19.85462 
209 ,41.4684 ,1.40861 ,2.03377 ,19.95535 
210 ,41.6762 ,1.41077 ,1.98586 ,19.48526 
211 ,41.8522 ,1.41269 ,1.99955 ,19.61957 
212 ,42.0447 ,1.41453 ,1.96533 ,19.28379 
213 ,42.2366 ,1.41642 ,1.94137 ,19.04874 
214 ,42.4288 ,1.41839 ,1.94479 ,19.08232 
215 ,42.6209 ,1.42030 ,1.92426 ,18.88085 
216 ,42.8289 ,1.42239 ,1.90715 ,18.71296 
217 ,43.0532 ,1.42450 ,1.88662 ,18.51149 
218 ,43.2771 ,1.42674 ,1.87293 ,18.37717 
219 ,43.4693 ,1.42875 ,1.87635 ,18.41075 
220 ,43.6613 ,1.43071 ,1.84555 ,18.10855 
221 ,43.8695 ,1.43276 ,1.84897 ,18.14213 
222 ,44.0454 ,1.43464 ,1.81133 ,17.77276 
223 ,44.2373 ,1.43639 ,1.80449 ,17.70561 
224 ,44.4136 ,1.43833 ,1.81133 ,17.77276 
225 ,44.6056 ,1.44009 ,1.78053 ,17.47056 
226 ,44.7974 ,1.44200 ,1.76342 ,17.30267 
227 ,44.9899 ,1.44391 ,1.77369 ,17.40340 
228 ,45.1820 ,1.44588 ,1.72578 ,16.93331 
229 ,45.3900 ,1.44791 ,1.73946 ,17.06762 
230 ,45.5979 ,1.44996 ,1.70182 ,16.69826 
231 ,45.8062 ,1.45210 ,1.70866 ,16.76542 
232 ,45.9983 ,1.45407 ,1.67786 ,16.46321 
233 ,46.2063 ,1.45604 ,1.66760 ,16.36248 
234 ,46.3984 ,1.45799 ,1.64364 ,16.12743 
235 ,46.5906 ,1.45999 ,1.64364 ,16.12743 
236 ,46.7987 ,1.46197 ,1.62311 ,15.92596 
237 ,47.0066 ,1.46410 ,1.60942 ,15.79164 
238 ,47.1986 ,1.46600 ,1.57862 ,15.48944 
239 ,47.3908 ,1.46801 ,1.59231 ,15.62375 
240 ,47.5988 ,1.47008 ,1.55809 ,15.28797 
241 ,47.8064 ,1.47209 ,1.56493 ,15.35513 
242 ,47.9826 ,1.47398 ,1.54098 ,15.12008 
243 ,48.1747 ,1.47575 ,1.53071 ,15.01934 
244 ,48.3666 ,1.47764 ,1.52387 ,14.95219 
245 ,48.5595 ,1.47964 ,1.49307 ,14.64998 
246 ,48.7514 ,1.48158 ,1.49991 ,14.71714 
247 ,48.9435 ,1.48347 ,1.47253 ,14.44851 
248 ,49.1353 ,1.48542 ,1.45885 ,14.31420 
249 ,49.3433 ,1.48749 ,1.44858 ,14.21346 
250 ,49.5355 ,1.48937 ,1.43147 ,14.04557 
251 ,49.7437 ,1.49146 ,1.41094 ,13.84410 
252 ,49.9355 ,1.49344 ,1.40751 ,13.81053 
253 ,50.1439 ,1.49542 ,1.39040 ,13.64263 
254 ,50.3520 ,1.49755 ,1.36987 ,13.44116 
255 ,50.5275 ,1.49946 ,1.35276 ,13.27327 
256 ,50.7200 ,1.50121 ,1.34249 ,13.17254 
257 ,50.9281 ,1.50326 ,1.35618 ,13.30685 
258 ,51.1204 ,1.50526 ,1.30827 ,12.83675 
259 ,51.3123 ,1.50717 ,1.33223 ,13.07180 
260 ,51.5205 ,1.50923 ,1.30143 ,12.76960 
261 ,51.7284 ,1.51125 ,1.28774 ,12.63528 
262 ,51.9363 ,1.51341 ,1.27063 ,12.46739 
263 ,52.1287 ,1.51528 ,1.27405 ,12.50097 
264 ,52.3207 ,1.51724 ,1.25009 ,12.26592 
265 ,52.5129 ,1.51915 ,1.24325 ,12.19877 
266 ,52.7049 ,1.52122 ,1.20903 ,11.86298 
267 ,52.8971 ,1.52296 ,1.20903 ,11.86298 
268 ,53.0891 ,1.52492 ,1.18507 ,11.62794 
269 ,53.2811 ,1.52680 ,1.16454 ,11.42647 
270 ,53.4733 ,1.52880 ,1.18165 ,11.59436 
271 ,53.6810 ,1.53081 ,1.15427 ,11.32573 
272 ,53.8734 ,1.53278 ,1.14401 ,11.22500 
273 ,54.0973 ,1.53488 ,1.12690 ,11.05710 
274 ,54.2897 ,1.53691 ,1.11663 ,10.95637 
275 ,54.4972 ,1.53893 ,1.09952 ,10.78848 
276 ,54.6899 ,1.54087 ,1.08925 ,10.68774 
277 ,54.8819 ,1.54287 ,1.05845 ,10.38554 
278 ,55.0899 ,1.54486 ,1.06872 ,10.48627 
279 ,55.2820 ,1.54683 ,1.03792 ,10.18407 
280 ,55.4740 ,1.54871 ,1.04476 ,10.25123 
281 ,55.6662 ,1.55066 ,1.01054 ,9.91544 
282 ,55.8737 ,1.55273 ,1.01054 ,9.91544 
283 ,56.0663 ,1.55472 ,0.98317 ,9.64682 
284 ,56.2744 ,1.55676 ,0.97290 ,9.54608 
285 ,56.4665 ,1.55865 ,0.96263 ,9.44535 
286 ,56.6901 ,1.56087 ,0.96263 ,9.44535 
287 ,56.8826 ,1.56284 ,0.93183 ,9.14314 
288 ,57.0906 ,1.56490 ,0.93868 ,9.21030 
289 ,57.2828 ,1.56684 ,0.91472 ,8.97525 
290 ,57.4746 ,1.56878 ,0.91130 ,8.94167 
291 ,57.6830 ,1.57084 ,0.86681 ,8.50515 
292 ,57.8748 ,1.57278 ,0.88050 ,8.63947 
293 ,58.0666 ,1.57471 ,0.85997 ,8.43800 
294 ,58.2591 ,1.57662 ,0.85312 ,8.37084 
295 ,58.4670 ,1.57864 ,0.83943 ,8.23653 
296 ,58.6592 ,1.58056 ,0.83601 ,8.20295 
297 ,58.8675 ,1.58264 ,0.81548 ,8.00148 
298 ,59.0592 ,1.58461 ,0.79152 ,7.76643 
299 ,59.2515 ,1.58654 ,0.79495 ,7.80001 
300 ,59.4435 ,1.58843 ,0.75730 ,7.43065 
301 ,59.6357 ,1.59037 ,0.78126 ,7.66570 
302 ,59.8600 ,1.59266 ,0.75388 ,7.39707 
303 ,60.0679 ,1.59470 ,0.72992 ,7.16202 
304 ,60.2596 ,1.59664 ,0.71281 ,6.99413 
305 ,60.4520 ,1.59856 ,0.71624 ,7.02771 
306 ,60.6603 ,1.60062 ,0.70597 ,6.92697 
307 ,60.8682 ,1.60271 ,0.67175 ,6.59119 
308 ,61.0602 ,1.60462 ,0.67859 ,6.65835 
309 ,61.2525 ,1.60652 ,0.67175 ,6.59119 
310 ,61.4604 ,1.60857 ,0.65121 ,6.38972 
311 ,61.6682 ,1.61064 ,0.63753 ,6.25541 
312 ,61.8608 ,1.61263 ,0.62384 ,6.12109 
313 ,62.0684 ,1.61461 ,0.61699 ,6.05394 
314 ,62.2608 ,1.61656 ,0.62042 ,6.08752 
315 ,62.4684 ,1.61867 ,0.60673 ,5.95320 
316 ,62.6608 ,1.62057 ,0.56908 ,5.58384 
317 ,62.8848 ,1.62280 ,0.56224 ,5.51668 
318 ,63.0768 ,1.62477 ,0.55882 ,5.48311 
319 ,63.2849 ,1.62685 ,0.52802 ,5.18090 
320 ,63.4773 ,1.62873 ,0.55197 ,5.41595 
321 ,63.6853 ,1.63079 ,0.51433 ,5.04659 
322 ,63.8934 ,1.63297 ,0.50748 ,4.97943 
323 ,64.0855 ,1.63481 ,0.47326 ,4.64365 
324 ,64.2774 ,1.63675 ,0.48353 ,4.74438 
325 ,64.5018 ,1.63888 ,0.45615 ,4.47576 
326 ,64.6938 ,1.64092 ,0.47326 ,4.64365 
327 ,64.8859 ,1.64283 ,0.43220 ,4.24071 
328 ,65.0779 ,1.64474 ,0.44246 ,4.34144 
329 ,65.2860 ,1.64685 ,0.41509 ,4.07282 
330 ,65.4781 ,1.64874 ,0.42877 ,4.20713 
331 ,65.6698 ,1.65067 ,0.40140 ,3.93850 
332 ,65.8943 ,1.65297 ,0.39455 ,3.87135 
333 ,66.1024 ,1.65497 ,0.37744 ,3.70346 
334 ,66.3105 ,1.65694 ,0.37402 ,3.66988 
335 ,66.5185 ,1.65912 ,0.36375 ,3.56914 
336 ,66.7106 ,1.66107 ,0.32953 ,3.23336 
337 ,66.9027 ,1.66298 ,0.32953 ,3.23336 
338 ,67.1106 ,1.66504 ,0.31242 ,3.06547 
339 ,67.3027 ,1.66695 ,0.30215 ,2.96473 
340 ,67.4948 ,1.66893 ,0.29531 ,2.89758 
341 ,67.6868 ,1.67080 ,0.27820 ,2.72969 
342 ,67.8786 ,1.67273 ,0.27820 ,2.72969 
343 ,68.0712 ,1.67469 ,0.25767 ,2.52822 
344 ,68.2792 ,1.67679 ,0.25082 ,2.46106 
345 ,68.4872 ,1.67877 ,0.23029 ,2.25959 
346 ,68.6791 ,1.68075 ,0.23029 ,2.25959 
347 ,68.8714 ,1.68268 ,0.21318 ,2.09170 
348 ,69.0636 ,1.68460 ,0.20291 ,1.99096 
349 ,69.2717 ,1.68671 ,0.19264 ,1.89023 
350 ,69.4635 ,1.68858 ,0.17553 ,1.72234 
351 ,69.6560 ,1.69050 ,0.17896 ,1.75592 
352 ,69.8640 ,1.69256 ,0.14816 ,1.45371 
353 ,70.0715 ,1.69466 ,0.15158 ,1.48729 
354 ,70.2641 ,1.69658 ,0.13105 ,1.28582 
355 ,70.4559 ,1.69850 ,0.12762 ,1.25224 
356 ,70.6481 ,1.70041 ,0.11393 ,1.11793 
357 ,70.8401 ,1.70234 ,0.11736 ,1.15151 
358 ,71.0322 ,1.70428 ,0.10025 ,0.98361 
359 ,71.2244 ,1.70616 ,0.08314 ,0.81572 
360 ,71.4326 ,1.70824 ,0.06260 ,0.61425 
361 ,71.6247 ,1.71022 ,0.06260 ,0.61425 
362 ,71.8325 ,1.71229 ,0.06602 ,0.64783 
363 ,72.0247 ,1.71422 ,0.03180 ,0.31205 
364 ,72.2164 ,1.71608 ,0.04207 ,0.41278 
365 ,72.4088 ,1.71801 ,0.00785 ,0.07700 
366 ,72.6009 ,1.71997 ,0.00443 ,0.04342 
367 ,72.7931 ,1.72187 ,-0.00242 ,-0.02373 
368 ,72.9851 ,1.72379 ,-0.02637 ,-0.25878 
369 ,73.1771 ,1.72570 ,-0.01269 ,-0.12447 
370 ,73.3533 ,1.72761 ,-0.05375 ,-0.52741 
371 ,73.5452 ,1.72936 ,-0.05375 ,-0.52741 
372 ,73.7370 ,1.73130 ,-0.05375 ,-0.52741 
373 ,73.9293 ,1.73322 ,-0.07086 ,-0.69530 
374 ,74.1215 ,1.73515 ,-0.06744 ,-0.66172 
375 ,74.3453 ,1.73738 ,-0.09482 ,-0.93035 
376 ,74.5537 ,1.73946 ,-0.09482 ,-0.93035 
377 ,74.7618 ,1.74159 ,-0.10508 ,-1.03108 
378 ,74.9538 ,1.74346 ,-0.12219 ,-1.19898 
379 ,75.1459 ,1.74539 ,-0.13588 ,-1.33329 
380 ,75.3540 ,1.74748 ,-0.14273 ,-1.40045 
381 ,75.5459 ,1.74940 ,-0.15642 ,-1.53476 
382 ,75.7542 ,1.75147 ,-0.16668 ,-1.63549 
383 ,75.9463 ,1.75338 ,-0.19748 ,-1.93770 
384 ,76.1543 ,1.75548 ,-0.18037 ,-1.76981 
385 ,76.3464 ,1.75735 ,-0.19748 ,-1.93770 
386 ,76.5381 ,1.75930 ,-0.19064 ,-1.87054 
387 ,76.7305 ,1.76122 ,-0.21459 ,-2.10559 
388 ,76.9384 ,1.76329 ,-0.20775 ,-2.03843 
389 ,77.1307 ,1.76523 ,-0.24197 ,-2.37422 
390 ,77.3386 ,1.76729 ,-0.23513 ,-2.30706 
391 ,77.5307 ,1.76924 ,-0.25224 ,-2.47495 
392 ,77.7385 ,1.77125 ,-0.26250 ,-2.57569 
393 ,77.9309 ,1.77323 ,-0.27619 ,-2.71000 
394 ,78.1230 ,1.77513 ,-0.27961 ,-2.74358 
395 ,78.3151 ,1.77704 ,-0.27277 ,-2.67642 
396 ,78.5232 ,1.77914 ,-0.28988 ,-2.84431 
397 ,78.7149 ,1.78106 ,-0.30015 ,-2.94505 
398 ,78.9074 ,1.78301 ,-0.33437 ,-3.28083 
399 ,79.1150 ,1.78507 ,-0.32410 ,-3.18010 
400 ,79.3076 ,1.78696 ,-0.34464 ,-3.38156 
401 ,79.4993 ,1.78896 ,-0.33437 ,-3.28083 
402 ,79.6918 ,1.79083 ,-0.36517 ,-3.58303 
403 ,79.8833 ,1.79288 ,-0.36175 ,-3.54946 
404 ,80.0760 ,1.79464 ,-0.36517 ,-3.58303 
405 ,80.2678 ,1.79660 ,-0.39597 ,-3.88524 
406 ,80.4760 ,1.79867 ,-0.38228 ,-3.75093 
407 ,80.6842 ,1.80062 ,-0.40966 ,-4.01955 
408 ,80.9238 ,1.80320 ,-0.40623 ,-3.98597 
409 ,81.1321 ,1.80512 ,-0.42677 ,-4.18744 
410 ,81.3245 ,1.80718 ,-0.44730 ,-4.38891 
411 ,81.5325 ,1.80921 ,-0.45757 ,-4.48965 
412 ,81.7246 ,1.81114 ,-0.46441 ,-4.55681 
413 ,81.9326 ,1.81326 ,-0.46441 ,-4.55681 
414 ,82.1245 ,1.81518 ,-0.47810 ,-4.69112 
415 ,82.3328 ,1.81722 ,-0.48494 ,-4.75828 
416 ,82.5249 ,1.81918 ,-0.48837 ,-4.79185 
417 ,82.7325 ,1.82119 ,-0.49863 ,-4.89259 
418 ,82.9246 ,1.82317 ,-0.50548 ,-4.95975 
419 ,83.1167 ,1.82505 ,-0.51232 ,-5.02690 
420 ,83.3092 ,1.82699 ,-0.55681 ,-5.46342 
421 ,83.5170 ,1.82904 ,-0.52943 ,-5.19479 
422 ,83.7088 ,1.83101 ,-0.56708 ,-5.56415 
423 ,83.9335 ,1.83314 ,-0.54654 ,-5.36268 
424 ,84.1412 ,1.83528 ,-0.57050 ,-5.59773 
425 ,84.3334 ,1.83728 ,-0.58419 ,-5.73205 
426 ,84.5417 ,1.83929 ,-0.58077 ,-5.69847 
427 ,84.7337 ,1.84120 ,-0.61841 ,-6.06783 
428 ,84.9258 ,1.84315 ,-0.61499 ,-6.03425 
429 ,85.1180 ,1.84511 ,-0.60130 ,-5.89994 
430 ,85.2935 ,1.84697 ,-0.63552 ,-6.23572 
431 ,85.4861 ,1.84873 ,-0.62868 ,-6.16856 
432 ,85.6782 ,1.85072 ,-0.64236 ,-6.30288 
433 ,85.8862 ,1.85274 ,-0.64921 ,-6.37003 
434 ,86.0784 ,1.85468 ,-0.65947 ,-6.47077 
435 ,86.2865 ,1.85678 ,-0.67659 ,-6.63866 
436 ,86.4625 ,1.85865 ,-0.67316 ,-6.60508 
437 ,86.6549 ,1.86047 ,-0.69370 ,-6.80655 
438 ,86.9108 ,1.86287 ,-0.70054 ,-6.87371 
439 ,87.1187 ,1.86506 ,-0.70054 ,-6.87371 
440 ,87.3267 ,1.86711 ,-0.73476 ,-7.20949 
441 ,87.5190 ,1.86905 ,-0.72107 ,-7.07518 
442 ,87.7111 ,1.87105 ,-0.75187 ,-7.37738 
443 ,87.9031 ,1.87289 ,-0.74161 ,-7.27665 
444 ,88.0952 ,1.87484 ,-0.75872 ,-7.44454 
445 ,88.3033 ,1.87678 ,-0.76898 ,-7.54527 
446 ,88.5110 ,1.87902 ,-0.77925 ,-7.64601 
447 ,88.7034 ,1.88090 ,-0.77241 ,-7.57885 
448 ,88.9115 ,1.88300 ,-0.79978 ,-7.84748 
449 ,89.1036 ,1.88493 ,-0.80321 ,-7.88106 
450 ,89.3114 ,1.88695 ,-0.81005 ,-7.94821 
451 ,89.5195 ,1.88908 ,-0.82032 ,-8.04895 
452 ,89.7273 ,1.89119 ,-0.84085 ,-8.25042 
453 ,89.9193 ,1.89307 ,-0.81689 ,-8.01537 
454 ,90.1119 ,1.89504 ,-0.84769 ,-8.31758 
455 ,90.3199 ,1.89707 ,-0.83743 ,-8.21684 
456 ,90.5123 ,1.89898 ,-0.86823 ,-8.51904 
457 ,90.7201 ,1.90102 ,-0.86823 ,-8.51904 
458 ,90.9283 ,1.90315 ,-0.88192 ,-8.65336 
459 ,91.1364 ,1.90519 ,-0.88192 ,-8.65336 
460 ,91.3285 ,1.90721 ,-0.90245 ,-8.85483 
461 ,91.5527 ,1.90930 ,-0.91956 ,-9.02272 
462 ,91.7607 ,1.91148 ,-0.91956 ,-9.02272 
463 ,91.9529 ,1.91338 ,-0.93325 ,-9.15703 
