Data stamp = , 02-05-2022 09:01:04 833

Calibration Values: 
Slope = , 26.54 , g/V 
Offset Voltage at no contact = , -0.501760 , V 

No , Time , Stage Position ,   Mass , Force 
   ,  (s) ,      (mm)      ,   (g)  , (mN)  

1 ,0.0000 ,0.99953 ,5.34301 ,52.42557 
2 ,0.2192 ,0.99961 ,5.34985 ,52.49273 
3 ,1.0037 ,1.00305 ,5.34301 ,52.42557 
4 ,1.2277 ,1.00637 ,5.36012 ,52.59346 
5 ,1.4520 ,1.00863 ,5.33616 ,52.35841 
6 ,1.6600 ,1.01087 ,5.30194 ,52.02263 
7 ,1.8680 ,1.01296 ,5.29852 ,51.98905 
8 ,2.0601 ,1.01493 ,5.26430 ,51.65327 
9 ,2.2522 ,1.01683 ,5.25403 ,51.55254 
10 ,2.4602 ,1.01888 ,5.21981 ,51.21675 
11 ,2.6683 ,1.02096 ,5.21981 ,51.21675 
12 ,2.9725 ,1.02350 ,5.19243 ,50.94813 
13 ,3.1646 ,1.02593 ,5.15479 ,50.57876 
14 ,3.3727 ,1.02794 ,5.15479 ,50.57876 
15 ,3.5647 ,1.02995 ,5.11030 ,50.14225 
16 ,3.7568 ,1.03188 ,5.11372 ,50.17583 
17 ,3.9808 ,1.03406 ,5.06923 ,49.73931 
18 ,4.1888 ,1.03622 ,5.07265 ,49.77289 
19 ,4.3975 ,1.03814 ,5.03843 ,49.43710 
20 ,4.6213 ,1.04046 ,5.01790 ,49.23563 
21 ,4.8457 ,1.04263 ,5.00079 ,49.06774 
22 ,5.0537 ,1.04482 ,4.98710 ,48.93343 
23 ,5.2456 ,1.04677 ,4.95288 ,48.59764 
24 ,5.4379 ,1.04864 ,4.95288 ,48.59764 
25 ,5.6300 ,1.05055 ,4.92208 ,48.29544 
26 ,5.8218 ,1.05250 ,4.89470 ,48.02681 
27 ,6.0141 ,1.05441 ,4.90839 ,48.16113 
28 ,6.2058 ,1.05635 ,4.85706 ,47.65745 
29 ,6.3984 ,1.05833 ,4.85364 ,47.62387 
30 ,6.6063 ,1.06033 ,4.81257 ,47.22093 
31 ,6.8141 ,1.06241 ,4.81941 ,47.28809 
32 ,7.0064 ,1.06435 ,4.77835 ,46.88515 
33 ,7.1985 ,1.06622 ,4.77493 ,46.85157 
34 ,7.3901 ,1.06818 ,4.75782 ,46.68368 
35 ,7.5988 ,1.07021 ,4.73386 ,46.44863 
36 ,7.7907 ,1.07231 ,4.71333 ,46.24716 
37 ,7.9828 ,1.07410 ,4.69622 ,46.07927 
38 ,8.1749 ,1.07604 ,4.69622 ,46.07927 
39 ,8.3672 ,1.07798 ,4.65515 ,45.67633 
40 ,8.5592 ,1.07999 ,4.66542 ,45.77707 
41 ,8.7511 ,1.08180 ,4.62435 ,45.37413 
42 ,8.9593 ,1.08385 ,4.62093 ,45.34055 
43 ,9.1514 ,1.08575 ,4.59355 ,45.07192 
44 ,9.3434 ,1.08769 ,4.56960 ,44.83688 
45 ,9.5352 ,1.08961 ,4.56960 ,44.83688 
46 ,9.7436 ,1.09165 ,4.54906 ,44.63541 
47 ,9.9519 ,1.09379 ,4.52853 ,44.43394 
48 ,10.1438 ,1.09569 ,4.51142 ,44.26604 
49 ,10.3361 ,1.09763 ,4.50457 ,44.19889 
50 ,10.5282 ,1.09961 ,4.47035 ,43.86310 
51 ,10.7199 ,1.10149 ,4.46693 ,43.82953 
52 ,10.9282 ,1.10354 ,4.43271 ,43.49374 
53 ,11.1362 ,1.10557 ,4.42244 ,43.39301 
54 ,11.3443 ,1.10760 ,4.39164 ,43.09080 
55 ,11.5364 ,1.10959 ,4.39849 ,43.15796 
56 ,11.7282 ,1.11152 ,4.36427 ,42.82218 
57 ,11.9686 ,1.11394 ,4.33689 ,42.55355 
58 ,12.1766 ,1.11601 ,4.35058 ,42.68786 
59 ,12.3847 ,1.11797 ,4.29582 ,42.15061 
60 ,12.5768 ,1.11999 ,4.30951 ,42.28492 
61 ,12.7690 ,1.12190 ,4.26845 ,41.88198 
62 ,12.9611 ,1.12391 ,4.25818 ,41.78125 
63 ,13.1851 ,1.12601 ,4.23765 ,41.57978 
64 ,13.3768 ,1.12800 ,4.22396 ,41.44547 
65 ,13.5852 ,1.13000 ,4.19316 ,41.14326 
66 ,13.7935 ,1.13207 ,4.18974 ,41.10968 
67 ,13.9850 ,1.13411 ,4.15894 ,40.80748 
68 ,14.1936 ,1.13609 ,4.14525 ,40.67317 
69 ,14.4017 ,1.13829 ,4.12814 ,40.50527 
70 ,14.6097 ,1.14032 ,4.10418 ,40.27023 
71 ,14.8016 ,1.14224 ,4.10418 ,40.27023 
72 ,14.9935 ,1.14414 ,4.07680 ,40.00160 
73 ,15.2020 ,1.14624 ,4.06312 ,39.86729 
74 ,15.4101 ,1.14832 ,4.02205 ,39.46435 
75 ,15.6022 ,1.15027 ,4.03232 ,39.56508 
76 ,15.8103 ,1.15230 ,3.98783 ,39.12856 
77 ,16.0183 ,1.15441 ,3.99809 ,39.22930 
78 ,16.2103 ,1.15634 ,3.95703 ,38.82636 
79 ,16.4025 ,1.15825 ,3.95703 ,38.82636 
80 ,16.6105 ,1.16036 ,3.92965 ,38.55773 
81 ,16.8186 ,1.16231 ,3.90912 ,38.35626 
82 ,17.0427 ,1.16457 ,3.89543 ,38.22195 
83 ,17.2343 ,1.16669 ,3.86805 ,37.95332 
84 ,17.4266 ,1.16849 ,3.85779 ,37.85259 
85 ,17.6509 ,1.17062 ,3.84752 ,37.75185 
86 ,17.8269 ,1.17262 ,3.83725 ,37.65112 
87 ,18.0350 ,1.17453 ,3.80303 ,37.31534 
88 ,18.2269 ,1.17645 ,3.79276 ,37.21460 
89 ,18.4511 ,1.17874 ,3.76539 ,36.94597 
90 ,18.6594 ,1.18081 ,3.76196 ,36.91240 
91 ,18.8514 ,1.18276 ,3.72774 ,36.57661 
92 ,19.0436 ,1.18461 ,3.74143 ,36.71093 
93 ,19.2356 ,1.18660 ,3.70037 ,36.30799 
94 ,19.4273 ,1.18851 ,3.69352 ,36.24083 
95 ,19.6197 ,1.19046 ,3.67641 ,36.07294 
96 ,19.8279 ,1.19250 ,3.65588 ,35.87147 
97 ,20.0039 ,1.19439 ,3.63877 ,35.70358 
98 ,20.2121 ,1.19632 ,3.61823 ,35.50211 
99 ,20.4200 ,1.19846 ,3.60112 ,35.33422 
100 ,20.6281 ,1.20049 ,3.58059 ,35.13275 
101 ,20.8360 ,1.20260 ,3.56690 ,34.99843 
102 ,21.0284 ,1.20452 ,3.55663 ,34.89770 
103 ,21.2364 ,1.20664 ,3.52926 ,34.62907 
104 ,21.4285 ,1.20847 ,3.52926 ,34.62907 
105 ,21.6201 ,1.21041 ,3.49846 ,34.32687 
106 ,21.8127 ,1.21237 ,3.48477 ,34.19255 
107 ,22.0208 ,1.21448 ,3.48135 ,34.15898 
108 ,22.2287 ,1.21646 ,3.47108 ,34.05824 
109 ,22.4209 ,1.21844 ,3.44713 ,33.82319 
110 ,22.6287 ,1.22046 ,3.42659 ,33.62172 
111 ,22.8208 ,1.22244 ,3.40948 ,33.45383 
112 ,23.0131 ,1.22432 ,3.38553 ,33.21878 
113 ,23.2052 ,1.22626 ,3.38553 ,33.21878 
114 ,23.3971 ,1.22818 ,3.35473 ,32.91658 
115 ,23.6053 ,1.23022 ,3.35130 ,32.88300 
116 ,23.7970 ,1.23216 ,3.32393 ,32.61437 
117 ,23.9894 ,1.23411 ,3.31024 ,32.48006 
118 ,24.1975 ,1.23614 ,3.28286 ,32.21143 
119 ,24.3894 ,1.23811 ,3.28628 ,32.24501 
120 ,24.5977 ,1.24016 ,3.25206 ,31.90923 
121 ,24.7898 ,1.24213 ,3.26233 ,32.00996 
122 ,24.9980 ,1.24420 ,3.21784 ,31.57345 
123 ,25.2061 ,1.24627 ,3.22468 ,31.64060 
124 ,25.3980 ,1.24818 ,3.17677 ,31.17051 
125 ,25.6538 ,1.25064 ,3.15966 ,31.00262 
126 ,25.9419 ,1.25354 ,3.14940 ,30.90188 
127 ,26.1662 ,1.25579 ,3.13571 ,30.76757 
128 ,26.3745 ,1.25793 ,3.09464 ,30.36463 
129 ,26.5826 ,1.26006 ,3.08780 ,30.29747 
130 ,26.8222 ,1.26232 ,3.08780 ,30.29747 
131 ,27.0306 ,1.26436 ,3.04673 ,29.89453 
132 ,27.2709 ,1.26675 ,3.03304 ,29.76022 
133 ,27.4788 ,1.26901 ,3.03304 ,29.76022 
134 ,27.6710 ,1.27093 ,3.01935 ,29.62590 
135 ,27.8629 ,1.27284 ,2.98513 ,29.29012 
136 ,28.0712 ,1.27492 ,2.98171 ,29.25654 
137 ,28.2631 ,1.27679 ,2.97144 ,29.15581 
138 ,28.4553 ,1.27873 ,2.94407 ,28.88718 
139 ,28.6472 ,1.28067 ,2.94407 ,28.88718 
140 ,28.8556 ,1.28272 ,2.91669 ,28.61856 
141 ,29.0474 ,1.28466 ,2.90300 ,28.48424 
142 ,29.2396 ,1.28658 ,2.88247 ,28.28277 
143 ,29.4316 ,1.28857 ,2.86878 ,28.14846 
144 ,29.6399 ,1.29053 ,2.84482 ,27.91341 
145 ,29.8318 ,1.29250 ,2.85509 ,28.01415 
146 ,30.0240 ,1.29444 ,2.82087 ,27.67836 
147 ,30.2321 ,1.29650 ,2.82087 ,27.67836 
148 ,30.4238 ,1.29842 ,2.80718 ,27.54405 
149 ,30.6163 ,1.30036 ,2.77980 ,27.27542 
150 ,30.8243 ,1.30243 ,2.77296 ,27.20827 
151 ,31.0164 ,1.30432 ,2.74216 ,26.90606 
152 ,31.2245 ,1.30645 ,2.71820 ,26.67101 
153 ,31.4166 ,1.30836 ,2.70452 ,26.53670 
154 ,31.6087 ,1.31027 ,2.70452 ,26.53670 
155 ,31.8169 ,1.31235 ,2.68056 ,26.30165 
156 ,32.0249 ,1.31445 ,2.67372 ,26.23450 
157 ,32.2170 ,1.31636 ,2.65318 ,26.03303 
158 ,32.4090 ,1.31827 ,2.64976 ,25.99945 
159 ,32.6007 ,1.32015 ,2.61212 ,25.63009 
160 ,32.7929 ,1.32209 ,2.61896 ,25.69724 
161 ,33.0015 ,1.32418 ,2.58816 ,25.39504 
162 ,33.2253 ,1.32632 ,2.59158 ,25.42862 
163 ,33.4170 ,1.32836 ,2.56763 ,25.19357 
164 ,33.6090 ,1.33030 ,2.54367 ,24.95852 
165 ,33.8172 ,1.33238 ,2.54025 ,24.92494 
166 ,34.0575 ,1.33477 ,2.51287 ,24.65632 
167 ,34.2658 ,1.33686 ,2.49918 ,24.52200 
168 ,34.4577 ,1.33875 ,2.49576 ,24.48842 
169 ,34.6499 ,1.34066 ,2.48892 ,24.42127 
170 ,34.8579 ,1.34269 ,2.44785 ,24.01833 
171 ,35.0501 ,1.34470 ,2.45127 ,24.05191 
172 ,35.2421 ,1.34661 ,2.42732 ,23.81686 
173 ,35.4341 ,1.34847 ,2.42048 ,23.74970 
174 ,35.6264 ,1.35041 ,2.38625 ,23.41392 
175 ,35.8181 ,1.35235 ,2.38283 ,23.38034 
176 ,36.0106 ,1.35427 ,2.37599 ,23.31318 
177 ,36.2186 ,1.35636 ,2.34861 ,23.04456 
178 ,36.4107 ,1.35830 ,2.36230 ,23.17887 
179 ,36.6027 ,1.36021 ,2.32465 ,22.80951 
180 ,36.7949 ,1.36209 ,2.31097 ,22.67520 
181 ,37.0025 ,1.36430 ,2.29385 ,22.50731 
182 ,37.1950 ,1.36609 ,2.29043 ,22.47373 
183 ,37.3867 ,1.36797 ,2.27332 ,22.30584 
184 ,37.5792 ,1.36996 ,2.25279 ,22.10437 
185 ,37.7874 ,1.37190 ,2.23910 ,21.97005 
186 ,37.9954 ,1.37411 ,2.23226 ,21.90290 
187 ,38.2033 ,1.37624 ,2.19461 ,21.53353 
188 ,38.4116 ,1.37829 ,2.19461 ,21.53353 
189 ,38.6036 ,1.38020 ,2.16723 ,21.26491 
190 ,38.7955 ,1.38208 ,2.17750 ,21.36564 
191 ,38.9877 ,1.38404 ,2.13644 ,20.96270 
192 ,39.1633 ,1.38592 ,2.14328 ,21.02986 
193 ,39.3559 ,1.38770 ,2.12959 ,20.89555 
194 ,39.5640 ,1.38984 ,2.10906 ,20.69408 
195 ,39.7555 ,1.39169 ,2.09537 ,20.55976 
196 ,39.9481 ,1.39361 ,2.06457 ,20.25756 
197 ,40.1401 ,1.39552 ,2.06457 ,20.25756 
198 ,40.3324 ,1.39746 ,2.06115 ,20.22398 
199 ,40.5402 ,1.39955 ,2.03719 ,19.98893 
200 ,40.7965 ,1.40202 ,2.02693 ,19.88820 
201 ,41.0205 ,1.40422 ,1.99613 ,19.58599 
202 ,41.2126 ,1.40626 ,1.99613 ,19.58599 
203 ,41.4047 ,1.40816 ,1.96190 ,19.25021 
204 ,41.5968 ,1.41007 ,1.95848 ,19.21663 
205 ,41.7725 ,1.41201 ,1.94822 ,19.11590 
206 ,41.9650 ,1.41379 ,1.92084 ,18.84727 
207 ,42.1568 ,1.41572 ,1.93111 ,18.94801 
208 ,42.3650 ,1.41778 ,1.89346 ,18.57864 
209 ,42.5893 ,1.41989 ,1.89004 ,18.54507 
210 ,42.7969 ,1.42206 ,1.88662 ,18.51149 
211 ,42.9729 ,1.42400 ,1.84897 ,18.14213 
212 ,43.1650 ,1.42581 ,1.83871 ,18.04139 
213 ,43.3731 ,1.42782 ,1.84555 ,18.10855 
214 ,43.5812 ,1.42992 ,1.82160 ,17.87350 
215 ,43.7734 ,1.43195 ,1.79080 ,17.57129 
216 ,43.9975 ,1.43396 ,1.78395 ,17.50414 
217 ,44.2054 ,1.43617 ,1.77026 ,17.36983 
218 ,44.4139 ,1.43827 ,1.75315 ,17.20193 
219 ,44.6376 ,1.44043 ,1.75657 ,17.23551 
220 ,44.8460 ,1.44250 ,1.71893 ,16.86615 
221 ,45.0382 ,1.44451 ,1.72920 ,16.96689 
222 ,45.2301 ,1.44645 ,1.69498 ,16.63110 
223 ,45.4384 ,1.44850 ,1.69155 ,16.59752 
224 ,45.6303 ,1.45041 ,1.66075 ,16.29532 
225 ,45.8384 ,1.45253 ,1.66760 ,16.36248 
226 ,46.0306 ,1.45445 ,1.63338 ,16.02669 
227 ,46.2223 ,1.45635 ,1.63338 ,16.02669 
228 ,46.4146 ,1.45826 ,1.62311 ,15.92596 
229 ,46.6069 ,1.46016 ,1.58889 ,15.59018 
230 ,46.8146 ,1.46225 ,1.59573 ,15.65733 
231 ,47.0070 ,1.46420 ,1.57862 ,15.48944 
232 ,47.2152 ,1.46627 ,1.55124 ,15.22081 
233 ,47.4072 ,1.46821 ,1.54782 ,15.18724 
234 ,47.5989 ,1.47009 ,1.54098 ,15.12008 
235 ,47.7911 ,1.47203 ,1.51018 ,14.81787 
236 ,47.9994 ,1.47413 ,1.51360 ,14.85145 
237 ,48.2073 ,1.47613 ,1.50676 ,14.78430 
238 ,48.3996 ,1.47809 ,1.48965 ,14.61640 
239 ,48.6076 ,1.48018 ,1.47596 ,14.48209 
240 ,48.7998 ,1.48210 ,1.45200 ,14.24704 
241 ,49.0073 ,1.48416 ,1.43147 ,14.04557 
242 ,49.1999 ,1.48609 ,1.43147 ,14.04557 
243 ,49.4080 ,1.48816 ,1.41436 ,13.87768 
244 ,49.6001 ,1.49009 ,1.39383 ,13.67621 
245 ,49.7918 ,1.49207 ,1.37329 ,13.47474 
246 ,49.9844 ,1.49395 ,1.37671 ,13.50832 
247 ,50.2402 ,1.49630 ,1.36303 ,13.37401 
248 ,50.4481 ,1.49862 ,1.34934 ,13.23969 
249 ,50.6403 ,1.50055 ,1.33907 ,13.13896 
250 ,50.8325 ,1.50255 ,1.31169 ,12.87033 
251 ,51.0245 ,1.50437 ,1.31169 ,12.87033 
252 ,51.2164 ,1.50625 ,1.29116 ,12.66886 
253 ,51.4085 ,1.50815 ,1.27063 ,12.46739 
254 ,51.6168 ,1.51029 ,1.25694 ,12.33308 
255 ,51.8088 ,1.51216 ,1.25352 ,12.29950 
256 ,52.0170 ,1.51423 ,1.24667 ,12.23235 
257 ,52.2092 ,1.51619 ,1.23298 ,12.09803 
258 ,52.4330 ,1.51835 ,1.20903 ,11.86298 
259 ,52.6412 ,1.52052 ,1.19534 ,11.72867 
260 ,52.8331 ,1.52240 ,1.17481 ,11.52720 
261 ,53.0414 ,1.52438 ,1.18507 ,11.62794 
262 ,53.2494 ,1.52657 ,1.15770 ,11.35931 
263 ,53.4415 ,1.52851 ,1.13716 ,11.15784 
264 ,53.6336 ,1.53042 ,1.11663 ,10.95637 
265 ,53.8256 ,1.53233 ,1.13374 ,11.12426 
266 ,54.0498 ,1.53462 ,1.10636 ,10.85563 
267 ,54.2578 ,1.53664 ,1.07214 ,10.51985 
268 ,54.4496 ,1.53854 ,1.07899 ,10.58701 
269 ,54.6578 ,1.54062 ,1.04819 ,10.28480 
270 ,54.8660 ,1.54275 ,1.05161 ,10.31838 
271 ,55.0579 ,1.54464 ,1.02423 ,10.04976 
272 ,55.2338 ,1.54654 ,1.03450 ,10.15049 
273 ,55.4259 ,1.54832 ,1.02423 ,10.04976 
274 ,55.6021 ,1.55021 ,1.00028 ,9.81471 
275 ,55.7946 ,1.55205 ,0.97974 ,9.61324 
276 ,56.0027 ,1.55412 ,0.97632 ,9.57966 
277 ,56.1948 ,1.55604 ,0.96605 ,9.47892 
278 ,56.4187 ,1.55829 ,0.93868 ,9.21030 
279 ,56.6107 ,1.56020 ,0.93868 ,9.21030 
280 ,56.8347 ,1.56238 ,0.91130 ,8.94167 
281 ,57.0268 ,1.56438 ,0.91814 ,9.00883 
282 ,57.2188 ,1.56628 ,0.88050 ,8.63947 
283 ,57.4108 ,1.56817 ,0.89077 ,8.74020 
284 ,57.6029 ,1.57009 ,0.87023 ,8.53873 
285 ,57.7952 ,1.57200 ,0.85312 ,8.37084 
286 ,58.0030 ,1.57404 ,0.84628 ,8.30368 
287 ,58.1952 ,1.57601 ,0.82575 ,8.10221 
288 ,58.3874 ,1.57791 ,0.82575 ,8.10221 
289 ,58.5793 ,1.57986 ,0.79152 ,7.76643 
290 ,58.7715 ,1.58174 ,0.80521 ,7.90074 
291 ,59.0114 ,1.58417 ,0.79152 ,7.76643 
292 ,59.2036 ,1.58607 ,0.77099 ,7.56496 
293 ,59.3957 ,1.58802 ,0.75388 ,7.39707 
294 ,59.5878 ,1.58996 ,0.75388 ,7.39707 
295 ,59.7799 ,1.59187 ,0.72650 ,7.12844 
296 ,59.9719 ,1.59381 ,0.72650 ,7.12844 
297 ,60.1802 ,1.59582 ,0.70597 ,6.92697 
298 ,60.3722 ,1.59777 ,0.69913 ,6.85982 
299 ,60.5642 ,1.59968 ,0.68201 ,6.69193 
300 ,60.7562 ,1.60164 ,0.67517 ,6.62477 
301 ,60.9484 ,1.60354 ,0.67175 ,6.59119 
302 ,61.1404 ,1.60545 ,0.63410 ,6.22183 
303 ,61.3324 ,1.60742 ,0.65121 ,6.38972 
304 ,61.5250 ,1.60932 ,0.62726 ,6.15467 
305 ,61.7329 ,1.61140 ,0.63068 ,6.18825 
306 ,61.9251 ,1.61331 ,0.60330 ,5.91962 
307 ,62.1327 ,1.61538 ,0.59988 ,5.88605 
308 ,62.3253 ,1.61735 ,0.57935 ,5.68458 
309 ,62.5333 ,1.61939 ,0.57251 ,5.61742 
310 ,62.7254 ,1.62133 ,0.55882 ,5.48311 
311 ,62.9333 ,1.62337 ,0.53828 ,5.28164 
312 ,63.1255 ,1.62529 ,0.53486 ,5.24806 
313 ,63.3010 ,1.62719 ,0.53144 ,5.21448 
314 ,63.4936 ,1.62899 ,0.50748 ,4.97943 
315 ,63.7018 ,1.63105 ,0.49037 ,4.81154 
316 ,63.8937 ,1.63302 ,0.48353 ,4.74438 
317 ,64.1019 ,1.63504 ,0.46984 ,4.61007 
318 ,64.2940 ,1.63700 ,0.46984 ,4.61007 
319 ,64.5020 ,1.63899 ,0.44246 ,4.34144 
320 ,64.7102 ,1.64108 ,0.44246 ,4.34144 
321 ,64.9019 ,1.64306 ,0.41509 ,4.07282 
322 ,65.0941 ,1.64498 ,0.40824 ,4.00566 
323 ,65.3022 ,1.64697 ,0.40140 ,3.93850 
324 ,65.4945 ,1.64914 ,0.40824 ,4.00566 
325 ,65.6863 ,1.65089 ,0.38771 ,3.80419 
326 ,65.8781 ,1.65280 ,0.36033 ,3.53557 
327 ,66.0705 ,1.65473 ,0.38429 ,3.77061 
328 ,66.2946 ,1.65701 ,0.34664 ,3.40125 
329 ,66.5024 ,1.65905 ,0.32611 ,3.19978 
330 ,66.6948 ,1.66099 ,0.33638 ,3.30052 
331 ,66.8869 ,1.66290 ,0.30900 ,3.03189 
332 ,67.0792 ,1.66486 ,0.30558 ,2.99831 
333 ,67.2712 ,1.66672 ,0.29531 ,2.89758 
334 ,67.4632 ,1.66867 ,0.28162 ,2.76326 
335 ,67.6549 ,1.67058 ,0.27478 ,2.69611 
336 ,67.8471 ,1.67255 ,0.24740 ,2.42748 
337 ,68.0555 ,1.67457 ,0.25424 ,2.49464 
338 ,68.2474 ,1.67654 ,0.23371 ,2.29317 
339 ,68.4396 ,1.67845 ,0.22002 ,2.15885 
340 ,68.6316 ,1.68033 ,0.22002 ,2.15885 
341 ,68.8234 ,1.68233 ,0.19607 ,1.92381 
342 ,69.0160 ,1.68421 ,0.20976 ,2.05812 
343 ,69.2239 ,1.68625 ,0.17896 ,1.75592 
344 ,69.4162 ,1.68817 ,0.17896 ,1.75592 
345 ,69.6239 ,1.69028 ,0.15842 ,1.55445 
346 ,69.8161 ,1.69219 ,0.15842 ,1.55445 
347 ,70.0242 ,1.69423 ,0.14131 ,1.38655 
348 ,70.2323 ,1.69636 ,0.14473 ,1.42013 
349 ,70.4244 ,1.69829 ,0.11736 ,1.15151 
350 ,70.6165 ,1.70021 ,0.11736 ,1.15151 
351 ,70.8085 ,1.70210 ,0.09340 ,0.91646 
352 ,70.9841 ,1.70398 ,0.07629 ,0.74857 
353 ,71.1927 ,1.70582 ,0.07287 ,0.71499 
354 ,71.4008 ,1.70805 ,0.05234 ,0.51352 
355 ,71.5924 ,1.70998 ,0.06260 ,0.61425 
356 ,71.7851 ,1.71186 ,0.04891 ,0.47994 
357 ,72.0088 ,1.71416 ,0.02838 ,0.27847 
358 ,72.2330 ,1.71623 ,0.01811 ,0.17773 
359 ,72.4412 ,1.71839 ,0.00785 ,0.07700 
360 ,72.6329 ,1.72037 ,0.00785 ,0.07700 
361 ,72.8253 ,1.72231 ,-0.02637 ,-0.25878 
362 ,73.0332 ,1.72430 ,-0.00926 ,-0.09089 
363 ,73.2255 ,1.72639 ,-0.03664 ,-0.35952 
364 ,73.4171 ,1.72819 ,-0.03664 ,-0.35952 
365 ,73.6096 ,1.73008 ,-0.04691 ,-0.46025 
366 ,73.7856 ,1.73201 ,-0.06060 ,-0.59457 
367 ,73.9776 ,1.73376 ,-0.06060 ,-0.59457 
368 ,74.2015 ,1.73593 ,-0.09482 ,-0.93035 
369 ,74.4100 ,1.73803 ,-0.10508 ,-1.03108 
370 ,74.6340 ,1.74029 ,-0.10508 ,-1.03108 
371 ,74.8580 ,1.74248 ,-0.12219 ,-1.19898 
372 ,75.0502 ,1.74455 ,-0.13246 ,-1.29971 
373 ,75.2583 ,1.74659 ,-0.12904 ,-1.26613 
374 ,75.4663 ,1.74867 ,-0.16326 ,-1.60191 
375 ,75.6903 ,1.75074 ,-0.15642 ,-1.53476 
376 ,75.8825 ,1.75281 ,-0.18379 ,-1.80338 
377 ,76.0904 ,1.75490 ,-0.18037 ,-1.76981 
378 ,76.2830 ,1.75682 ,-0.19748 ,-1.93770 
379 ,76.4902 ,1.75889 ,-0.20775 ,-2.03843 
380 ,76.6828 ,1.76080 ,-0.21802 ,-2.13917 
381 ,76.8748 ,1.76277 ,-0.21459 ,-2.10559 
382 ,77.0671 ,1.76465 ,-0.24197 ,-2.37422 
383 ,77.2590 ,1.76662 ,-0.23170 ,-2.27348 
384 ,77.4512 ,1.76851 ,-0.24197 ,-2.37422 
385 ,77.6591 ,1.77060 ,-0.26935 ,-2.64284 
386 ,77.8989 ,1.77281 ,-0.28304 ,-2.77716 
387 ,78.0915 ,1.77492 ,-0.28304 ,-2.77716 
388 ,78.2996 ,1.77699 ,-0.30015 ,-2.94505 
389 ,78.4912 ,1.77901 ,-0.31041 ,-3.04578 
390 ,78.6832 ,1.78083 ,-0.31041 ,-3.04578 
391 ,78.8757 ,1.78280 ,-0.32068 ,-3.14652 
392 ,79.0839 ,1.78479 ,-0.33095 ,-3.24725 
393 ,79.2918 ,1.78686 ,-0.34121 ,-3.34799 
394 ,79.4840 ,1.78886 ,-0.35832 ,-3.51588 
395 ,79.6760 ,1.79072 ,-0.34464 ,-3.38156 
396 ,79.8681 ,1.79268 ,-0.38228 ,-3.75093 
397 ,80.0920 ,1.79481 ,-0.35490 ,-3.48230 
398 ,80.3003 ,1.79698 ,-0.38570 ,-3.78450 
399 ,80.4923 ,1.79892 ,-0.40281 ,-3.95240 
400 ,80.7006 ,1.80099 ,-0.40623 ,-3.98597 
401 ,80.8925 ,1.80298 ,-0.43703 ,-4.28818 
402 ,81.1006 ,1.80486 ,-0.43019 ,-4.22102 
403 ,81.3088 ,1.80705 ,-0.44730 ,-4.38891 
404 ,81.5007 ,1.80902 ,-0.42677 ,-4.18744 
405 ,81.7091 ,1.81100 ,-0.46783 ,-4.59038 
406 ,81.9006 ,1.81301 ,-0.45414 ,-4.45607 
407 ,82.1090 ,1.81505 ,-0.48837 ,-4.79185 
408 ,82.3171 ,1.81712 ,-0.48837 ,-4.79185 
409 ,82.5254 ,1.81922 ,-0.49521 ,-4.85901 
410 ,82.7333 ,1.82120 ,-0.50548 ,-4.95975 
411 ,82.9255 ,1.82326 ,-0.51232 ,-5.02690 
412 ,83.1336 ,1.82530 ,-0.52601 ,-5.16121 
413 ,83.3257 ,1.82721 ,-0.54654 ,-5.36268 
414 ,83.5178 ,1.82913 ,-0.54312 ,-5.32911 
415 ,83.7259 ,1.83122 ,-0.54654 ,-5.36268 
416 ,83.9020 ,1.83311 ,-0.56365 ,-5.53058 
417 ,84.1098 ,1.83500 ,-0.58419 ,-5.73205 
418 ,84.3021 ,1.83715 ,-0.57734 ,-5.66489 
419 ,84.5103 ,1.83904 ,-0.59788 ,-5.86636 
420 ,84.7183 ,1.84121 ,-0.58761 ,-5.76562 
421 ,84.8941 ,1.84304 ,-0.63210 ,-6.20214 
422 ,85.0872 ,1.84481 ,-0.62868 ,-6.16856 
423 ,85.2783 ,1.84680 ,-0.62525 ,-6.13499 
424 ,85.4704 ,1.84862 ,-0.64579 ,-6.33646 
425 ,85.6627 ,1.85060 ,-0.63552 ,-6.23572 
426 ,85.8549 ,1.85251 ,-0.65947 ,-6.47077 
427 ,86.0629 ,1.85457 ,-0.65263 ,-6.40361 
428 ,86.2711 ,1.85669 ,-0.69027 ,-6.77297 
429 ,86.4949 ,1.85879 ,-0.67316 ,-6.60508 
430 ,86.7033 ,1.86099 ,-0.68001 ,-6.67224 
431 ,86.8949 ,1.86303 ,-0.71765 ,-7.04160 
432 ,87.1034 ,1.86484 ,-0.70396 ,-6.90729 
433 ,87.3113 ,1.86706 ,-0.73476 ,-7.20949 
434 ,87.5033 ,1.86898 ,-0.72792 ,-7.14233 
435 ,87.7116 ,1.87109 ,-0.75187 ,-7.37738 
436 ,87.9033 ,1.87300 ,-0.73134 ,-7.17591 
437 ,88.0957 ,1.87490 ,-0.75872 ,-7.44454 
438 ,88.3039 ,1.87698 ,-0.75530 ,-7.41096 
439 ,88.4957 ,1.87889 ,-0.77241 ,-7.57885 
440 ,88.7041 ,1.88095 ,-0.76898 ,-7.54527 
441 ,88.8956 ,1.88306 ,-0.78610 ,-7.71317 
442 ,89.0882 ,1.88481 ,-0.79294 ,-7.78032 
443 ,89.2803 ,1.88678 ,-0.81347 ,-7.98179 
444 ,89.4723 ,1.88870 ,-0.82374 ,-8.08253 
445 ,89.6479 ,1.89052 ,-0.81005 ,-7.94821 
446 ,89.8405 ,1.89236 ,-0.83401 ,-8.18326 
447 ,90.0326 ,1.89431 ,-0.84085 ,-8.25042 
448 ,90.2407 ,1.89637 ,-0.85454 ,-8.38473 
449 ,90.4486 ,1.89845 ,-0.85796 ,-8.41831 
450 ,90.6728 ,1.90055 ,-0.86138 ,-8.45189 
451 ,90.8810 ,1.90272 ,-0.87165 ,-8.55262 
452 ,91.0889 ,1.90485 ,-0.89218 ,-8.75409 
453 ,91.2649 ,1.90669 ,-0.90587 ,-8.88841 
454 ,91.4570 ,1.90851 ,-0.91272 ,-8.95556 
455 ,91.6490 ,1.91040 ,-0.91272 ,-8.95556 
456 ,91.8408 ,1.91234 ,-0.92983 ,-9.12345 
457 ,92.0334 ,1.91427 ,-0.94694 ,-9.29135 
458 ,92.2414 ,1.91635 ,-0.93667 ,-9.19061 
459 ,92.4334 ,1.91827 ,-0.95036 ,-9.32492 
460 ,92.6415 ,1.92037 ,-0.95720 ,-9.39208 
461 ,92.8337 ,1.92228 ,-0.96405 ,-9.45924 
462 ,93.0417 ,1.92431 ,-0.97089 ,-9.52639 
