Data stamp = , 30-04-2022 08:45:51 208

Calibration Values: 
Slope = , 26.54 , g/V 
Offset Voltage at no contact = , -0.501760 , V 

No , Time , Stage Position ,   Mass , Force 
   ,  (s) ,      (mm)      ,   (g)  , (mN)  

1 ,0.0000 ,0.99950 ,5.37723 ,52.76135 
2 ,0.2414 ,0.99959 ,5.39092 ,52.89567 
3 ,0.8338 ,1.00207 ,5.38749 ,52.86209 
4 ,1.0422 ,1.00461 ,5.40118 ,52.99640 
5 ,1.2503 ,1.00668 ,5.37723 ,52.76135 
6 ,1.4582 ,1.00876 ,5.37723 ,52.76135 
7 ,1.6342 ,1.01070 ,5.33274 ,52.32484 
8 ,1.8262 ,1.01246 ,5.31905 ,52.19052 
9 ,2.0184 ,1.01446 ,5.30878 ,52.08979 
10 ,2.2266 ,1.01651 ,5.27114 ,51.72043 
11 ,2.4187 ,1.01844 ,5.27798 ,51.78758 
12 ,2.6103 ,1.02035 ,5.25061 ,51.51896 
13 ,2.8029 ,1.02227 ,5.23007 ,51.31749 
14 ,3.0269 ,1.02437 ,5.21639 ,51.18317 
15 ,3.2350 ,1.02656 ,5.18901 ,50.91455 
16 ,3.4269 ,1.02851 ,5.16163 ,50.64592 
17 ,3.6189 ,1.03046 ,5.16848 ,50.71308 
18 ,3.8107 ,1.03230 ,5.13083 ,50.34372 
19 ,4.0032 ,1.03427 ,5.11372 ,50.17583 
20 ,4.2114 ,1.03623 ,5.11372 ,50.17583 
21 ,4.4032 ,1.03825 ,5.07265 ,49.77289 
22 ,4.5954 ,1.04014 ,5.06581 ,49.70573 
23 ,4.7871 ,1.04208 ,5.04185 ,49.47068 
24 ,4.9795 ,1.04405 ,5.03501 ,49.40352 
25 ,5.2034 ,1.04619 ,4.99737 ,49.03416 
26 ,5.3793 ,1.04814 ,5.00079 ,49.06774 
27 ,5.5716 ,1.04995 ,4.96315 ,48.69838 
28 ,5.7958 ,1.05220 ,4.95972 ,48.66480 
29 ,6.0040 ,1.05425 ,4.91523 ,48.22828 
30 ,6.2121 ,1.05633 ,4.91523 ,48.22828 
31 ,6.4201 ,1.05830 ,4.87759 ,47.85892 
32 ,6.6122 ,1.06030 ,4.87417 ,47.82534 
33 ,6.8040 ,1.06225 ,4.85021 ,47.59030 
34 ,6.9961 ,1.06413 ,4.84337 ,47.52314 
35 ,7.1887 ,1.06616 ,4.80915 ,47.18736 
36 ,7.3967 ,1.06813 ,4.80230 ,47.12020 
37 ,7.5727 ,1.07008 ,4.76808 ,46.78442 
38 ,7.7649 ,1.07183 ,4.76124 ,46.71726 
39 ,7.9728 ,1.07400 ,4.75782 ,46.68368 
40 ,8.1649 ,1.07585 ,4.71333 ,46.24716 
41 ,8.3571 ,1.07775 ,4.70990 ,46.21359 
42 ,8.5491 ,1.07970 ,4.69279 ,46.04569 
43 ,8.7409 ,1.08155 ,4.65857 ,45.70991 
44 ,8.9329 ,1.08349 ,4.66199 ,45.74349 
45 ,9.1090 ,1.08538 ,4.62777 ,45.40771 
46 ,9.3014 ,1.08726 ,4.61751 ,45.30697 
47 ,9.5255 ,1.08938 ,4.60040 ,45.13908 
48 ,9.7177 ,1.09143 ,4.58671 ,45.00477 
49 ,9.9257 ,1.09349 ,4.54906 ,44.63541 
50 ,10.1178 ,1.09537 ,4.55591 ,44.70256 
51 ,10.3099 ,1.09725 ,4.52169 ,44.36678 
52 ,10.5020 ,1.09922 ,4.50115 ,44.16531 
53 ,10.7101 ,1.10131 ,4.49431 ,44.09815 
54 ,10.9022 ,1.10322 ,4.46693 ,43.82953 
55 ,11.1103 ,1.10531 ,4.46009 ,43.76237 
56 ,11.3021 ,1.10725 ,4.42244 ,43.39301 
57 ,11.5105 ,1.10930 ,4.41902 ,43.35943 
58 ,11.7185 ,1.11133 ,4.39849 ,43.15796 
59 ,11.9107 ,1.11331 ,4.39849 ,43.15796 
60 ,12.1188 ,1.11535 ,4.37795 ,42.95649 
61 ,12.3108 ,1.11729 ,4.36427 ,42.82218 
62 ,12.5188 ,1.11936 ,4.32662 ,42.45282 
63 ,12.7109 ,1.12127 ,4.32662 ,42.45282 
64 ,12.9028 ,1.12315 ,4.28213 ,42.01630 
65 ,13.1270 ,1.12536 ,4.29240 ,42.11703 
66 ,13.3351 ,1.12755 ,4.26502 ,41.84841 
67 ,13.5269 ,1.12945 ,4.23422 ,41.54620 
68 ,13.7671 ,1.13185 ,4.22738 ,41.47905 
69 ,13.9595 ,1.13382 ,4.20685 ,41.27758 
70 ,14.1516 ,1.13570 ,4.18974 ,41.10968 
71 ,14.3598 ,1.13768 ,4.16578 ,40.87464 
72 ,14.5518 ,1.13969 ,4.16920 ,40.90821 
73 ,14.7437 ,1.14162 ,4.13156 ,40.53885 
74 ,14.9358 ,1.14350 ,4.12814 ,40.50527 
75 ,15.1279 ,1.14546 ,4.10760 ,40.30380 
76 ,15.3360 ,1.14746 ,4.06996 ,39.93444 
77 ,15.5281 ,1.14950 ,4.07680 ,40.00160 
78 ,15.7357 ,1.15154 ,4.04943 ,39.73297 
79 ,15.9121 ,1.15345 ,4.02547 ,39.49793 
80 ,16.1201 ,1.15535 ,3.99467 ,39.19572 
81 ,16.3122 ,1.15726 ,4.01863 ,39.43077 
82 ,16.5042 ,1.15918 ,3.97072 ,38.96067 
83 ,16.7125 ,1.16123 ,3.97414 ,38.99425 
84 ,16.9044 ,1.16319 ,3.94334 ,38.69205 
85 ,17.0965 ,1.16507 ,3.92965 ,38.55773 
86 ,17.2888 ,1.16704 ,3.90912 ,38.35626 
87 ,17.4967 ,1.16908 ,3.88858 ,38.15479 
88 ,17.6888 ,1.17104 ,3.88858 ,38.15479 
89 ,17.8809 ,1.17297 ,3.85094 ,37.78543 
90 ,18.0729 ,1.17491 ,3.85094 ,37.78543 
91 ,18.2810 ,1.17701 ,3.82356 ,37.51681 
92 ,18.4730 ,1.17889 ,3.80987 ,37.38249 
93 ,18.6653 ,1.18084 ,3.78934 ,37.18102 
94 ,18.8575 ,1.18276 ,3.76196 ,36.91240 
95 ,19.0330 ,1.18458 ,3.77565 ,37.04671 
96 ,19.2254 ,1.18647 ,3.74828 ,36.77808 
97 ,19.4336 ,1.18848 ,3.73117 ,36.61019 
98 ,19.6096 ,1.19036 ,3.71405 ,36.44230 
99 ,19.8013 ,1.19216 ,3.67641 ,36.07294 
100 ,19.9936 ,1.19406 ,3.68325 ,36.14010 
101 ,20.1857 ,1.19598 ,3.65930 ,35.90505 
102 ,20.3939 ,1.19813 ,3.64561 ,35.77073 
103 ,20.5859 ,1.19998 ,3.62850 ,35.60284 
104 ,20.7777 ,1.20189 ,3.59770 ,35.30064 
105 ,20.9702 ,1.20387 ,3.61481 ,35.46853 
106 ,21.1783 ,1.20595 ,3.56690 ,34.99843 
107 ,21.3704 ,1.20785 ,3.57375 ,35.06559 
108 ,21.5784 ,1.20993 ,3.53610 ,34.69623 
109 ,21.7706 ,1.21186 ,3.52584 ,34.59549 
110 ,21.9626 ,1.21378 ,3.51557 ,34.49476 
111 ,22.1546 ,1.21566 ,3.49161 ,34.25971 
112 ,22.3463 ,1.21763 ,3.47792 ,34.12540 
113 ,22.5390 ,1.21954 ,3.45397 ,33.89035 
114 ,22.7629 ,1.22178 ,3.43686 ,33.72246 
115 ,22.9711 ,1.22385 ,3.44028 ,33.75604 
116 ,23.1629 ,1.22578 ,3.40948 ,33.45383 
117 ,23.3554 ,1.22768 ,3.37868 ,33.15163 
118 ,23.5632 ,1.22971 ,3.37184 ,33.08447 
119 ,23.7714 ,1.23187 ,3.36157 ,32.98374 
120 ,23.9631 ,1.23378 ,3.34104 ,32.78227 
121 ,24.1555 ,1.23563 ,3.33419 ,32.71511 
122 ,24.3474 ,1.23761 ,3.30339 ,32.41290 
123 ,24.5393 ,1.23952 ,3.26917 ,32.07712 
124 ,24.7316 ,1.24149 ,3.26233 ,32.00996 
125 ,24.9238 ,1.24343 ,3.27259 ,32.11070 
126 ,25.1158 ,1.24531 ,3.22468 ,31.64060 
127 ,25.3238 ,1.24735 ,3.22468 ,31.64060 
128 ,25.5162 ,1.24933 ,3.19388 ,31.33840 
129 ,25.7241 ,1.25138 ,3.18362 ,31.23766 
130 ,25.9324 ,1.25344 ,3.16309 ,31.03619 
131 ,26.1403 ,1.25550 ,3.14255 ,30.83472 
132 ,26.3324 ,1.25742 ,3.12886 ,30.70041 
133 ,26.5245 ,1.25931 ,3.12886 ,30.70041 
134 ,26.7002 ,1.26122 ,3.08780 ,30.29747 
135 ,26.9087 ,1.26312 ,3.08095 ,30.23031 
136 ,27.1168 ,1.26530 ,3.07411 ,30.16316 
137 ,27.3088 ,1.26720 ,3.05700 ,29.99527 
138 ,27.5010 ,1.26911 ,3.03647 ,29.79380 
139 ,27.6929 ,1.27108 ,3.01593 ,29.59233 
140 ,27.9009 ,1.27313 ,3.01251 ,29.55875 
141 ,28.1093 ,1.27519 ,2.99198 ,29.35728 
142 ,28.3012 ,1.27713 ,2.97487 ,29.18939 
143 ,28.4933 ,1.27903 ,2.94749 ,28.92076 
144 ,28.6854 ,1.28094 ,2.95433 ,28.98792 
145 ,28.8931 ,1.28303 ,2.92011 ,28.65213 
146 ,29.0857 ,1.28501 ,2.92011 ,28.65213 
147 ,29.2934 ,1.28705 ,2.89616 ,28.41709 
148 ,29.4857 ,1.28896 ,2.89616 ,28.41709 
149 ,29.6779 ,1.29087 ,2.85167 ,27.98057 
150 ,29.8700 ,1.29278 ,2.86536 ,28.11488 
151 ,30.0781 ,1.29481 ,2.81745 ,27.64479 
152 ,30.2860 ,1.29693 ,2.82087 ,27.67836 
153 ,30.4782 ,1.29890 ,2.78665 ,27.34258 
154 ,30.6863 ,1.30100 ,2.79691 ,27.44332 
155 ,30.8940 ,1.30300 ,2.76269 ,27.10753 
156 ,31.0700 ,1.30489 ,2.76269 ,27.10753 
157 ,31.2623 ,1.30673 ,2.75243 ,27.00680 
158 ,31.4706 ,1.30880 ,2.73531 ,26.83891 
159 ,31.6784 ,1.31090 ,2.70794 ,26.57028 
160 ,31.8869 ,1.31300 ,2.70109 ,26.50312 
161 ,32.0790 ,1.31492 ,2.66345 ,26.13376 
162 ,32.2870 ,1.31702 ,2.67029 ,26.20092 
163 ,32.4951 ,1.31904 ,2.63949 ,25.89871 
164 ,32.6871 ,1.32098 ,2.63949 ,25.89871 
165 ,32.8792 ,1.32286 ,2.61896 ,25.69724 
166 ,33.0712 ,1.32479 ,2.59501 ,25.46220 
167 ,33.2629 ,1.32674 ,2.60185 ,25.52935 
168 ,33.4555 ,1.32865 ,2.55394 ,25.05926 
169 ,33.6636 ,1.33072 ,2.55736 ,25.09283 
170 ,33.8556 ,1.33269 ,2.53683 ,24.89136 
171 ,34.0478 ,1.33458 ,2.52998 ,24.82421 
172 ,34.2399 ,1.33648 ,2.51630 ,24.68989 
173 ,34.4315 ,1.33840 ,2.48892 ,24.42127 
174 ,34.6395 ,1.34046 ,2.48550 ,24.38769 
175 ,34.8317 ,1.34245 ,2.45127 ,24.05191 
176 ,35.0237 ,1.34436 ,2.45812 ,24.11906 
177 ,35.2161 ,1.34623 ,2.42732 ,23.81686 
178 ,35.4078 ,1.34821 ,2.42390 ,23.78328 
179 ,35.6004 ,1.35013 ,2.41705 ,23.71612 
180 ,35.8084 ,1.35223 ,2.39652 ,23.51465 
181 ,36.0006 ,1.35413 ,2.38625 ,23.41392 
182 ,36.2083 ,1.35623 ,2.36914 ,23.24603 
183 ,36.4006 ,1.35815 ,2.35545 ,23.11171 
184 ,36.5926 ,1.36003 ,2.32808 ,22.84309 
185 ,36.8008 ,1.36210 ,2.31781 ,22.74235 
186 ,36.9926 ,1.36402 ,2.29728 ,22.54088 
187 ,37.1850 ,1.36590 ,2.30070 ,22.57446 
188 ,37.3771 ,1.36790 ,2.27332 ,22.30584 
189 ,37.5847 ,1.36988 ,2.26306 ,22.20510 
190 ,37.8248 ,1.37225 ,2.22883 ,21.86932 
191 ,38.0172 ,1.37429 ,2.22199 ,21.80216 
192 ,38.2253 ,1.37628 ,2.20830 ,21.66785 
193 ,38.4172 ,1.37826 ,2.19461 ,21.53353 
194 ,38.6093 ,1.38015 ,2.18092 ,21.39922 
195 ,38.8016 ,1.38204 ,2.18092 ,21.39922 
196 ,39.0096 ,1.38407 ,2.15012 ,21.09702 
197 ,39.2177 ,1.38627 ,2.13986 ,20.99628 
198 ,39.4097 ,1.38813 ,2.11590 ,20.76123 
199 ,39.6020 ,1.39014 ,2.11590 ,20.76123 
200 ,39.8096 ,1.39216 ,2.08510 ,20.45903 
201 ,40.0020 ,1.39414 ,2.09195 ,20.52619 
202 ,40.2101 ,1.39616 ,2.05430 ,20.15682 
203 ,40.4183 ,1.39812 ,2.05773 ,20.19040 
204 ,40.6424 ,1.40041 ,2.04746 ,20.08967 
205 ,40.8341 ,1.40239 ,2.02008 ,19.82104 
206 ,41.0425 ,1.40456 ,2.00639 ,19.68673 
207 ,41.2506 ,1.40657 ,1.98244 ,19.45168 
208 ,41.4428 ,1.40848 ,1.97217 ,19.35094 
209 ,41.6508 ,1.41059 ,1.95164 ,19.14948 
210 ,41.8588 ,1.41269 ,1.96533 ,19.28379 
211 ,42.0669 ,1.41469 ,1.92768 ,18.91443 
212 ,42.2750 ,1.41683 ,1.92426 ,18.88085 
213 ,42.4670 ,1.41873 ,1.90373 ,18.67938 
214 ,42.6751 ,1.42077 ,1.88319 ,18.47791 
215 ,42.8673 ,1.42273 ,1.85240 ,18.17570 
216 ,43.0751 ,1.42479 ,1.86266 ,18.27644 
217 ,43.2675 ,1.42679 ,1.85240 ,18.17570 
218 ,43.4755 ,1.42881 ,1.83186 ,17.97423 
219 ,43.6675 ,1.43075 ,1.79764 ,17.63845 
220 ,43.8594 ,1.43265 ,1.81475 ,17.80634 
221 ,44.0678 ,1.43461 ,1.78395 ,17.50414 
222 ,44.2599 ,1.43664 ,1.79080 ,17.57129 
223 ,44.4679 ,1.43872 ,1.75657 ,17.23551 
224 ,44.6603 ,1.44065 ,1.76342 ,17.30267 
225 ,44.8522 ,1.44260 ,1.73262 ,17.00046 
226 ,45.0603 ,1.44469 ,1.72578 ,16.93331 
227 ,45.2679 ,1.44673 ,1.69840 ,16.66468 
228 ,45.4764 ,1.44871 ,1.71551 ,16.83257 
229 ,45.6844 ,1.45092 ,1.66760 ,16.36248 
230 ,45.8766 ,1.45280 ,1.66760 ,16.36248 
231 ,46.0683 ,1.45486 ,1.65391 ,16.22816 
232 ,46.2607 ,1.45659 ,1.64022 ,16.09385 
233 ,46.4367 ,1.45852 ,1.62653 ,15.95954 
234 ,46.6288 ,1.46037 ,1.60600 ,15.75807 
235 ,46.8209 ,1.46223 ,1.60600 ,15.75807 
236 ,47.0130 ,1.46422 ,1.58889 ,15.59018 
237 ,47.2050 ,1.46610 ,1.56493 ,15.35513 
238 ,47.3968 ,1.46802 ,1.56836 ,15.38871 
239 ,47.5892 ,1.46997 ,1.54440 ,15.15366 
240 ,47.8131 ,1.47215 ,1.52387 ,14.95219 
241 ,48.0050 ,1.47410 ,1.51702 ,14.88503 
242 ,48.1975 ,1.47605 ,1.51018 ,14.81787 
243 ,48.4051 ,1.47811 ,1.48280 ,14.54925 
244 ,48.5976 ,1.48006 ,1.47938 ,14.51567 
245 ,48.8055 ,1.48207 ,1.45885 ,14.31420 
246 ,48.9977 ,1.48403 ,1.46569 ,14.38136 
247 ,49.2060 ,1.48611 ,1.43147 ,14.04557 
248 ,49.4136 ,1.48818 ,1.44174 ,14.14631 
249 ,49.6055 ,1.49010 ,1.40409 ,13.77695 
250 ,50.0062 ,1.49402 ,1.38014 ,13.54190 
251 ,50.1978 ,1.49602 ,1.38014 ,13.54190 
252 ,50.4063 ,1.49806 ,1.34934 ,13.23969 
253 ,50.5986 ,1.50006 ,1.35618 ,13.30685 
254 ,50.8063 ,1.50211 ,1.33907 ,13.13896 
255 ,51.0146 ,1.50420 ,1.33223 ,13.07180 
256 ,51.2064 ,1.50609 ,1.29116 ,12.66886 
257 ,51.3989 ,1.50806 ,1.29458 ,12.70244 
258 ,51.5907 ,1.51000 ,1.28432 ,12.60171 
259 ,51.7826 ,1.51185 ,1.25009 ,12.26592 
260 ,51.9750 ,1.51379 ,1.26378 ,12.40024 
261 ,52.1832 ,1.51586 ,1.23983 ,12.16519 
262 ,52.3751 ,1.51778 ,1.24325 ,12.19877 
263 ,52.5674 ,1.51971 ,1.20903 ,11.86298 
264 ,52.7753 ,1.52175 ,1.19876 ,11.76225 
265 ,52.9675 ,1.52369 ,1.17823 ,11.56078 
266 ,53.1598 ,1.52564 ,1.16112 ,11.39289 
267 ,53.3517 ,1.52755 ,1.16796 ,11.46004 
268 ,53.5436 ,1.52940 ,1.13716 ,11.15784 
269 ,53.7358 ,1.53140 ,1.14743 ,11.25857 
270 ,53.9275 ,1.53331 ,1.12005 ,10.98995 
271 ,54.1200 ,1.53529 ,1.11663 ,10.95637 
272 ,54.3439 ,1.53736 ,1.09610 ,10.75490 
273 ,54.5361 ,1.53938 ,1.09610 ,10.75490 
274 ,54.7282 ,1.54132 ,1.06872 ,10.48627 
275 ,54.9363 ,1.54344 ,1.06187 ,10.41912 
276 ,55.1283 ,1.54529 ,1.03450 ,10.15049 
277 ,55.3205 ,1.54725 ,1.02081 ,10.01618 
278 ,55.5285 ,1.54919 ,1.03108 ,10.11691 
279 ,55.7522 ,1.55152 ,1.01396 ,9.94902 
280 ,55.9445 ,1.55343 ,0.97290 ,9.54608 
281 ,56.1363 ,1.55537 ,0.97632 ,9.57966 
282 ,56.3289 ,1.55733 ,0.96948 ,9.51250 
283 ,56.5369 ,1.55940 ,0.94210 ,9.24388 
284 ,56.7289 ,1.56128 ,0.93525 ,9.17672 
285 ,56.9210 ,1.56320 ,0.90788 ,8.90809 
286 ,57.1131 ,1.56515 ,0.91472 ,8.97525 
287 ,57.3211 ,1.56721 ,0.88050 ,8.63947 
288 ,57.5131 ,1.56915 ,0.89761 ,8.80736 
289 ,57.7054 ,1.57106 ,0.85997 ,8.43800 
290 ,57.8973 ,1.57298 ,0.86681 ,8.50515 
291 ,58.0893 ,1.57490 ,0.85654 ,8.40442 
292 ,58.2812 ,1.57684 ,0.82232 ,8.06864 
293 ,58.4735 ,1.57874 ,0.83943 ,8.23653 
294 ,58.6814 ,1.58079 ,0.79837 ,7.83359 
295 ,58.8738 ,1.58273 ,0.80863 ,7.93432 
296 ,59.0817 ,1.58479 ,0.76415 ,7.49780 
297 ,59.2740 ,1.58675 ,0.78810 ,7.73285 
298 ,59.4657 ,1.58865 ,0.75730 ,7.43065 
299 ,59.6583 ,1.59057 ,0.75730 ,7.43065 
300 ,59.8662 ,1.59269 ,0.74019 ,7.26276 
301 ,60.0741 ,1.59468 ,0.73335 ,7.19560 
302 ,60.2825 ,1.59678 ,0.70597 ,6.92697 
303 ,60.4741 ,1.59869 ,0.69570 ,6.82624 
304 ,60.6667 ,1.60067 ,0.69228 ,6.79266 
305 ,60.8747 ,1.60274 ,0.67517 ,6.62477 
306 ,61.0668 ,1.60470 ,0.67175 ,6.59119 
307 ,61.2748 ,1.60672 ,0.65806 ,6.45688 
308 ,61.4667 ,1.60870 ,0.64437 ,6.32256 
309 ,61.6589 ,1.61056 ,0.62042 ,6.08752 
310 ,61.8512 ,1.61251 ,0.63068 ,6.18825 
311 ,62.0430 ,1.61439 ,0.61015 ,5.98678 
312 ,62.2352 ,1.61637 ,0.59646 ,5.85247 
313 ,62.4431 ,1.61838 ,0.57593 ,5.65100 
314 ,62.6353 ,1.62032 ,0.56908 ,5.58384 
315 ,62.8275 ,1.62226 ,0.54513 ,5.34879 
316 ,63.0356 ,1.62433 ,0.54171 ,5.31522 
317 ,63.2436 ,1.62638 ,0.51775 ,5.08017 
318 ,63.4357 ,1.62835 ,0.52117 ,5.11375 
319 ,63.6438 ,1.63042 ,0.50406 ,4.94585 
320 ,63.8197 ,1.63230 ,0.48353 ,4.74438 
321 ,64.0120 ,1.63411 ,0.49380 ,4.84512 
322 ,64.2041 ,1.63605 ,0.47326 ,4.64365 
323 ,64.4121 ,1.63807 ,0.46642 ,4.57649 
324 ,64.6042 ,1.63998 ,0.44246 ,4.34144 
325 ,64.8438 ,1.64237 ,0.43562 ,4.27429 
326 ,65.0366 ,1.64437 ,0.40482 ,3.97208 
327 ,65.2444 ,1.64644 ,0.41509 ,4.07282 
328 ,65.4362 ,1.64839 ,0.38771 ,3.80419 
329 ,65.6283 ,1.65023 ,0.41166 ,4.03924 
330 ,65.8202 ,1.65218 ,0.37402 ,3.66988 
331 ,66.0123 ,1.65411 ,0.37402 ,3.66988 
332 ,66.2050 ,1.65603 ,0.35349 ,3.46841 
333 ,66.4129 ,1.65809 ,0.34322 ,3.36767 
334 ,66.6050 ,1.66003 ,0.33638 ,3.30052 
335 ,66.8129 ,1.66208 ,0.33638 ,3.30052 
336 ,67.0049 ,1.66398 ,0.30900 ,3.03189 
337 ,67.1973 ,1.66599 ,0.28162 ,2.76326 
338 ,67.3895 ,1.66788 ,0.29873 ,2.93116 
339 ,67.5976 ,1.66994 ,0.27135 ,2.66253 
340 ,67.8056 ,1.67201 ,0.27135 ,2.66253 
341 ,67.9978 ,1.67396 ,0.24398 ,2.39390 
342 ,68.1898 ,1.67588 ,0.24740 ,2.42748 
343 ,68.3819 ,1.67781 ,0.23713 ,2.32675 
344 ,68.5736 ,1.67969 ,0.22344 ,2.19243 
345 ,68.7656 ,1.68164 ,0.21660 ,2.12528 
346 ,68.9417 ,1.68349 ,0.18922 ,1.85665 
347 ,69.1338 ,1.68523 ,0.18580 ,1.82307 
348 ,69.3262 ,1.68724 ,0.18580 ,1.82307 
349 ,69.5343 ,1.68928 ,0.15842 ,1.55445 
350 ,69.7264 ,1.69123 ,0.16527 ,1.62160 
351 ,69.9344 ,1.69333 ,0.14131 ,1.38655 
352 ,70.1265 ,1.69520 ,0.15158 ,1.48729 
353 ,70.3186 ,1.69709 ,0.11393 ,1.11793 
354 ,70.5267 ,1.69922 ,0.11736 ,1.15151 
355 ,70.7187 ,1.70117 ,0.10025 ,0.98361 
356 ,70.9426 ,1.70330 ,0.09682 ,0.95004 
357 ,71.1349 ,1.70531 ,0.06945 ,0.68141 
358 ,71.3428 ,1.70738 ,0.07629 ,0.74857 
359 ,71.5511 ,1.70945 ,0.04891 ,0.47994 
360 ,71.7429 ,1.71135 ,0.05234 ,0.51352 
361 ,71.9351 ,1.71324 ,0.02154 ,0.21131 
362 ,72.1273 ,1.71522 ,0.03180 ,0.31205 
363 ,72.3354 ,1.71732 ,0.01811 ,0.17773 
364 ,72.5114 ,1.71914 ,0.01469 ,0.14416 
365 ,72.7034 ,1.72094 ,0.01127 ,0.11058 
366 ,72.8954 ,1.72287 ,-0.01953 ,-0.19163 
367 ,73.0878 ,1.72484 ,-0.01269 ,-0.12447 
368 ,73.2957 ,1.72687 ,-0.04348 ,-0.42667 
369 ,73.4879 ,1.72882 ,-0.04006 ,-0.39310 
370 ,73.6958 ,1.73095 ,-0.05717 ,-0.56099 
371 ,73.8881 ,1.73280 ,-0.05717 ,-0.56099 
372 ,74.0961 ,1.73486 ,-0.09140 ,-0.89677 
373 ,74.3040 ,1.73691 ,-0.08455 ,-0.82961 
374 ,74.4962 ,1.73888 ,-0.09824 ,-0.96393 
375 ,74.6883 ,1.74092 ,-0.09482 ,-0.93035 
376 ,74.8961 ,1.74277 ,-0.11193 ,-1.09824 
377 ,75.0885 ,1.74480 ,-0.11877 ,-1.16540 
378 ,75.2802 ,1.74672 ,-0.13246 ,-1.29971 
379 ,75.4728 ,1.74864 ,-0.15984 ,-1.56834 
380 ,75.6646 ,1.75061 ,-0.16668 ,-1.63549 
381 ,75.8728 ,1.75273 ,-0.18379 ,-1.80338 
382 ,76.0813 ,1.75474 ,-0.17695 ,-1.73623 
383 ,76.2727 ,1.75669 ,-0.19406 ,-1.90412 
384 ,76.4651 ,1.75856 ,-0.18722 ,-1.83696 
385 ,76.6729 ,1.76064 ,-0.21459 ,-2.10559 
386 ,76.8492 ,1.76252 ,-0.21802 ,-2.13917 
387 ,77.0413 ,1.76433 ,-0.21802 ,-2.13917 
388 ,77.2333 ,1.76625 ,-0.24881 ,-2.44137 
389 ,77.4416 ,1.76837 ,-0.24539 ,-2.40779 
390 ,77.6656 ,1.77052 ,-0.24539 ,-2.40779 
391 ,77.8733 ,1.77261 ,-0.28646 ,-2.81073 
392 ,78.0658 ,1.77456 ,-0.27277 ,-2.67642 
393 ,78.2736 ,1.77669 ,-0.29673 ,-2.91147 
394 ,78.4500 ,1.77851 ,-0.28988 ,-2.84431 
395 ,78.6420 ,1.78032 ,-0.31384 ,-3.07936 
396 ,78.8341 ,1.78227 ,-0.31726 ,-3.11294 
397 ,79.0422 ,1.78433 ,-0.32068 ,-3.14652 
398 ,79.2664 ,1.78645 ,-0.35148 ,-3.44872 
399 ,79.4744 ,1.78870 ,-0.33095 ,-3.24725 
400 ,79.6664 ,1.79059 ,-0.37886 ,-3.71735 
401 ,79.8581 ,1.79249 ,-0.37201 ,-3.65019 
402 ,80.0503 ,1.79443 ,-0.38570 ,-3.78450 
403 ,80.2589 ,1.79650 ,-0.38570 ,-3.78450 
404 ,80.4668 ,1.79862 ,-0.39255 ,-3.85166 
405 ,80.6746 ,1.80065 ,-0.41308 ,-4.05313 
406 ,80.8669 ,1.80259 ,-0.41650 ,-4.08671 
407 ,81.0590 ,1.80450 ,-0.41992 ,-4.12029 
408 ,81.2671 ,1.80655 ,-0.44730 ,-4.38891 
409 ,81.4588 ,1.80852 ,-0.42335 ,-4.15387 
410 ,81.6512 ,1.81037 ,-0.46783 ,-4.59038 
411 ,81.8432 ,1.81234 ,-0.46441 ,-4.55681 
412 ,82.0515 ,1.81441 ,-0.48152 ,-4.72470 
413 ,82.2592 ,1.81651 ,-0.47468 ,-4.65754 
414 ,82.4516 ,1.81842 ,-0.49863 ,-4.89259 
415 ,82.7075 ,1.82074 ,-0.49179 ,-4.82543 
416 ,82.9158 ,1.82294 ,-0.49521 ,-4.85901 
417 ,83.1238 ,1.82517 ,-0.52943 ,-5.19479 
418 ,83.3315 ,1.82722 ,-0.53970 ,-5.29553 
419 ,83.5401 ,1.82920 ,-0.52943 ,-5.19479 
420 ,83.7480 ,1.83140 ,-0.56023 ,-5.49700 
421 ,83.9560 ,1.83343 ,-0.55681 ,-5.46342 
422 ,84.1481 ,1.83537 ,-0.57734 ,-5.66489 
423 ,84.3564 ,1.83742 ,-0.57392 ,-5.63131 
424 ,84.5644 ,1.83949 ,-0.60472 ,-5.93352 
425 ,84.7727 ,1.84159 ,-0.60130 ,-5.89994 
426 ,84.9646 ,1.84356 ,-0.61499 ,-6.03425 
427 ,85.1568 ,1.84547 ,-0.61156 ,-6.00067 
428 ,85.3489 ,1.84736 ,-0.63552 ,-6.23572 
429 ,85.5407 ,1.84926 ,-0.62868 ,-6.16856 
430 ,85.7327 ,1.85124 ,-0.64921 ,-6.37003 
431 ,85.9250 ,1.85317 ,-0.66974 ,-6.57150 
432 ,86.1171 ,1.85505 ,-0.65263 ,-6.40361 
433 ,86.3091 ,1.85700 ,-0.67316 ,-6.60508 
434 ,86.5173 ,1.85894 ,-0.68685 ,-6.73940 
435 ,86.7254 ,1.86109 ,-0.69027 ,-6.77297 
436 ,86.9335 ,1.86321 ,-0.69712 ,-6.84013 
437 ,87.1255 ,1.86521 ,-0.71765 ,-7.04160 
438 ,87.3176 ,1.86709 ,-0.69027 ,-6.77297 
439 ,87.5257 ,1.86913 ,-0.73818 ,-7.24307 
440 ,87.7012 ,1.87104 ,-0.72107 ,-7.07518 
441 ,87.8938 ,1.87277 ,-0.73476 ,-7.20949 
442 ,88.0860 ,1.87475 ,-0.74845 ,-7.34380 
443 ,88.3100 ,1.87692 ,-0.74161 ,-7.27665 
444 ,88.5021 ,1.87889 ,-0.76214 ,-7.47812 
445 ,88.6940 ,1.88083 ,-0.76898 ,-7.54527 
446 ,88.8863 ,1.88278 ,-0.79294 ,-7.78032 
447 ,89.0942 ,1.88487 ,-0.78952 ,-7.74674 
448 ,89.2861 ,1.88672 ,-0.81689 ,-8.01537 
449 ,89.4944 ,1.88882 ,-0.80663 ,-7.91464 
450 ,89.6865 ,1.89071 ,-0.83401 ,-8.18326 
451 ,89.8784 ,1.89264 ,-0.82032 ,-8.04895 
452 ,90.0708 ,1.89457 ,-0.84085 ,-8.25042 
453 ,90.2789 ,1.89667 ,-0.84427 ,-8.28400 
454 ,90.4710 ,1.89863 ,-0.85454 ,-8.38473 
455 ,90.6632 ,1.90052 ,-0.86481 ,-8.48547 
456 ,90.8550 ,1.90240 ,-0.86138 ,-8.45189 
457 ,91.0471 ,1.90438 ,-0.89560 ,-8.78767 
458 ,91.2392 ,1.90622 ,-0.89903 ,-8.82125 
459 ,91.4311 ,1.90817 ,-0.90245 ,-8.85483 
460 ,91.6233 ,1.91013 ,-0.91956 ,-9.02272 
461 ,91.8475 ,1.91228 ,-0.92298 ,-9.05630 
462 ,92.0390 ,1.91435 ,-0.91272 ,-8.95556 
463 ,92.2311 ,1.91616 ,-0.91956 ,-9.02272 
