Data stamp = , 30-04-2022 08:34:04 062

Calibration Values: 
Slope = , 26.54 , g/V 
Offset Voltage at no contact = , -0.501760 , V 

No , Time , Stage Position ,   Mass , Force 
   ,  (s) ,      (mm)      ,   (g)  , (mN)  

1 ,0.0000 ,0.99948 ,5.39434 ,52.92925 
2 ,0.2266 ,0.99956 ,5.38407 ,52.82851 
3 ,0.7231 ,1.00153 ,5.39092 ,52.89567 
4 ,0.9312 ,1.00350 ,5.39776 ,52.96282 
5 ,1.1550 ,1.00564 ,5.40460 ,53.02998 
6 ,1.3472 ,1.00765 ,5.36696 ,52.66062 
7 ,1.5394 ,1.00952 ,5.35669 ,52.55988 
8 ,1.7311 ,1.01151 ,5.34301 ,52.42557 
9 ,1.9232 ,1.01344 ,5.31221 ,52.12337 
10 ,2.1157 ,1.01541 ,5.32589 ,52.25768 
11 ,2.3235 ,1.01739 ,5.28141 ,51.82116 
12 ,2.5478 ,1.01962 ,5.25745 ,51.58611 
13 ,2.7400 ,1.02162 ,5.24718 ,51.48538 
14 ,2.9319 ,1.02348 ,5.23007 ,51.31749 
15 ,3.1400 ,1.02559 ,5.20954 ,51.11602 
16 ,3.3322 ,1.02747 ,5.19243 ,50.94813 
17 ,3.5243 ,1.02946 ,5.15821 ,50.61234 
18 ,3.7164 ,1.03138 ,5.15479 ,50.57876 
19 ,3.9079 ,1.03328 ,5.13425 ,50.37729 
20 ,4.1165 ,1.03526 ,5.13083 ,50.34372 
21 ,4.3246 ,1.03749 ,5.10003 ,50.04151 
22 ,4.5165 ,1.03938 ,5.08977 ,49.94078 
23 ,4.7086 ,1.04128 ,5.05212 ,49.57142 
24 ,4.9006 ,1.04320 ,5.03843 ,49.43710 
25 ,5.0929 ,1.04514 ,5.02817 ,49.33637 
26 ,5.3008 ,1.04718 ,5.00079 ,49.06774 
27 ,5.5089 ,1.04929 ,4.98026 ,48.86627 
28 ,5.7007 ,1.05116 ,4.96657 ,48.73196 
29 ,5.9252 ,1.05348 ,4.92892 ,48.36260 
30 ,6.1330 ,1.05553 ,4.93235 ,48.39618 
31 ,6.3253 ,1.05743 ,4.89812 ,48.06039 
32 ,6.5174 ,1.05938 ,4.89812 ,48.06039 
33 ,6.7094 ,1.06130 ,4.86390 ,47.72461 
34 ,6.9014 ,1.06317 ,4.83652 ,47.45598 
35 ,7.0936 ,1.06511 ,4.82284 ,47.32167 
36 ,7.3016 ,1.06724 ,4.80573 ,47.15378 
37 ,7.5097 ,1.06932 ,4.79204 ,47.01946 
38 ,7.7017 ,1.07114 ,4.78177 ,46.91873 
39 ,7.8939 ,1.07314 ,4.75782 ,46.68368 
40 ,8.0860 ,1.07509 ,4.72702 ,46.38148 
41 ,8.2936 ,1.07713 ,4.72359 ,46.34790 
42 ,8.4861 ,1.07904 ,4.68937 ,46.01212 
43 ,8.6783 ,1.08097 ,4.68253 ,45.94496 
44 ,8.9023 ,1.08320 ,4.66199 ,45.74349 
45 ,9.0944 ,1.08518 ,4.65857 ,45.70991 
46 ,9.2864 ,1.08706 ,4.61751 ,45.30697 
47 ,9.4947 ,1.08903 ,4.60040 ,45.13908 
48 ,9.7186 ,1.09140 ,4.59697 ,45.10550 
49 ,9.9107 ,1.09325 ,4.56960 ,44.83688 
50 ,10.1189 ,1.09535 ,4.55591 ,44.70256 
51 ,10.3109 ,1.09729 ,4.54222 ,44.56825 
52 ,10.5190 ,1.09933 ,4.51826 ,44.33320 
53 ,10.7109 ,1.10127 ,4.49089 ,44.06457 
54 ,10.9030 ,1.10322 ,4.47035 ,43.86310 
55 ,11.1112 ,1.10526 ,4.46693 ,43.82953 
56 ,11.3034 ,1.10722 ,4.43271 ,43.49374 
57 ,11.5110 ,1.10921 ,4.42244 ,43.39301 
58 ,11.7032 ,1.11121 ,4.40533 ,43.22512 
59 ,11.8956 ,1.11315 ,4.39507 ,43.12438 
60 ,12.1037 ,1.11519 ,4.36427 ,42.82218 
61 ,12.2958 ,1.11714 ,4.35742 ,42.75502 
62 ,12.5039 ,1.11918 ,4.32662 ,42.45282 
63 ,12.6959 ,1.12115 ,4.31978 ,42.38566 
64 ,12.8881 ,1.12308 ,4.29240 ,42.11703 
65 ,13.0801 ,1.12496 ,4.28898 ,42.08345 
66 ,13.2722 ,1.12689 ,4.26502 ,41.84841 
67 ,13.4801 ,1.12896 ,4.23765 ,41.57978 
68 ,13.6559 ,1.13080 ,4.24107 ,41.61336 
69 ,13.8644 ,1.13275 ,4.21027 ,41.31115 
70 ,14.0725 ,1.13491 ,4.21369 ,41.34473 
71 ,14.2644 ,1.13685 ,4.17605 ,40.97537 
72 ,14.4567 ,1.13877 ,4.17262 ,40.94179 
73 ,14.6487 ,1.14065 ,4.13498 ,40.57243 
74 ,14.8246 ,1.14252 ,4.12129 ,40.43812 
75 ,15.0169 ,1.14431 ,4.11445 ,40.37096 
76 ,15.2090 ,1.14627 ,4.10076 ,40.23665 
77 ,15.4330 ,1.14834 ,4.07338 ,39.96802 
78 ,15.6251 ,1.15038 ,4.05627 ,39.80013 
79 ,15.8168 ,1.15231 ,4.04258 ,39.66582 
80 ,16.0253 ,1.15433 ,4.02547 ,39.49793 
81 ,16.2331 ,1.15650 ,4.01863 ,39.43077 
82 ,16.4255 ,1.15841 ,3.97072 ,38.96067 
83 ,16.6174 ,1.16030 ,3.97414 ,38.99425 
84 ,16.8576 ,1.16272 ,3.95703 ,38.82636 
85 ,17.0496 ,1.16479 ,3.91938 ,38.45700 
86 ,17.2416 ,1.16660 ,3.89885 ,38.25553 
87 ,17.4338 ,1.16849 ,3.90912 ,38.35626 
88 ,17.6255 ,1.17040 ,3.87147 ,37.98690 
89 ,17.8340 ,1.17244 ,3.87832 ,38.05406 
90 ,18.0417 ,1.17457 ,3.83725 ,37.65112 
91 ,18.2341 ,1.17648 ,3.82699 ,37.55038 
92 ,18.4262 ,1.17836 ,3.80987 ,37.38249 
93 ,18.6183 ,1.18030 ,3.78250 ,37.11387 
94 ,18.8101 ,1.18225 ,3.78934 ,37.18102 
95 ,19.0185 ,1.18429 ,3.76539 ,36.94597 
96 ,19.2266 ,1.18632 ,3.75512 ,36.84524 
97 ,19.4345 ,1.18851 ,3.73801 ,36.67735 
98 ,19.6266 ,1.19037 ,3.71405 ,36.44230 
99 ,19.8187 ,1.19232 ,3.70379 ,36.34157 
100 ,20.0108 ,1.19425 ,3.69352 ,36.24083 
101 ,20.2185 ,1.19630 ,3.64561 ,35.77073 
102 ,20.4109 ,1.19823 ,3.65588 ,35.87147 
103 ,20.6188 ,1.20024 ,3.62850 ,35.60284 
104 ,20.8428 ,1.20254 ,3.59770 ,35.30064 
105 ,21.0513 ,1.20460 ,3.58743 ,35.19990 
106 ,21.2590 ,1.20670 ,3.57032 ,35.03201 
107 ,21.4515 ,1.20861 ,3.56348 ,34.96485 
108 ,21.6437 ,1.21056 ,3.52926 ,34.62907 
109 ,21.8520 ,1.21270 ,3.52584 ,34.59549 
110 ,22.0438 ,1.21458 ,3.49846 ,34.32687 
111 ,22.2519 ,1.21665 ,3.48135 ,34.15898 
112 ,22.4438 ,1.21856 ,3.47450 ,34.09182 
113 ,22.6359 ,1.22050 ,3.45055 ,33.85677 
114 ,22.8280 ,1.22244 ,3.44028 ,33.75604 
115 ,23.0199 ,1.22433 ,3.41975 ,33.55457 
116 ,23.2120 ,1.22624 ,3.40948 ,33.45383 
117 ,23.4039 ,1.22819 ,3.38553 ,33.21878 
118 ,23.5964 ,1.23013 ,3.36842 ,33.05089 
119 ,23.8202 ,1.23223 ,3.34788 ,32.84942 
120 ,24.0123 ,1.23421 ,3.33419 ,32.71511 
121 ,24.2044 ,1.23614 ,3.31708 ,32.54722 
122 ,24.3967 ,1.23806 ,3.30339 ,32.41290 
123 ,24.5887 ,1.24004 ,3.30339 ,32.41290 
124 ,24.8125 ,1.24214 ,3.26575 ,32.04354 
125 ,25.0049 ,1.24418 ,3.25206 ,31.90923 
126 ,25.1971 ,1.24608 ,3.22811 ,31.67418 
127 ,25.3891 ,1.24806 ,3.22811 ,31.67418 
128 ,25.5808 ,1.24991 ,3.19731 ,31.37198 
129 ,25.7733 ,1.25185 ,3.19731 ,31.37198 
130 ,25.9812 ,1.25394 ,3.15966 ,31.00262 
131 ,26.1735 ,1.25586 ,3.16651 ,31.06977 
132 ,26.3655 ,1.25780 ,3.14255 ,30.83472 
133 ,26.5736 ,1.25987 ,3.12202 ,30.63325 
134 ,26.7652 ,1.26184 ,3.08780 ,30.29747 
135 ,26.9576 ,1.26367 ,3.08095 ,30.23031 
136 ,27.1658 ,1.26579 ,3.06726 ,30.09600 
137 ,27.3575 ,1.26768 ,3.05015 ,29.92811 
138 ,27.5501 ,1.26957 ,3.05700 ,29.99527 
139 ,27.7418 ,1.27160 ,3.01251 ,29.55875 
140 ,27.9341 ,1.27350 ,3.01251 ,29.55875 
141 ,28.1420 ,1.27551 ,2.98855 ,29.32370 
142 ,28.3343 ,1.27746 ,2.98513 ,29.29012 
143 ,28.5423 ,1.27949 ,2.96802 ,29.12223 
144 ,28.7502 ,1.28161 ,2.95776 ,29.02150 
145 ,28.9423 ,1.28354 ,2.93380 ,28.78645 
146 ,29.1346 ,1.28545 ,2.93038 ,28.75287 
147 ,29.3266 ,1.28740 ,2.90300 ,28.48424 
148 ,29.5346 ,1.28941 ,2.88589 ,28.31635 
149 ,29.7265 ,1.29142 ,2.88247 ,28.28277 
150 ,29.9505 ,1.29361 ,2.85167 ,27.98057 
151 ,30.1431 ,1.29553 ,2.84825 ,27.94699 
152 ,30.3515 ,1.29760 ,2.82429 ,27.71194 
153 ,30.5433 ,1.29954 ,2.81402 ,27.61121 
154 ,30.7353 ,1.30142 ,2.79007 ,27.37616 
155 ,30.9273 ,1.30339 ,2.78665 ,27.34258 
156 ,31.1194 ,1.30527 ,2.76269 ,27.10753 
157 ,31.3115 ,1.30722 ,2.75585 ,27.04038 
158 ,31.5036 ,1.30910 ,2.72847 ,26.77175 
159 ,31.7115 ,1.31122 ,2.70452 ,26.53670 
160 ,31.9033 ,1.31311 ,2.69425 ,26.43597 
161 ,32.0954 ,1.31502 ,2.68056 ,26.30165 
162 ,32.2878 ,1.31702 ,2.68398 ,26.33523 
163 ,32.4960 ,1.31902 ,2.64634 ,25.96587 
164 ,32.6880 ,1.32092 ,2.65318 ,26.03303 
165 ,32.8962 ,1.32294 ,2.62923 ,25.79798 
166 ,33.1042 ,1.32512 ,2.61554 ,25.66367 
167 ,33.2964 ,1.32708 ,2.57789 ,25.29430 
168 ,33.4884 ,1.32893 ,2.58474 ,25.36146 
169 ,33.6807 ,1.33088 ,2.54367 ,24.95852 
170 ,33.9046 ,1.33302 ,2.55736 ,25.09283 
171 ,34.0967 ,1.33506 ,2.52314 ,24.75705 
172 ,34.2883 ,1.33696 ,2.52656 ,24.79063 
173 ,34.4808 ,1.33888 ,2.49576 ,24.48842 
174 ,34.6889 ,1.34095 ,2.47523 ,24.28696 
175 ,34.8970 ,1.34301 ,2.44785 ,24.01833 
176 ,35.0890 ,1.34496 ,2.46154 ,24.15264 
177 ,35.3132 ,1.34712 ,2.42390 ,23.78328 
178 ,35.5374 ,1.34933 ,2.41363 ,23.68255 
179 ,35.7450 ,1.35155 ,2.42390 ,23.78328 
180 ,35.9376 ,1.35341 ,2.38283 ,23.38034 
181 ,36.1454 ,1.35554 ,2.38625 ,23.41392 
182 ,36.3540 ,1.35748 ,2.35203 ,23.07814 
183 ,36.5456 ,1.35965 ,2.33834 ,22.94382 
184 ,36.7378 ,1.36142 ,2.31781 ,22.74235 
185 ,36.9296 ,1.36338 ,2.33150 ,22.87667 
186 ,37.1540 ,1.36557 ,2.29728 ,22.54088 
187 ,37.3620 ,1.36770 ,2.28359 ,22.40657 
188 ,37.5537 ,1.36962 ,2.26306 ,22.20510 
189 ,37.7461 ,1.37156 ,2.25621 ,22.13794 
190 ,37.9541 ,1.37360 ,2.23910 ,21.97005 
191 ,38.1462 ,1.37552 ,2.22883 ,21.86932 
192 ,38.3385 ,1.37749 ,2.20488 ,21.63427 
193 ,38.5305 ,1.37936 ,2.20830 ,21.66785 
194 ,38.7386 ,1.38146 ,2.17066 ,21.29849 
195 ,38.9466 ,1.38351 ,2.18092 ,21.39922 
196 ,39.1388 ,1.38542 ,2.16039 ,21.19775 
197 ,39.3307 ,1.38737 ,2.13986 ,20.99628 
198 ,39.5229 ,1.38931 ,2.12959 ,20.89555 
199 ,39.7307 ,1.39141 ,2.09879 ,20.59334 
200 ,39.9391 ,1.39341 ,2.10221 ,20.62692 
201 ,40.1471 ,1.39552 ,2.07826 ,20.39187 
202 ,40.3393 ,1.39748 ,2.06115 ,20.22398 
203 ,40.5311 ,1.39936 ,2.04404 ,20.05609 
204 ,40.7234 ,1.40129 ,2.04404 ,20.05609 
205 ,40.9311 ,1.40333 ,2.02350 ,19.85462 
206 ,41.1236 ,1.40530 ,2.02008 ,19.82104 
207 ,41.3155 ,1.40728 ,1.98928 ,19.51884 
208 ,41.5237 ,1.40935 ,1.98244 ,19.45168 
209 ,41.7317 ,1.41134 ,1.96190 ,19.25021 
210 ,41.9234 ,1.41330 ,1.96190 ,19.25021 
211 ,42.1160 ,1.41523 ,1.92426 ,18.88085 
212 ,42.3240 ,1.41731 ,1.93795 ,19.01516 
213 ,42.5321 ,1.41925 ,1.91057 ,18.74654 
214 ,42.7243 ,1.42126 ,1.90715 ,18.71296 
215 ,42.9323 ,1.42335 ,1.87635 ,18.41075 
216 ,43.1244 ,1.42531 ,1.88319 ,18.47791 
217 ,43.3325 ,1.42734 ,1.83871 ,18.04139 
218 ,43.5246 ,1.42934 ,1.84555 ,18.10855 
219 ,43.7167 ,1.43125 ,1.82160 ,17.87350 
220 ,43.9247 ,1.43330 ,1.81475 ,17.80634 
221 ,44.1164 ,1.43523 ,1.79080 ,17.57129 
222 ,44.3089 ,1.43715 ,1.78395 ,17.50414 
223 ,44.5169 ,1.43919 ,1.75657 ,17.23551 
224 ,44.7091 ,1.44110 ,1.75657 ,17.23551 
225 ,44.9171 ,1.44336 ,1.73262 ,17.00046 
226 ,45.1253 ,1.44533 ,1.72920 ,16.96689 
227 ,45.3170 ,1.44724 ,1.70866 ,16.76542 
228 ,45.5092 ,1.44912 ,1.70524 ,16.73184 
229 ,45.7014 ,1.45107 ,1.68813 ,16.56395 
230 ,45.9091 ,1.45310 ,1.67444 ,16.42963 
231 ,46.1016 ,1.45502 ,1.66075 ,16.29532 
232 ,46.3092 ,1.45710 ,1.63338 ,16.02669 
233 ,46.5018 ,1.45904 ,1.64364 ,16.12743 
234 ,46.6935 ,1.46100 ,1.60942 ,15.79164 
235 ,46.8855 ,1.46291 ,1.61627 ,15.85880 
236 ,47.0776 ,1.46479 ,1.58204 ,15.52302 
237 ,47.2700 ,1.46680 ,1.57178 ,15.42228 
238 ,47.5102 ,1.46906 ,1.55467 ,15.25439 
239 ,47.7185 ,1.47123 ,1.56493 ,15.35513 
240 ,47.9426 ,1.47347 ,1.53413 ,15.05292 
241 ,48.1501 ,1.47554 ,1.51360 ,14.85145 
242 ,48.3424 ,1.47739 ,1.51360 ,14.85145 
243 ,48.5505 ,1.47951 ,1.47253 ,14.44851 
244 ,48.7430 ,1.48149 ,1.48965 ,14.61640 
245 ,48.9507 ,1.48350 ,1.45885 ,14.31420 
246 ,49.1431 ,1.48548 ,1.45885 ,14.31420 
247 ,49.3351 ,1.48736 ,1.42120 ,13.94484 
248 ,49.5267 ,1.48929 ,1.42462 ,13.97842 
249 ,49.7193 ,1.49124 ,1.41436 ,13.87768 
250 ,49.9432 ,1.49340 ,1.39383 ,13.67621 
251 ,50.1514 ,1.49550 ,1.36303 ,13.37401 
252 ,50.3434 ,1.49746 ,1.36987 ,13.44116 
253 ,50.5354 ,1.49933 ,1.33907 ,13.13896 
254 ,50.7276 ,1.50128 ,1.33907 ,13.13896 
255 ,50.9675 ,1.50364 ,1.30827 ,12.83675 
256 ,51.1758 ,1.50574 ,1.30827 ,12.83675 
257 ,51.3519 ,1.50764 ,1.30485 ,12.80318 
258 ,51.5439 ,1.50943 ,1.29800 ,12.73602 
259 ,51.7356 ,1.51143 ,1.27747 ,12.53455 
260 ,51.9281 ,1.51328 ,1.24667 ,12.23235 
261 ,52.1361 ,1.51536 ,1.24667 ,12.23235 
262 ,52.3279 ,1.51726 ,1.22956 ,12.06445 
263 ,52.5203 ,1.51925 ,1.23641 ,12.13161 
264 ,52.7122 ,1.52108 ,1.19534 ,11.72867 
265 ,52.9043 ,1.52320 ,1.20218 ,11.79583 
266 ,53.0965 ,1.52492 ,1.17481 ,11.52720 
267 ,53.2887 ,1.52686 ,1.16112 ,11.39289 
268 ,53.4802 ,1.52879 ,1.15085 ,11.29215 
269 ,53.6723 ,1.53074 ,1.14401 ,11.22500 
270 ,53.8803 ,1.53280 ,1.13032 ,11.09068 
271 ,54.0884 ,1.53485 ,1.10979 ,10.88921 
272 ,54.3131 ,1.53701 ,1.10979 ,10.88921 
273 ,54.5211 ,1.53922 ,1.08925 ,10.68774 
274 ,54.7128 ,1.54115 ,1.06872 ,10.48627 
275 ,54.9052 ,1.54304 ,1.06872 ,10.48627 
276 ,55.0973 ,1.54495 ,1.05161 ,10.31838 
277 ,55.3054 ,1.54693 ,1.02423 ,10.04976 
278 ,55.4974 ,1.54897 ,1.03450 ,10.15049 
279 ,55.6894 ,1.55091 ,0.99685 ,9.78113 
280 ,55.9133 ,1.55311 ,0.99343 ,9.74755 
281 ,56.1055 ,1.55507 ,0.98317 ,9.64682 
282 ,56.2975 ,1.55698 ,0.97290 ,9.54608 
283 ,56.4898 ,1.55891 ,0.94552 ,9.27745 
284 ,56.6980 ,1.56095 ,0.95237 ,9.34461 
285 ,56.8899 ,1.56286 ,0.91814 ,9.00883 
286 ,57.0981 ,1.56495 ,0.92157 ,9.04241 
287 ,57.2903 ,1.56689 ,0.90103 ,8.84094 
288 ,57.4823 ,1.56887 ,0.90446 ,8.87451 
289 ,57.6744 ,1.57078 ,0.88734 ,8.70662 
290 ,57.8822 ,1.57285 ,0.86681 ,8.50515 
291 ,58.0904 ,1.57486 ,0.83601 ,8.20295 
292 ,58.2823 ,1.57677 ,0.85312 ,8.37084 
293 ,58.4747 ,1.57871 ,0.81548 ,8.00148 
294 ,58.6825 ,1.58085 ,0.81890 ,8.03506 
295 ,58.8749 ,1.58276 ,0.80521 ,7.90074 
296 ,59.0831 ,1.58477 ,0.79837 ,7.83359 
297 ,59.2749 ,1.58675 ,0.78126 ,7.66570 
298 ,59.4669 ,1.58862 ,0.75730 ,7.43065 
299 ,59.6592 ,1.59057 ,0.76072 ,7.46423 
300 ,59.8512 ,1.59247 ,0.72992 ,7.16202 
301 ,60.0593 ,1.59458 ,0.73677 ,7.22918 
302 ,60.2515 ,1.59650 ,0.71281 ,6.99413 
303 ,60.4594 ,1.59853 ,0.71966 ,7.06129 
304 ,60.6354 ,1.60045 ,0.67859 ,6.65835 
305 ,60.8277 ,1.60229 ,0.67175 ,6.59119 
306 ,61.0518 ,1.60445 ,0.65806 ,6.45688 
307 ,61.2598 ,1.60658 ,0.65806 ,6.45688 
308 ,61.4520 ,1.60847 ,0.64095 ,6.28899 
309 ,61.6600 ,1.61053 ,0.63410 ,6.22183 
310 ,61.8525 ,1.61247 ,0.62726 ,6.15467 
311 ,62.0441 ,1.61442 ,0.61015 ,5.98678 
312 ,62.2362 ,1.61633 ,0.59646 ,5.85247 
313 ,62.4284 ,1.61828 ,0.58277 ,5.71815 
314 ,62.6360 ,1.62032 ,0.58962 ,5.78531 
315 ,62.8285 ,1.62226 ,0.55539 ,5.44953 
316 ,63.0205 ,1.62417 ,0.54855 ,5.38237 
317 ,63.2126 ,1.62614 ,0.53828 ,5.28164 
318 ,63.4206 ,1.62812 ,0.53144 ,5.21448 
319 ,63.6125 ,1.63012 ,0.53144 ,5.21448 
320 ,63.8044 ,1.63201 ,0.49722 ,4.87870 
321 ,63.9969 ,1.63395 ,0.50406 ,4.94585 
322 ,64.2049 ,1.63602 ,0.47668 ,4.67723 
323 ,64.3971 ,1.63793 ,0.48011 ,4.71081 
324 ,64.6052 ,1.64000 ,0.46642 ,4.57649 
325 ,64.7973 ,1.64192 ,0.45957 ,4.50934 
326 ,65.0054 ,1.64406 ,0.42535 ,4.17355 
327 ,65.2292 ,1.64611 ,0.41166 ,4.03924 
328 ,65.4214 ,1.64815 ,0.40824 ,4.00566 
329 ,65.6135 ,1.65010 ,0.41166 ,4.03924 
330 ,65.8056 ,1.65199 ,0.38429 ,3.77061 
331 ,65.9976 ,1.65387 ,0.38429 ,3.77061 
332 ,66.1900 ,1.65584 ,0.37402 ,3.66988 
333 ,66.3816 ,1.65782 ,0.34322 ,3.36767 
334 ,66.5741 ,1.65969 ,0.33638 ,3.30052 
335 ,66.7657 ,1.66160 ,0.31926 ,3.13263 
336 ,66.9579 ,1.66351 ,0.33980 ,3.33410 
337 ,67.1500 ,1.66545 ,0.30900 ,3.03189 
338 ,67.3578 ,1.66752 ,0.30900 ,3.03189 
339 ,67.5343 ,1.66938 ,0.28847 ,2.83042 
340 ,67.7263 ,1.67119 ,0.25767 ,2.52822 
341 ,67.9344 ,1.67333 ,0.27820 ,2.72969 
342 ,68.1262 ,1.67521 ,0.24398 ,2.39390 
343 ,68.3184 ,1.67715 ,0.24740 ,2.42748 
344 ,68.5108 ,1.67906 ,0.22687 ,2.22601 
345 ,68.7027 ,1.68101 ,0.22344 ,2.19243 
346 ,68.8949 ,1.68286 ,0.22344 ,2.19243 
347 ,69.0870 ,1.68485 ,0.18580 ,1.82307 
348 ,69.2951 ,1.68683 ,0.19264 ,1.89023 
349 ,69.5034 ,1.68902 ,0.16869 ,1.65518 
350 ,69.6953 ,1.69094 ,0.18238 ,1.78949 
351 ,69.9034 ,1.69295 ,0.15500 ,1.52087 
352 ,70.0955 ,1.69492 ,0.15158 ,1.48729 
353 ,70.3192 ,1.69703 ,0.12078 ,1.18508 
354 ,70.5114 ,1.69904 ,0.12762 ,1.25224 
355 ,70.7038 ,1.70101 ,0.10709 ,1.05077 
356 ,70.8958 ,1.70292 ,0.10367 ,1.01719 
357 ,71.1037 ,1.70492 ,0.07971 ,0.78214 
358 ,71.2960 ,1.70689 ,0.09682 ,0.95004 
359 ,71.4880 ,1.70881 ,0.07287 ,0.71499 
360 ,71.6961 ,1.71085 ,0.07287 ,0.71499 
361 ,71.9042 ,1.71291 ,0.04549 ,0.44636 
362 ,72.0963 ,1.71492 ,0.04207 ,0.41278 
363 ,72.2885 ,1.71687 ,0.02154 ,0.21131 
364 ,72.4960 ,1.71888 ,0.01811 ,0.17773 
365 ,72.6886 ,1.72083 ,-0.01269 ,-0.12447 
366 ,72.8806 ,1.72276 ,-0.00926 ,-0.09089 
367 ,73.1047 ,1.72490 ,-0.02637 ,-0.25878 
368 ,73.2964 ,1.72688 ,-0.01953 ,-0.19163 
369 ,73.4886 ,1.72889 ,-0.04691 ,-0.46025 
370 ,73.7124 ,1.73101 ,-0.04348 ,-0.42667 
371 ,73.9046 ,1.73302 ,-0.06744 ,-0.66172 
372 ,74.0967 ,1.73490 ,-0.06402 ,-0.62814 
373 ,74.3209 ,1.73703 ,-0.08455 ,-0.82961 
374 ,74.5291 ,1.73920 ,-0.09482 ,-0.93035 
375 ,74.7211 ,1.74109 ,-0.10508 ,-1.03108 
376 ,74.8971 ,1.74299 ,-0.09482 ,-0.93035 
377 ,75.0896 ,1.74480 ,-0.12219 ,-1.19898 
378 ,75.3135 ,1.74692 ,-0.12219 ,-1.19898 
379 ,75.5058 ,1.74899 ,-0.15984 ,-1.56834 
380 ,75.7133 ,1.75109 ,-0.14273 ,-1.40045 
381 ,75.9057 ,1.75306 ,-0.16326 ,-1.60191 
382 ,76.1300 ,1.75510 ,-0.15984 ,-1.56834 
383 ,76.3221 ,1.75717 ,-0.19064 ,-1.87054 
384 ,76.5302 ,1.75921 ,-0.19406 ,-1.90412 
385 ,76.7221 ,1.76111 ,-0.20775 ,-2.03843 
386 ,76.9141 ,1.76306 ,-0.20090 ,-1.97128 
387 ,77.1062 ,1.76495 ,-0.22486 ,-2.20632 
388 ,77.2984 ,1.76689 ,-0.21459 ,-2.10559 
389 ,77.4905 ,1.76883 ,-0.22486 ,-2.20632 
390 ,77.6984 ,1.77095 ,-0.24197 ,-2.37422 
391 ,77.8903 ,1.77277 ,-0.25224 ,-2.47495 
392 ,78.0826 ,1.77473 ,-0.28304 ,-2.77716 
393 ,78.2907 ,1.77675 ,-0.27277 ,-2.67642 
394 ,78.4668 ,1.77868 ,-0.28988 ,-2.84431 
395 ,78.6588 ,1.78046 ,-0.29673 ,-2.91147 
396 ,78.8510 ,1.78240 ,-0.31726 ,-3.11294 
397 ,79.0426 ,1.78438 ,-0.31726 ,-3.11294 
398 ,79.2350 ,1.78626 ,-0.31384 ,-3.07936 
399 ,79.4432 ,1.78836 ,-0.34806 ,-3.41514 
400 ,79.6354 ,1.79030 ,-0.33779 ,-3.31441 
401 ,79.8439 ,1.79234 ,-0.36517 ,-3.58303 
402 ,80.0514 ,1.79440 ,-0.36175 ,-3.54946 
403 ,80.2436 ,1.79638 ,-0.37886 ,-3.71735 
404 ,80.4519 ,1.79841 ,-0.36517 ,-3.58303 
405 ,80.6439 ,1.80037 ,-0.40623 ,-3.98597 
406 ,80.8513 ,1.80236 ,-0.39255 ,-3.85166 
407 ,81.0441 ,1.80441 ,-0.41650 ,-4.08671 
408 ,81.2516 ,1.80644 ,-0.40966 ,-4.01955 
409 ,81.4599 ,1.80840 ,-0.44730 ,-4.38891 
410 ,81.6682 ,1.81058 ,-0.44388 ,-4.35534 
411 ,81.8763 ,1.81253 ,-0.46441 ,-4.55681 
412 ,82.0844 ,1.81474 ,-0.46783 ,-4.59038 
413 ,82.2921 ,1.81684 ,-0.45757 ,-4.48965 
414 ,82.4845 ,1.81878 ,-0.50206 ,-4.92617 
415 ,82.6926 ,1.82088 ,-0.48837 ,-4.79185 
416 ,82.9004 ,1.82286 ,-0.51917 ,-5.09406 
417 ,83.0767 ,1.82476 ,-0.50890 ,-4.99332 
418 ,83.2689 ,1.82659 ,-0.51232 ,-5.02690 
419 ,83.4604 ,1.82845 ,-0.54654 ,-5.36268 
420 ,83.6529 ,1.83037 ,-0.52601 ,-5.16121 
421 ,83.8446 ,1.83237 ,-0.53628 ,-5.26195 
422 ,84.0370 ,1.83423 ,-0.54997 ,-5.39626 
423 ,84.2292 ,1.83617 ,-0.54997 ,-5.39626 
424 ,84.4213 ,1.83808 ,-0.58077 ,-5.69847 
425 ,84.6293 ,1.84014 ,-0.57050 ,-5.59773 
426 ,84.8211 ,1.84210 ,-0.59788 ,-5.86636 
427 ,85.0294 ,1.84417 ,-0.59445 ,-5.83278 
428 ,85.2216 ,1.84607 ,-0.62525 ,-6.13499 
429 ,85.4135 ,1.84802 ,-0.61156 ,-6.00067 
430 ,85.6053 ,1.84994 ,-0.63552 ,-6.23572 
431 ,85.8138 ,1.85203 ,-0.63210 ,-6.20214 
432 ,86.0219 ,1.85411 ,-0.65263 ,-6.40361 
433 ,86.2140 ,1.85599 ,-0.65263 ,-6.40361 
434 ,86.4221 ,1.85806 ,-0.67316 ,-6.60508 
435 ,86.6141 ,1.86005 ,-0.66290 ,-6.50435 
436 ,86.8059 ,1.86193 ,-0.69370 ,-6.80655 
437 ,87.0143 ,1.86391 ,-0.70739 ,-6.94086 
438 ,87.2062 ,1.86595 ,-0.70739 ,-6.94086 
439 ,87.3985 ,1.86784 ,-0.72107 ,-7.07518 
440 ,87.6065 ,1.86993 ,-0.72792 ,-7.14233 
441 ,87.7982 ,1.87187 ,-0.73134 ,-7.17591 
442 ,88.0065 ,1.87383 ,-0.72450 ,-7.10876 
443 ,88.2307 ,1.87606 ,-0.75530 ,-7.41096 
444 ,88.4229 ,1.87805 ,-0.76556 ,-7.51170 
445 ,88.6150 ,1.88003 ,-0.75530 ,-7.41096 
446 ,88.8071 ,1.88195 ,-0.76556 ,-7.51170 
447 ,89.0311 ,1.88401 ,-0.79294 ,-7.78032 
448 ,89.2230 ,1.88614 ,-0.81005 ,-7.94821 
449 ,89.4152 ,1.88802 ,-0.79636 ,-7.81390 
450 ,89.6235 ,1.88998 ,-0.81005 ,-7.94821 
451 ,89.8155 ,1.89202 ,-0.83058 ,-8.14968 
452 ,90.0070 ,1.89392 ,-0.83743 ,-8.21684 
453 ,90.1996 ,1.89584 ,-0.84769 ,-8.31758 
454 ,90.3916 ,1.89775 ,-0.85112 ,-8.35115 
455 ,90.5838 ,1.89972 ,-0.86823 ,-8.51904 
456 ,90.7757 ,1.90160 ,-0.87507 ,-8.58620 
457 ,90.9679 ,1.90348 ,-0.86138 ,-8.45189 
458 ,91.1759 ,1.90564 ,-0.88534 ,-8.68694 
459 ,91.3841 ,1.90765 ,-0.89560 ,-8.78767 
460 ,91.5762 ,1.90953 ,-0.89903 ,-8.82125 
461 ,91.7684 ,1.91147 ,-0.90245 ,-8.85483 
462 ,91.9601 ,1.91349 ,-0.92298 ,-9.05630 
463 ,92.1520 ,1.91549 ,-0.90587 ,-8.88841 
