Data stamp = , 30-04-2022 09:32:59 410

Calibration Values: 
Slope = , 26.54 , g/V 
Offset Voltage at no contact = , -0.501760 , V 

No , Time , Stage Position ,   Mass , Force 
   ,  (s) ,      (mm)      ,   (g)  , (mN)  

1 ,0.0000 ,0.99942 ,5.40118 ,52.99640 
2 ,0.2109 ,0.99948 ,5.39434 ,52.92925 
3 ,0.7551 ,1.00165 ,5.38749 ,52.86209 
4 ,0.9633 ,1.00367 ,5.39092 ,52.89567 
5 ,1.1712 ,1.00574 ,5.38065 ,52.79493 
6 ,1.3638 ,1.00775 ,5.37723 ,52.76135 
7 ,1.5718 ,1.00985 ,5.35669 ,52.55988 
8 ,1.7800 ,1.01200 ,5.31563 ,52.15694 
9 ,1.9720 ,1.01385 ,5.31221 ,52.12337 
10 ,2.1639 ,1.01584 ,5.30536 ,52.05621 
11 ,2.3881 ,1.01797 ,5.28825 ,51.88832 
12 ,2.5962 ,1.02016 ,5.25061 ,51.51896 
13 ,2.7883 ,1.02198 ,5.24718 ,51.48538 
14 ,2.9805 ,1.02390 ,5.20612 ,51.08244 
15 ,3.1885 ,1.02594 ,5.21639 ,51.18317 
16 ,3.3805 ,1.02794 ,5.17532 ,50.78023 
17 ,3.5728 ,1.02988 ,5.15136 ,50.54519 
18 ,3.7648 ,1.03182 ,5.13768 ,50.41087 
19 ,3.9566 ,1.03376 ,5.10688 ,50.10867 
20 ,4.1491 ,1.03571 ,5.12399 ,50.27656 
21 ,4.3566 ,1.03772 ,5.07608 ,49.80646 
22 ,4.5492 ,1.03970 ,5.07950 ,49.84004 
23 ,4.7571 ,1.04174 ,5.04185 ,49.47068 
24 ,4.9493 ,1.04367 ,5.04185 ,49.47068 
25 ,5.1572 ,1.04564 ,5.01790 ,49.23563 
26 ,5.3654 ,1.04782 ,5.00079 ,49.06774 
27 ,5.5575 ,1.04979 ,4.96657 ,48.73196 
28 ,5.7496 ,1.05168 ,4.96315 ,48.69838 
29 ,5.9577 ,1.05378 ,4.92208 ,48.29544 
30 ,6.1656 ,1.05578 ,4.92208 ,48.29544 
31 ,6.3898 ,1.05797 ,4.89812 ,48.06039 
32 ,6.5656 ,1.05995 ,4.87417 ,47.82534 
33 ,6.7580 ,1.06173 ,4.84679 ,47.55672 
34 ,6.9660 ,1.06380 ,4.83995 ,47.48956 
35 ,7.1741 ,1.06585 ,4.82284 ,47.32167 
36 ,7.3663 ,1.06778 ,4.80573 ,47.15378 
37 ,7.5743 ,1.06988 ,4.79546 ,47.05304 
38 ,7.7664 ,1.07177 ,4.77150 ,46.81800 
39 ,7.9746 ,1.07385 ,4.74755 ,46.58295 
40 ,8.1666 ,1.07581 ,4.72017 ,46.31432 
41 ,8.3748 ,1.07786 ,4.70990 ,46.21359 
42 ,8.5829 ,1.07999 ,4.68937 ,46.01212 
43 ,8.7907 ,1.08203 ,4.68253 ,45.94496 
44 ,8.9831 ,1.08400 ,4.65515 ,45.67633 
45 ,9.1910 ,1.08608 ,4.62777 ,45.40771 
46 ,9.3831 ,1.08802 ,4.62093 ,45.34055 
47 ,9.5752 ,1.08986 ,4.59013 ,45.03835 
48 ,9.7508 ,1.09177 ,4.60040 ,45.13908 
49 ,9.9429 ,1.09359 ,4.56617 ,44.80330 
50 ,10.1351 ,1.09551 ,4.53537 ,44.50109 
51 ,10.3435 ,1.09757 ,4.53537 ,44.50109 
52 ,10.5356 ,1.09946 ,4.50457 ,44.19889 
53 ,10.7277 ,1.10140 ,4.49773 ,44.13173 
54 ,10.9194 ,1.10336 ,4.46009 ,43.76237 
55 ,11.1116 ,1.10531 ,4.46693 ,43.82953 
56 ,11.3199 ,1.10728 ,4.42929 ,43.46016 
57 ,11.5117 ,1.10923 ,4.42244 ,43.39301 
58 ,11.7041 ,1.11117 ,4.42244 ,43.39301 
59 ,11.8799 ,1.11306 ,4.37795 ,42.95649 
60 ,12.0719 ,1.11483 ,4.37453 ,42.92291 
61 ,12.2641 ,1.11678 ,4.35742 ,42.75502 
62 ,12.4882 ,1.11895 ,4.34716 ,42.65429 
63 ,12.6965 ,1.12106 ,4.31293 ,42.31850 
64 ,12.8886 ,1.12305 ,4.30609 ,42.25135 
65 ,13.0805 ,1.12496 ,4.27871 ,41.98272 
66 ,13.2727 ,1.12688 ,4.26845 ,41.88198 
67 ,13.4647 ,1.12872 ,4.25476 ,41.74767 
68 ,13.6567 ,1.13068 ,4.22053 ,41.41189 
69 ,13.8647 ,1.13278 ,4.21369 ,41.34473 
70 ,14.0571 ,1.13474 ,4.19316 ,41.14326 
71 ,14.2648 ,1.13673 ,4.17605 ,40.97537 
72 ,14.4572 ,1.13867 ,4.15551 ,40.77390 
73 ,14.6652 ,1.14080 ,4.14867 ,40.70674 
74 ,14.8734 ,1.14281 ,4.12814 ,40.50527 
75 ,15.0655 ,1.14476 ,4.11787 ,40.40454 
76 ,15.2735 ,1.14685 ,4.10418 ,40.27023 
77 ,15.4975 ,1.14914 ,4.05969 ,39.83371 
78 ,15.7057 ,1.15112 ,4.05969 ,39.83371 
79 ,15.8818 ,1.15304 ,4.02889 ,39.53150 
80 ,16.0739 ,1.15487 ,4.01863 ,39.43077 
81 ,16.2661 ,1.15676 ,3.99809 ,39.22930 
82 ,16.4741 ,1.15884 ,3.98098 ,39.06141 
83 ,16.6661 ,1.16075 ,3.97414 ,38.99425 
84 ,16.8582 ,1.16274 ,3.93650 ,38.62489 
85 ,17.0663 ,1.16473 ,3.92623 ,38.52415 
86 ,17.2584 ,1.16669 ,3.90912 ,38.35626 
87 ,17.4821 ,1.16883 ,3.90227 ,38.28911 
88 ,17.6743 ,1.17090 ,3.88516 ,38.12122 
89 ,17.8821 ,1.17295 ,3.84752 ,37.75185 
90 ,18.0906 ,1.17489 ,3.84067 ,37.68470 
91 ,18.2825 ,1.17696 ,3.83041 ,37.58396 
92 ,18.4905 ,1.17900 ,3.81672 ,37.44965 
93 ,18.6828 ,1.18096 ,3.78934 ,37.18102 
94 ,18.8748 ,1.18284 ,3.76881 ,36.97955 
95 ,19.0671 ,1.18483 ,3.77565 ,37.04671 
96 ,19.2750 ,1.18679 ,3.74828 ,36.77808 
97 ,19.4672 ,1.18874 ,3.72774 ,36.57661 
98 ,19.6750 ,1.19084 ,3.71405 ,36.44230 
99 ,19.8834 ,1.19283 ,3.68668 ,36.17367 
100 ,20.0915 ,1.19504 ,3.67983 ,36.10652 
101 ,20.2830 ,1.19695 ,3.65588 ,35.87147 
102 ,20.4751 ,1.19885 ,3.64219 ,35.73716 
103 ,20.6511 ,1.20079 ,3.62850 ,35.60284 
104 ,20.8594 ,1.20260 ,3.59770 ,35.30064 
105 ,21.0519 ,1.20470 ,3.59428 ,35.26706 
106 ,21.2596 ,1.20670 ,3.55663 ,34.89770 
107 ,21.4679 ,1.20878 ,3.53952 ,34.72981 
108 ,21.6760 ,1.21085 ,3.52584 ,34.59549 
109 ,21.8680 ,1.21277 ,3.52241 ,34.56192 
110 ,22.0601 ,1.21468 ,3.50188 ,34.36045 
111 ,22.2523 ,1.21661 ,3.49846 ,34.32687 
112 ,22.4449 ,1.21852 ,3.47108 ,34.05824 
113 ,22.6524 ,1.22062 ,3.47108 ,34.05824 
114 ,22.8445 ,1.22250 ,3.43686 ,33.72246 
115 ,23.0363 ,1.22446 ,3.41633 ,33.52099 
116 ,23.2283 ,1.22634 ,3.42317 ,33.58814 
117 ,23.4208 ,1.22834 ,3.38895 ,33.25236 
118 ,23.6287 ,1.23035 ,3.37526 ,33.11805 
119 ,23.8210 ,1.23228 ,3.35130 ,32.88300 
120 ,24.0291 ,1.23433 ,3.34788 ,32.84942 
121 ,24.2211 ,1.23624 ,3.31708 ,32.54722 
122 ,24.3971 ,1.23814 ,3.32393 ,32.61437 
123 ,24.5892 ,1.24000 ,3.29655 ,32.34575 
124 ,24.7971 ,1.24207 ,3.26917 ,32.07712 
125 ,24.9893 ,1.24392 ,3.27259 ,32.11070 
126 ,25.1815 ,1.24586 ,3.24522 ,31.84207 
127 ,25.3735 ,1.24781 ,3.24522 ,31.84207 
128 ,25.5814 ,1.24987 ,3.20073 ,31.40555 
129 ,25.7738 ,1.25182 ,3.20415 ,31.43913 
130 ,25.9818 ,1.25380 ,3.16993 ,31.10335 
131 ,26.1739 ,1.25580 ,3.16993 ,31.10335 
132 ,26.3656 ,1.25770 ,3.13229 ,30.73399 
133 ,26.5420 ,1.25961 ,3.13913 ,30.80115 
134 ,26.7343 ,1.26140 ,3.12886 ,30.70041 
135 ,26.9261 ,1.26334 ,3.09464 ,30.36463 
136 ,27.1182 ,1.26523 ,3.07753 ,30.19674 
137 ,27.3105 ,1.26717 ,3.07411 ,30.16316 
138 ,27.4864 ,1.26906 ,3.05015 ,29.92811 
139 ,27.6783 ,1.27081 ,3.03304 ,29.76022 
140 ,27.8707 ,1.27281 ,3.02620 ,29.69306 
141 ,28.0787 ,1.27485 ,3.00224 ,29.45801 
142 ,28.2708 ,1.27679 ,3.00909 ,29.52517 
143 ,28.4788 ,1.27886 ,2.96460 ,29.08865 
144 ,28.6708 ,1.28084 ,2.96118 ,29.05507 
145 ,28.8789 ,1.28281 ,2.94064 ,28.85360 
146 ,29.1032 ,1.28504 ,2.91669 ,28.61856 
147 ,29.3111 ,1.28723 ,2.90642 ,28.51782 
148 ,29.5034 ,1.28909 ,2.87562 ,28.21562 
149 ,29.7110 ,1.29115 ,2.90642 ,28.51782 
150 ,29.9035 ,1.29303 ,2.84482 ,27.91341 
151 ,30.0954 ,1.29497 ,2.85509 ,28.01415 
152 ,30.2876 ,1.29692 ,2.83114 ,27.77910 
153 ,30.4957 ,1.29899 ,2.82429 ,27.71194 
154 ,30.7034 ,1.30106 ,2.80376 ,27.51047 
155 ,30.9118 ,1.30316 ,2.79691 ,27.44332 
156 ,31.1199 ,1.30524 ,2.76954 ,27.17469 
157 ,31.3119 ,1.30717 ,2.75243 ,27.00680 
158 ,31.4880 ,1.30903 ,2.72847 ,26.77175 
159 ,31.6801 ,1.31082 ,2.71136 ,26.60386 
160 ,31.8881 ,1.31292 ,2.70794 ,26.57028 
161 ,32.0803 ,1.31488 ,2.69425 ,26.43597 
162 ,32.2724 ,1.31679 ,2.68740 ,26.36881 
163 ,32.4645 ,1.31869 ,2.64292 ,25.93229 
164 ,32.6567 ,1.32060 ,2.64976 ,25.99945 
165 ,32.8647 ,1.32270 ,2.62923 ,25.79798 
166 ,33.0567 ,1.32460 ,2.61554 ,25.66367 
167 ,33.2646 ,1.32668 ,2.58132 ,25.32788 
168 ,33.4730 ,1.32871 ,2.60869 ,25.59651 
169 ,33.6810 ,1.33089 ,2.54367 ,24.95852 
170 ,33.8731 ,1.33276 ,2.55394 ,25.05926 
171 ,34.0652 ,1.33468 ,2.52656 ,24.79063 
172 ,34.2572 ,1.33661 ,2.52656 ,24.79063 
173 ,34.4495 ,1.33856 ,2.50603 ,24.58916 
174 ,34.6575 ,1.34057 ,2.49234 ,24.45485 
175 ,34.8498 ,1.34253 ,2.46496 ,24.18622 
176 ,35.0416 ,1.34448 ,2.46154 ,24.15264 
177 ,35.2498 ,1.34658 ,2.45127 ,24.05191 
178 ,35.4577 ,1.34863 ,2.43759 ,23.91759 
179 ,35.6657 ,1.35066 ,2.39994 ,23.54823 
180 ,35.8738 ,1.35274 ,2.42048 ,23.74970 
181 ,36.0659 ,1.35465 ,2.36572 ,23.21245 
182 ,36.2576 ,1.35656 ,2.36914 ,23.24603 
183 ,36.4657 ,1.35857 ,2.35203 ,23.07814 
184 ,36.6582 ,1.36060 ,2.33834 ,22.94382 
185 ,36.8663 ,1.36264 ,2.32123 ,22.77593 
186 ,37.0584 ,1.36464 ,2.31439 ,22.70877 
187 ,37.2663 ,1.36668 ,2.28359 ,22.40657 
188 ,37.4586 ,1.36865 ,2.29385 ,22.50731 
189 ,37.6667 ,1.37067 ,2.26306 ,22.20510 
190 ,37.8588 ,1.37261 ,2.25621 ,22.13794 
191 ,38.0670 ,1.37468 ,2.23910 ,21.97005 
192 ,38.2590 ,1.37665 ,2.22541 ,21.83574 
193 ,38.4507 ,1.37864 ,2.19119 ,21.49996 
194 ,38.6430 ,1.38048 ,2.19119 ,21.49996 
195 ,38.8514 ,1.38245 ,2.19461 ,21.53353 
196 ,39.0432 ,1.38447 ,2.15697 ,21.16417 
197 ,39.2352 ,1.38634 ,2.16039 ,21.19775 
198 ,39.4111 ,1.38825 ,2.12617 ,20.86197 
199 ,39.6035 ,1.39001 ,2.11590 ,20.76123 
200 ,39.7957 ,1.39197 ,2.12275 ,20.82839 
201 ,39.9876 ,1.39395 ,2.08852 ,20.49261 
202 ,40.1797 ,1.39578 ,2.08168 ,20.42545 
203 ,40.3718 ,1.39775 ,2.05088 ,20.12325 
204 ,40.5635 ,1.39963 ,2.05088 ,20.12325 
205 ,40.7560 ,1.40159 ,2.04061 ,20.02251 
206 ,40.9641 ,1.40364 ,2.01666 ,19.78746 
207 ,41.1560 ,1.40558 ,2.01666 ,19.78746 
208 ,41.3484 ,1.40756 ,1.98244 ,19.45168 
209 ,41.5560 ,1.40959 ,1.99613 ,19.58599 
210 ,41.7319 ,1.41148 ,1.96190 ,19.25021 
211 ,41.9244 ,1.41320 ,1.95506 ,19.18305 
212 ,42.1165 ,1.41514 ,1.94822 ,19.11590 
213 ,42.3086 ,1.41717 ,1.91399 ,18.78011 
214 ,42.5325 ,1.41921 ,1.91742 ,18.81369 
215 ,42.7406 ,1.42142 ,1.90031 ,18.64580 
216 ,42.9329 ,1.42338 ,1.87635 ,18.41075 
217 ,43.1409 ,1.42542 ,1.86608 ,18.31002 
218 ,43.3330 ,1.42728 ,1.85582 ,18.20928 
219 ,43.5571 ,1.42947 ,1.84897 ,18.14213 
220 ,43.7492 ,1.43152 ,1.80449 ,17.70561 
221 ,43.9411 ,1.43342 ,1.81817 ,17.83992 
222 ,44.1494 ,1.43536 ,1.77711 ,17.43698 
223 ,44.3571 ,1.43754 ,1.79764 ,17.63845 
224 ,44.5494 ,1.43944 ,1.76342 ,17.30267 
225 ,44.7415 ,1.44141 ,1.76000 ,17.26909 
226 ,44.9333 ,1.44333 ,1.74631 ,17.13478 
227 ,45.1256 ,1.44527 ,1.72578 ,16.93331 
228 ,45.3338 ,1.44729 ,1.70524 ,16.73184 
229 ,45.5257 ,1.44931 ,1.71209 ,16.79899 
230 ,45.7500 ,1.45142 ,1.67786 ,16.46321 
231 ,45.9420 ,1.45346 ,1.66075 ,16.29532 
232 ,46.1339 ,1.45531 ,1.65049 ,16.19458 
233 ,46.3260 ,1.45719 ,1.63680 ,16.06027 
234 ,46.5181 ,1.45920 ,1.63680 ,16.06027 
235 ,46.7262 ,1.46116 ,1.60258 ,15.72449 
236 ,46.9345 ,1.46336 ,1.59916 ,15.69091 
237 ,47.1261 ,1.46528 ,1.57178 ,15.42228 
238 ,47.3187 ,1.46720 ,1.58547 ,15.55660 
239 ,47.5107 ,1.46911 ,1.54440 ,15.15366 
240 ,47.7028 ,1.47101 ,1.53756 ,15.08650 
241 ,47.9108 ,1.47312 ,1.51702 ,14.88503 
242 ,48.1029 ,1.47494 ,1.54098 ,15.12008 
243 ,48.2948 ,1.47690 ,1.49649 ,14.68356 
244 ,48.4869 ,1.47879 ,1.49649 ,14.68356 
245 ,48.6790 ,1.48079 ,1.49649 ,14.68356 
246 ,48.8712 ,1.48271 ,1.45200 ,14.24704 
247 ,49.0792 ,1.48477 ,1.46227 ,14.34778 
248 ,49.2869 ,1.48682 ,1.43489 ,14.07915 
249 ,49.4635 ,1.48873 ,1.43489 ,14.07915 
250 ,49.6716 ,1.49063 ,1.40067 ,13.74337 
251 ,49.8795 ,1.49280 ,1.40067 ,13.74337 
252 ,50.0715 ,1.49468 ,1.36987 ,13.44116 
253 ,50.2795 ,1.49678 ,1.38356 ,13.57548 
254 ,50.4717 ,1.49866 ,1.32880 ,13.03822 
255 ,50.6640 ,1.50063 ,1.33907 ,13.13896 
256 ,50.8717 ,1.50268 ,1.32538 ,13.00465 
257 ,51.0801 ,1.50478 ,1.32880 ,13.03822 
258 ,51.2721 ,1.50670 ,1.29458 ,12.70244 
259 ,51.4959 ,1.50880 ,1.31169 ,12.87033 
260 ,51.6884 ,1.51090 ,1.26378 ,12.40024 
261 ,51.8963 ,1.51290 ,1.25009 ,12.26592 
262 ,52.0883 ,1.51484 ,1.23641 ,12.13161 
263 ,52.2967 ,1.51694 ,1.22956 ,12.06445 
264 ,52.4884 ,1.51883 ,1.20561 ,11.82941 
265 ,52.6806 ,1.52077 ,1.20561 ,11.82941 
266 ,52.8726 ,1.52269 ,1.19876 ,11.76225 
267 ,53.0649 ,1.52463 ,1.17823 ,11.56078 
268 ,53.2567 ,1.52648 ,1.16454 ,11.42647 
269 ,53.4491 ,1.52844 ,1.14058 ,11.19142 
270 ,53.6409 ,1.53040 ,1.15770 ,11.35931 
271 ,53.8333 ,1.53231 ,1.12347 ,11.02353 
272 ,54.0415 ,1.53435 ,1.12347 ,11.02353 
273 ,54.2335 ,1.53631 ,1.09610 ,10.75490 
274 ,54.4255 ,1.53820 ,1.09267 ,10.72132 
275 ,54.6174 ,1.54011 ,1.08583 ,10.65416 
276 ,54.8092 ,1.54208 ,1.05845 ,10.38554 
277 ,55.0016 ,1.54395 ,1.05503 ,10.35196 
278 ,55.1939 ,1.54591 ,1.04476 ,10.25123 
279 ,55.4180 ,1.54806 ,1.03450 ,10.15049 
280 ,55.6260 ,1.55026 ,1.01739 ,9.98260 
281 ,55.8176 ,1.55212 ,1.01396 ,9.94902 
282 ,56.0102 ,1.55408 ,0.97632 ,9.57966 
283 ,56.2341 ,1.55622 ,0.97290 ,9.54608 
284 ,56.4424 ,1.55827 ,0.95921 ,9.41177 
285 ,56.6500 ,1.56047 ,0.93525 ,9.17672 
286 ,56.8428 ,1.56238 ,0.95237 ,9.34461 
287 ,57.0506 ,1.56445 ,0.90788 ,8.90809 
288 ,57.2587 ,1.56648 ,0.90103 ,8.84094 
289 ,57.4505 ,1.56845 ,0.88050 ,8.63947 
290 ,57.6426 ,1.57037 ,0.88392 ,8.67305 
291 ,57.8345 ,1.57227 ,0.86681 ,8.50515 
292 ,58.0267 ,1.57418 ,0.83943 ,8.23653 
293 ,58.2188 ,1.57617 ,0.84286 ,8.27011 
294 ,58.4109 ,1.57807 ,0.82232 ,8.06864 
295 ,58.6029 ,1.57995 ,0.82232 ,8.06864 
296 ,58.7950 ,1.58186 ,0.80179 ,7.86717 
297 ,58.9711 ,1.58377 ,0.80179 ,7.86717 
298 ,59.1631 ,1.58553 ,0.78126 ,7.66570 
299 ,59.3712 ,1.58760 ,0.76415 ,7.49780 
300 ,59.5633 ,1.58958 ,0.76072 ,7.46423 
301 ,59.7555 ,1.59145 ,0.73677 ,7.22918 
302 ,59.9476 ,1.59343 ,0.72992 ,7.16202 
303 ,60.1395 ,1.59534 ,0.73335 ,7.19560 
304 ,60.3317 ,1.59722 ,0.69913 ,6.85982 
305 ,60.5237 ,1.59914 ,0.71281 ,6.99413 
306 ,60.7157 ,1.60107 ,0.68201 ,6.69193 
307 ,60.8918 ,1.60299 ,0.67517 ,6.62477 
308 ,61.0680 ,1.60475 ,0.66490 ,6.52403 
309 ,61.2600 ,1.60653 ,0.66148 ,6.49046 
310 ,61.4522 ,1.60847 ,0.63410 ,6.22183 
311 ,61.6442 ,1.61037 ,0.63753 ,6.25541 
312 ,61.8362 ,1.61226 ,0.61699 ,6.05394 
313 ,62.0283 ,1.61423 ,0.60330 ,5.91962 
314 ,62.2369 ,1.61625 ,0.61357 ,6.02036 
315 ,62.4604 ,1.61851 ,0.58962 ,5.78531 
316 ,62.6530 ,1.62045 ,0.56566 ,5.55026 
317 ,62.8610 ,1.62255 ,0.57935 ,5.68458 
318 ,63.0532 ,1.62448 ,0.53486 ,5.24806 
319 ,63.2770 ,1.62666 ,0.54171 ,5.31522 
320 ,63.4533 ,1.62860 ,0.50748 ,4.97943 
321 ,63.6454 ,1.63036 ,0.52117 ,5.11375 
322 ,63.8536 ,1.63248 ,0.49037 ,4.81154 
323 ,64.0455 ,1.63442 ,0.49037 ,4.81154 
324 ,64.2376 ,1.63627 ,0.47326 ,4.64365 
325 ,64.4296 ,1.63819 ,0.45957 ,4.50934 
326 ,64.6375 ,1.64032 ,0.44931 ,4.40860 
327 ,64.8297 ,1.64223 ,0.43562 ,4.27429 
328 ,65.0379 ,1.64433 ,0.43562 ,4.27429 
329 ,65.2138 ,1.64615 ,0.41509 ,4.07282 
330 ,65.4062 ,1.64797 ,0.40482 ,3.97208 
331 ,65.5980 ,1.64990 ,0.39113 ,3.83777 
332 ,65.7739 ,1.65172 ,0.39455 ,3.87135 
333 ,65.9660 ,1.65357 ,0.37402 ,3.66988 
334 ,66.1585 ,1.65555 ,0.36375 ,3.56914 
335 ,66.3825 ,1.65763 ,0.36375 ,3.56914 
336 ,66.6068 ,1.66000 ,0.34322 ,3.36767 
337 ,66.8144 ,1.66207 ,0.31926 ,3.13263 
338 ,67.0069 ,1.66399 ,0.31242 ,3.06547 
339 ,67.2310 ,1.66609 ,0.28847 ,2.83042 
340 ,67.4231 ,1.66816 ,0.30215 ,2.96473 
341 ,67.6311 ,1.67018 ,0.27135 ,2.66253 
342 ,67.8230 ,1.67214 ,0.27135 ,2.66253 
343 ,68.0152 ,1.67403 ,0.24740 ,2.42748 
344 ,68.2233 ,1.67616 ,0.26109 ,2.56179 
345 ,68.4154 ,1.67807 ,0.23371 ,2.29317 
346 ,68.6235 ,1.68012 ,0.23371 ,2.29317 
347 ,68.8155 ,1.68201 ,0.20976 ,2.05812 
348 ,68.9913 ,1.68390 ,0.20633 ,2.02454 
349 ,69.1838 ,1.68577 ,0.21318 ,2.09170 
350 ,69.4077 ,1.68788 ,0.17896 ,1.75592 
351 ,69.6320 ,1.69020 ,0.17553 ,1.72234 
352 ,69.8399 ,1.69235 ,0.16869 ,1.65518 
353 ,70.0320 ,1.69419 ,0.13105 ,1.28582 
354 ,70.2399 ,1.69633 ,0.15500 ,1.52087 
355 ,70.4323 ,1.69829 ,0.10367 ,1.01719 
356 ,70.6241 ,1.70012 ,0.12762 ,1.25224 
357 ,70.8483 ,1.70228 ,0.08314 ,0.81572 
358 ,71.0406 ,1.70432 ,0.08656 ,0.84930 
359 ,71.2321 ,1.70632 ,0.06945 ,0.68141 
360 ,71.4247 ,1.70814 ,0.06602 ,0.64783 
361 ,71.6328 ,1.71022 ,0.04549 ,0.44636 
362 ,71.8247 ,1.71216 ,0.04549 ,0.44636 
363 ,72.0168 ,1.71407 ,0.02838 ,0.27847 
364 ,72.2089 ,1.71592 ,0.03180 ,0.31205 
365 ,72.4170 ,1.71804 ,0.00100 ,0.00984 
366 ,72.6413 ,1.72028 ,0.00100 ,0.00984 
367 ,72.8493 ,1.72241 ,-0.02295 ,-0.22520 
368 ,73.0409 ,1.72433 ,-0.01953 ,-0.19163 
369 ,73.2331 ,1.72620 ,-0.03664 ,-0.35952 
370 ,73.4250 ,1.72811 ,-0.02637 ,-0.25878 
371 ,73.6175 ,1.73003 ,-0.05375 ,-0.52741 
372 ,73.8096 ,1.73203 ,-0.06744 ,-0.66172 
373 ,74.0017 ,1.73394 ,-0.06060 ,-0.59457 
374 ,74.1938 ,1.73585 ,-0.08113 ,-0.79604 
375 ,74.4018 ,1.73790 ,-0.08455 ,-0.82961 
376 ,74.5939 ,1.73978 ,-0.10851 ,-1.06466 
377 ,74.8020 ,1.74188 ,-0.10851 ,-1.06466 
378 ,74.9940 ,1.74382 ,-0.12904 ,-1.26613 
379 ,75.2020 ,1.74593 ,-0.11877 ,-1.16540 
380 ,75.3942 ,1.74781 ,-0.14957 ,-1.46760 
381 ,75.5857 ,1.74977 ,-0.13588 ,-1.33329 
382 ,75.7784 ,1.75168 ,-0.15984 ,-1.56834 
383 ,75.9862 ,1.75375 ,-0.16326 ,-1.60191 
384 ,76.1784 ,1.75568 ,-0.17011 ,-1.66907 
385 ,76.3864 ,1.75771 ,-0.18722 ,-1.83696 
386 ,76.5946 ,1.75981 ,-0.21802 ,-2.13917 
387 ,76.7865 ,1.76170 ,-0.21117 ,-2.07201 
388 ,76.9627 ,1.76364 ,-0.22144 ,-2.17275 
389 ,77.1547 ,1.76541 ,-0.24197 ,-2.37422 
390 ,77.3630 ,1.76749 ,-0.23170 ,-2.27348 
391 ,77.5547 ,1.76939 ,-0.25224 ,-2.47495 
392 ,77.7471 ,1.77134 ,-0.26250 ,-2.57569 
393 ,77.9551 ,1.77339 ,-0.27961 ,-2.74358 
394 ,78.1634 ,1.77551 ,-0.27961 ,-2.74358 
395 ,78.3714 ,1.77759 ,-0.30015 ,-2.94505 
396 ,78.5955 ,1.77965 ,-0.30357 ,-2.97863 
397 ,78.8035 ,1.78189 ,-0.31384 ,-3.07936 
398 ,78.9954 ,1.78377 ,-0.32752 ,-3.21367 
399 ,79.1875 ,1.78572 ,-0.34121 ,-3.34799 
400 ,79.3799 ,1.78769 ,-0.34121 ,-3.34799 
401 ,79.5720 ,1.78959 ,-0.36175 ,-3.54946 
402 ,79.7640 ,1.79153 ,-0.34806 ,-3.41514 
403 ,79.9716 ,1.79360 ,-0.37201 ,-3.65019 
404 ,80.1641 ,1.79553 ,-0.37544 ,-3.68377 
405 ,80.3722 ,1.79760 ,-0.39939 ,-3.91882 
406 ,80.5642 ,1.79950 ,-0.37886 ,-3.71735 
407 ,80.7560 ,1.80139 ,-0.41992 ,-4.12029 
408 ,80.9639 ,1.80346 ,-0.41308 ,-4.05313 
409 ,81.1559 ,1.80540 ,-0.44388 ,-4.35534 
410 ,81.3486 ,1.80733 ,-0.41992 ,-4.12029 
411 ,81.5725 ,1.80961 ,-0.46099 ,-4.52323 
412 ,81.7807 ,1.81168 ,-0.45414 ,-4.45607 
413 ,81.9727 ,1.81356 ,-0.47468 ,-4.65754 
414 ,82.1645 ,1.81546 ,-0.46783 ,-4.59038 
415 ,82.3569 ,1.81741 ,-0.49179 ,-4.82543 
416 ,82.5648 ,1.81948 ,-0.49179 ,-4.82543 
417 ,82.7571 ,1.82141 ,-0.50548 ,-4.95975 
418 ,82.9492 ,1.82336 ,-0.51232 ,-5.02690 
419 ,83.1567 ,1.82538 ,-0.52601 ,-5.16121 
420 ,83.3333 ,1.82728 ,-0.53628 ,-5.26195 
421 ,83.5253 ,1.82906 ,-0.53285 ,-5.22837 
422 ,83.7174 ,1.83098 ,-0.55339 ,-5.42984 
423 ,83.9096 ,1.83286 ,-0.56365 ,-5.53058 
424 ,84.1173 ,1.83498 ,-0.58077 ,-5.69847 
425 ,84.3097 ,1.83694 ,-0.57734 ,-5.66489 
426 ,84.5175 ,1.83906 ,-0.58077 ,-5.69847 
427 ,84.7098 ,1.84098 ,-0.59445 ,-5.83278 
428 ,84.9018 ,1.84286 ,-0.59445 ,-5.83278 
429 ,85.0940 ,1.84476 ,-0.63210 ,-6.20214 
430 ,85.3022 ,1.84684 ,-0.62525 ,-6.13499 
431 ,85.5099 ,1.84891 ,-0.64921 ,-6.37003 
432 ,85.7180 ,1.85092 ,-0.62868 ,-6.16856 
433 ,85.9264 ,1.85309 ,-0.63552 ,-6.23572 
434 ,86.1183 ,1.85503 ,-0.66290 ,-6.50435 
435 ,86.3265 ,1.85700 ,-0.66974 ,-6.57150 
436 ,86.5341 ,1.85916 ,-0.69712 ,-6.84013 
437 ,86.7267 ,1.86115 ,-0.68343 ,-6.70582 
438 ,86.9508 ,1.86319 ,-0.70739 ,-6.94086 
439 ,87.1431 ,1.86523 ,-0.70396 ,-6.90729 
440 ,87.3349 ,1.86716 ,-0.72450 ,-7.10876 
441 ,87.5267 ,1.86905 ,-0.71765 ,-7.04160 
442 ,87.7030 ,1.87101 ,-0.73818 ,-7.24307 
443 ,87.8951 ,1.87274 ,-0.75872 ,-7.44454 
444 ,88.1031 ,1.87481 ,-0.74503 ,-7.31023 
445 ,88.2790 ,1.87672 ,-0.77241 ,-7.57885 
446 ,88.4714 ,1.87850 ,-0.77241 ,-7.57885 
447 ,88.6792 ,1.88057 ,-0.79294 ,-7.78032 
448 ,88.8715 ,1.88258 ,-0.78267 ,-7.67959 
449 ,89.0793 ,1.88461 ,-0.79978 ,-7.84748 
450 ,89.2876 ,1.88668 ,-0.79636 ,-7.81390 
451 ,89.4956 ,1.88877 ,-0.82374 ,-8.08253 
452 ,89.6878 ,1.89065 ,-0.82374 ,-8.08253 
453 ,89.8634 ,1.89258 ,-0.82374 ,-8.08253 
454 ,90.0559 ,1.89436 ,-0.85112 ,-8.35115 
455 ,90.2640 ,1.89634 ,-0.84769 ,-8.31758 
456 ,90.4558 ,1.89839 ,-0.87507 ,-8.58620 
457 ,90.6481 ,1.90033 ,-0.85454 ,-8.38473 
458 ,90.8403 ,1.90220 ,-0.87849 ,-8.61978 
459 ,91.0323 ,1.90412 ,-0.88192 ,-8.65336 
460 ,91.2244 ,1.90603 ,-0.88876 ,-8.72051 
461 ,91.4325 ,1.90797 ,-0.91272 ,-8.95556 
462 ,91.6403 ,1.91023 ,-0.92640 ,-9.08988 
463 ,91.8323 ,1.91209 ,-0.91956 ,-9.02272 
