Data stamp = , 01-05-2022 12:59:03 726

Calibration Values: 
Slope = , 26.54 , g/V 
Offset Voltage at no contact = , -0.501760 , V 

No , Time , Stage Position ,   Mass , Force 
   ,  (s) ,      (mm)      ,   (g)  , (mN)  

1 ,0.0000 ,0.99945 ,5.40803 ,53.06356 
2 ,0.2136 ,0.99950 ,5.41829 ,53.16429 
3 ,0.8221 ,1.00188 ,5.40118 ,52.99640 
4 ,1.0463 ,1.00449 ,5.39092 ,52.89567 
5 ,1.2382 ,1.00654 ,5.41487 ,53.13072 
6 ,1.4305 ,1.00837 ,5.39776 ,52.96282 
7 ,1.6221 ,1.01036 ,5.37723 ,52.76135 
8 ,1.8146 ,1.01233 ,5.37038 ,52.69420 
9 ,2.0063 ,1.01425 ,5.34301 ,52.42557 
10 ,2.1989 ,1.01615 ,5.33616 ,52.35841 
11 ,2.4065 ,1.01822 ,5.29852 ,51.98905 
12 ,2.5829 ,1.02011 ,5.29510 ,51.95548 
13 ,2.7750 ,1.02188 ,5.28825 ,51.88832 
14 ,2.9831 ,1.02383 ,5.24718 ,51.48538 
15 ,3.1751 ,1.02590 ,5.24376 ,51.45180 
16 ,3.3672 ,1.02778 ,5.21296 ,51.14960 
17 ,3.5595 ,1.02973 ,5.20270 ,51.04886 
18 ,3.7671 ,1.03183 ,5.16848 ,50.71308 
19 ,3.9595 ,1.03380 ,5.14794 ,50.51161 
20 ,4.1675 ,1.03583 ,5.13425 ,50.37729 
21 ,4.3602 ,1.03774 ,5.11372 ,50.17583 
22 ,4.5995 ,1.04017 ,5.09661 ,50.00793 
23 ,4.8238 ,1.04225 ,5.05212 ,49.57142 
24 ,5.0158 ,1.04430 ,5.04528 ,49.50426 
25 ,5.2239 ,1.04638 ,5.03159 ,49.36995 
26 ,5.4160 ,1.04825 ,5.01448 ,49.20205 
27 ,5.6081 ,1.05021 ,4.98368 ,48.89985 
28 ,5.8004 ,1.05212 ,4.98368 ,48.89985 
29 ,6.0079 ,1.05422 ,4.94603 ,48.53049 
30 ,6.2164 ,1.05625 ,4.93919 ,48.46333 
31 ,6.4245 ,1.05835 ,4.91523 ,48.22828 
32 ,6.6166 ,1.06030 ,4.89470 ,48.02681 
33 ,6.8085 ,1.06224 ,4.87759 ,47.85892 
34 ,7.0008 ,1.06413 ,4.85706 ,47.65745 
35 ,7.1925 ,1.06606 ,4.82968 ,47.38883 
36 ,7.3849 ,1.06797 ,4.81599 ,47.25451 
37 ,7.5930 ,1.07002 ,4.79546 ,47.05304 
38 ,7.7851 ,1.07200 ,4.78861 ,46.98589 
39 ,7.9929 ,1.07406 ,4.76466 ,46.75084 
40 ,8.1850 ,1.07594 ,4.76124 ,46.71726 
41 ,8.3932 ,1.07807 ,4.71675 ,46.28074 
42 ,8.6013 ,1.08018 ,4.70990 ,46.21359 
43 ,8.8094 ,1.08221 ,4.68595 ,45.97854 
44 ,9.0335 ,1.08445 ,4.66542 ,45.77707 
45 ,9.2415 ,1.08655 ,4.65515 ,45.67633 
46 ,9.4337 ,1.08846 ,4.63804 ,45.50844 
47 ,9.6576 ,1.09063 ,4.62093 ,45.34055 
48 ,9.8659 ,1.09267 ,4.58328 ,44.97119 
49 ,10.0740 ,1.09484 ,4.57644 ,44.90403 
50 ,10.2498 ,1.09672 ,4.55933 ,44.73614 
51 ,10.4417 ,1.09850 ,4.56275 ,44.76972 
52 ,10.6341 ,1.10044 ,4.52853 ,44.43394 
53 ,10.8263 ,1.10241 ,4.50800 ,44.23247 
54 ,11.0500 ,1.10454 ,4.50457 ,44.19889 
55 ,11.2424 ,1.10658 ,4.47720 ,43.93026 
56 ,11.4505 ,1.10868 ,4.45666 ,43.72879 
57 ,11.6425 ,1.11056 ,4.44298 ,43.59448 
58 ,11.8505 ,1.11260 ,4.40191 ,43.19154 
59 ,12.0427 ,1.11453 ,4.40191 ,43.19154 
60 ,12.2509 ,1.11663 ,4.37453 ,42.92291 
61 ,12.4429 ,1.11853 ,4.36769 ,42.85576 
62 ,12.6185 ,1.12041 ,4.35400 ,42.72144 
63 ,12.8428 ,1.12248 ,4.33004 ,42.48639 
64 ,13.0352 ,1.12446 ,4.30609 ,42.25135 
65 ,13.2272 ,1.12641 ,4.28213 ,42.01630 
66 ,13.4192 ,1.12831 ,4.27871 ,41.98272 
67 ,13.6115 ,1.13019 ,4.24791 ,41.68051 
68 ,13.8195 ,1.13229 ,4.24107 ,41.61336 
69 ,14.0275 ,1.13436 ,4.22396 ,41.44547 
70 ,14.2356 ,1.13647 ,4.20342 ,41.24400 
71 ,14.4277 ,1.13838 ,4.17947 ,41.00895 
72 ,14.6199 ,1.14030 ,4.17947 ,41.00895 
73 ,14.8114 ,1.14221 ,4.13840 ,40.60601 
74 ,15.0038 ,1.14409 ,4.13840 ,40.60601 
75 ,15.1957 ,1.14602 ,4.10760 ,40.30380 
76 ,15.3880 ,1.14799 ,4.10076 ,40.23665 
77 ,15.5962 ,1.14995 ,4.08707 ,40.10233 
78 ,15.7881 ,1.15198 ,4.06312 ,39.86729 
79 ,15.9963 ,1.15399 ,4.04258 ,39.66582 
80 ,16.2043 ,1.15609 ,4.03232 ,39.56508 
81 ,16.3965 ,1.15806 ,4.01178 ,39.36361 
82 ,16.6047 ,1.16017 ,4.00152 ,39.26288 
83 ,16.7967 ,1.16209 ,3.97756 ,39.02783 
84 ,17.0206 ,1.16428 ,3.96387 ,38.89352 
85 ,17.2289 ,1.16634 ,3.93992 ,38.65847 
86 ,17.4208 ,1.16829 ,3.91938 ,38.45700 
87 ,17.6128 ,1.17018 ,3.89885 ,38.25553 
88 ,17.8050 ,1.17212 ,3.88858 ,38.15479 
89 ,17.9970 ,1.17405 ,3.87147 ,37.98690 
90 ,18.1892 ,1.17596 ,3.84410 ,37.71828 
91 ,18.3974 ,1.17807 ,3.83725 ,37.65112 
92 ,18.6055 ,1.18017 ,3.82356 ,37.51681 
93 ,18.8133 ,1.18218 ,3.79276 ,37.21460 
94 ,19.0056 ,1.18416 ,3.79961 ,37.28176 
95 ,19.2135 ,1.18617 ,3.75512 ,36.84524 
96 ,19.4055 ,1.18813 ,3.75854 ,36.87882 
97 ,19.6138 ,1.19021 ,3.73117 ,36.61019 
98 ,19.8060 ,1.19218 ,3.72432 ,36.54303 
99 ,19.9980 ,1.19410 ,3.68325 ,36.14010 
100 ,20.2057 ,1.19613 ,3.68325 ,36.14010 
101 ,20.3980 ,1.19807 ,3.65588 ,35.87147 
102 ,20.6060 ,1.20015 ,3.65246 ,35.83789 
103 ,20.8142 ,1.20210 ,3.62508 ,35.56926 
104 ,21.0064 ,1.20415 ,3.62166 ,35.53569 
105 ,21.2142 ,1.20623 ,3.56348 ,34.96485 
106 ,21.4225 ,1.20831 ,3.58059 ,35.13275 
107 ,21.6146 ,1.21025 ,3.56348 ,34.96485 
108 ,22.0147 ,1.21318 ,3.53952 ,34.72981 
109 ,22.2228 ,1.21632 ,3.51557 ,34.49476 
110 ,22.4145 ,1.21820 ,3.47792 ,34.12540 
111 ,22.6071 ,1.22013 ,3.49161 ,34.25971 
112 ,22.7990 ,1.22222 ,3.46424 ,33.99108 
113 ,22.9912 ,1.22395 ,3.45397 ,33.89035 
114 ,23.1833 ,1.22588 ,3.44370 ,33.78961 
115 ,23.3752 ,1.22786 ,3.39921 ,33.35310 
116 ,23.5835 ,1.22986 ,3.39921 ,33.35310 
117 ,23.7914 ,1.23198 ,3.36499 ,33.01731 
118 ,23.9837 ,1.23392 ,3.37184 ,33.08447 
119 ,24.1757 ,1.23583 ,3.34104 ,32.78227 
120 ,24.3683 ,1.23771 ,3.33077 ,32.68153 
121 ,24.5595 ,1.23970 ,3.31366 ,32.51364 
122 ,24.7520 ,1.24158 ,3.29655 ,32.34575 
123 ,24.9601 ,1.24365 ,3.26917 ,32.07712 
124 ,25.1522 ,1.24557 ,3.25891 ,31.97639 
125 ,25.3442 ,1.24752 ,3.26233 ,32.00996 
126 ,25.5523 ,1.24952 ,3.22468 ,31.64060 
127 ,25.7924 ,1.25184 ,3.20415 ,31.43913 
128 ,26.0006 ,1.25408 ,3.19046 ,31.30482 
129 ,26.1926 ,1.25595 ,3.18020 ,31.20409 
130 ,26.4003 ,1.25805 ,3.15966 ,31.00262 
131 ,26.5926 ,1.25996 ,3.14940 ,30.90188 
132 ,26.7844 ,1.26188 ,3.13571 ,30.76757 
133 ,26.9768 ,1.26380 ,3.10149 ,30.43178 
134 ,27.1690 ,1.26574 ,3.10833 ,30.49894 
135 ,27.3615 ,1.26768 ,3.07753 ,30.19674 
136 ,27.5693 ,1.26974 ,3.08438 ,30.26389 
137 ,27.7772 ,1.27182 ,3.04673 ,29.89453 
138 ,27.9694 ,1.27382 ,3.03989 ,29.82737 
139 ,28.1772 ,1.27584 ,3.00909 ,29.52517 
140 ,28.3694 ,1.27772 ,3.01251 ,29.55875 
141 ,28.5613 ,1.27966 ,2.99198 ,29.35728 
142 ,28.7536 ,1.28157 ,2.97487 ,29.18939 
143 ,28.9452 ,1.28349 ,2.96460 ,29.08865 
144 ,29.1376 ,1.28542 ,2.93722 ,28.82003 
145 ,29.3296 ,1.28734 ,2.93722 ,28.82003 
146 ,29.5217 ,1.28927 ,2.90300 ,28.48424 
147 ,29.7301 ,1.29132 ,2.89616 ,28.41709 
148 ,29.9218 ,1.29325 ,2.88247 ,28.28277 
149 ,30.1139 ,1.29518 ,2.87905 ,28.24919 
150 ,30.3058 ,1.29711 ,2.82771 ,27.74552 
151 ,30.4984 ,1.29902 ,2.81402 ,27.61121 
152 ,30.6900 ,1.30090 ,2.82771 ,27.74552 
153 ,30.8986 ,1.30304 ,2.79007 ,27.37616 
154 ,31.1061 ,1.30511 ,2.79691 ,27.44332 
155 ,31.2988 ,1.30703 ,2.76954 ,27.17469 
156 ,31.4908 ,1.30907 ,2.76269 ,27.10753 
157 ,31.6828 ,1.31087 ,2.74216 ,26.90606 
158 ,31.8910 ,1.31292 ,2.73189 ,26.80533 
159 ,32.0991 ,1.31504 ,2.69767 ,26.46954 
160 ,32.3072 ,1.31708 ,2.69767 ,26.46954 
161 ,32.4992 ,1.31899 ,2.67029 ,26.20092 
162 ,32.6916 ,1.32095 ,2.69083 ,26.40239 
163 ,32.8834 ,1.32285 ,2.63607 ,25.86514 
164 ,33.1075 ,1.32499 ,2.64292 ,25.93229 
165 ,33.3152 ,1.32718 ,2.60527 ,25.56293 
166 ,33.5076 ,1.32907 ,2.61212 ,25.63009 
167 ,33.7635 ,1.33142 ,2.58474 ,25.36146 
168 ,33.9556 ,1.33359 ,2.56763 ,25.19357 
169 ,34.1480 ,1.33551 ,2.56078 ,25.12641 
170 ,34.3398 ,1.33744 ,2.53341 ,24.85779 
171 ,34.5320 ,1.33938 ,2.54025 ,24.92494 
172 ,34.7401 ,1.34140 ,2.49918 ,24.52200 
173 ,34.9320 ,1.34337 ,2.49918 ,24.52200 
174 ,35.1241 ,1.34527 ,2.48207 ,24.35411 
175 ,35.3164 ,1.34720 ,2.46154 ,24.15264 
176 ,35.5080 ,1.34920 ,2.44101 ,23.95117 
177 ,35.7006 ,1.35102 ,2.42390 ,23.78328 
178 ,35.8925 ,1.35293 ,2.41705 ,23.71612 
179 ,36.1009 ,1.35503 ,2.38625 ,23.41392 
180 ,36.2928 ,1.35694 ,2.39652 ,23.51465 
181 ,36.5007 ,1.35908 ,2.37599 ,23.31318 
182 ,36.6925 ,1.36096 ,2.35888 ,23.14529 
183 ,36.9169 ,1.36318 ,2.33834 ,22.94382 
184 ,37.1090 ,1.36509 ,2.33834 ,22.94382 
185 ,37.3010 ,1.36704 ,2.29043 ,22.47373 
186 ,37.4933 ,1.36891 ,2.30070 ,22.57446 
187 ,37.6689 ,1.37085 ,2.26648 ,22.23868 
188 ,37.8615 ,1.37265 ,2.25963 ,22.17152 
189 ,38.0535 ,1.37458 ,2.26648 ,22.23868 
190 ,38.2613 ,1.37655 ,2.22883 ,21.86932 
191 ,38.4537 ,1.37854 ,2.23226 ,21.90290 
192 ,38.6455 ,1.38048 ,2.21172 ,21.70143 
193 ,38.8538 ,1.38256 ,2.20488 ,21.63427 
194 ,39.0456 ,1.38450 ,2.17066 ,21.29849 
195 ,39.2379 ,1.38637 ,2.17750 ,21.36564 
196 ,39.4301 ,1.38828 ,2.16723 ,21.26491 
197 ,39.6221 ,1.39023 ,2.12959 ,20.89555 
198 ,39.8139 ,1.39216 ,2.13301 ,20.92912 
199 ,40.0064 ,1.39405 ,2.10221 ,20.62692 
200 ,40.1983 ,1.39597 ,2.09879 ,20.59334 
201 ,40.3906 ,1.39791 ,2.08168 ,20.42545 
202 ,40.5825 ,1.39981 ,2.06457 ,20.25756 
203 ,40.7907 ,1.40191 ,2.05773 ,20.19040 
204 ,40.9667 ,1.40377 ,2.02350 ,19.85462 
205 ,41.1589 ,1.40559 ,2.03035 ,19.92178 
206 ,41.3510 ,1.40753 ,2.02693 ,19.88820 
207 ,41.5269 ,1.40938 ,1.98586 ,19.48526 
208 ,41.7188 ,1.41116 ,1.98586 ,19.48526 
209 ,41.9112 ,1.41309 ,1.98244 ,19.45168 
210 ,42.1191 ,1.41521 ,1.94822 ,19.11590 
211 ,42.3273 ,1.41725 ,1.93453 ,18.98158 
212 ,42.5195 ,1.41918 ,1.92426 ,18.88085 
213 ,42.7434 ,1.42128 ,1.91399 ,18.78011 
214 ,42.9355 ,1.42332 ,1.90031 ,18.64580 
215 ,43.1277 ,1.42524 ,1.88662 ,18.51149 
216 ,43.3197 ,1.42717 ,1.85924 ,18.24286 
217 ,43.5118 ,1.42908 ,1.86608 ,18.31002 
218 ,43.7039 ,1.43107 ,1.84213 ,18.07497 
219 ,43.8961 ,1.43298 ,1.83528 ,18.00781 
220 ,44.1036 ,1.43501 ,1.81475 ,17.80634 
221 ,44.2962 ,1.43695 ,1.80791 ,17.73919 
222 ,44.5037 ,1.43905 ,1.78395 ,17.50414 
223 ,44.6957 ,1.44098 ,1.78053 ,17.47056 
224 ,44.9203 ,1.44307 ,1.73604 ,17.03404 
225 ,45.1766 ,1.44578 ,1.74289 ,17.10120 
226 ,45.3846 ,1.44786 ,1.71551 ,16.83257 
227 ,45.5928 ,1.44987 ,1.71551 ,16.83257 
228 ,45.8009 ,1.45200 ,1.69155 ,16.59752 
229 ,46.0089 ,1.45406 ,1.67786 ,16.46321 
230 ,46.2011 ,1.45600 ,1.66760 ,16.36248 
231 ,46.3928 ,1.45791 ,1.67102 ,16.39605 
232 ,46.5852 ,1.45984 ,1.62995 ,15.99311 
233 ,46.7611 ,1.46172 ,1.62995 ,15.99311 
234 ,46.9532 ,1.46347 ,1.62311 ,15.92596 
235 ,47.1614 ,1.46559 ,1.59916 ,15.69091 
236 ,47.3534 ,1.46750 ,1.59231 ,15.62375 
237 ,47.5456 ,1.46946 ,1.56493 ,15.35513 
238 ,47.7533 ,1.47148 ,1.57862 ,15.48944 
239 ,47.9457 ,1.47341 ,1.53071 ,15.01934 
240 ,48.1536 ,1.47547 ,1.54782 ,15.18724 
241 ,48.3458 ,1.47739 ,1.49991 ,14.71714 
242 ,48.5379 ,1.47948 ,1.51018 ,14.81787 
243 ,48.7296 ,1.48124 ,1.48622 ,14.58283 
244 ,48.9541 ,1.48340 ,1.47938 ,14.51567 
245 ,49.1620 ,1.48557 ,1.45542 ,14.28062 
246 ,49.3543 ,1.48745 ,1.45885 ,14.31420 
247 ,49.5461 ,1.48949 ,1.43147 ,14.04557 
248 ,49.7544 ,1.49153 ,1.42805 ,14.01199 
249 ,49.9624 ,1.49356 ,1.40751 ,13.81053 
250 ,50.1544 ,1.49554 ,1.41094 ,13.84410 
251 ,50.3626 ,1.49746 ,1.37329 ,13.47474 
252 ,50.5387 ,1.49948 ,1.37671 ,13.50832 
253 ,50.7303 ,1.50122 ,1.36645 ,13.40759 
254 ,50.9228 ,1.50315 ,1.34934 ,13.23969 
255 ,51.1470 ,1.50532 ,1.33565 ,13.10538 
256 ,51.3391 ,1.50736 ,1.33223 ,13.07180 
257 ,51.5631 ,1.50950 ,1.30143 ,12.76960 
258 ,51.7868 ,1.51170 ,1.29116 ,12.66886 
259 ,51.9793 ,1.51376 ,1.28089 ,12.56813 
260 ,52.1873 ,1.51583 ,1.25009 ,12.26592 
261 ,52.3795 ,1.51774 ,1.24667 ,12.23235 
262 ,52.5876 ,1.51982 ,1.23641 ,12.13161 
263 ,52.7797 ,1.52178 ,1.22956 ,12.06445 
264 ,52.9878 ,1.52383 ,1.21245 ,11.89656 
265 ,53.1959 ,1.52590 ,1.20218 ,11.79583 
266 ,53.3879 ,1.52781 ,1.17138 ,11.49362 
267 ,53.5800 ,1.52973 ,1.16454 ,11.42647 
268 ,53.7719 ,1.53170 ,1.16454 ,11.42647 
269 ,53.9638 ,1.53358 ,1.14058 ,11.19142 
270 ,54.1562 ,1.53551 ,1.14058 ,11.19142 
271 ,54.3649 ,1.53762 ,1.10979 ,10.88921 
272 ,54.5885 ,1.53970 ,1.10636 ,10.85563 
273 ,54.7803 ,1.54176 ,1.09610 ,10.75490 
274 ,54.9726 ,1.54365 ,1.08241 ,10.62059 
275 ,55.1804 ,1.54574 ,1.07556 ,10.55343 
276 ,55.3888 ,1.54788 ,1.04134 ,10.21765 
277 ,55.5807 ,1.54973 ,1.04819 ,10.28480 
278 ,55.7730 ,1.55167 ,1.01396 ,9.94902 
279 ,55.9809 ,1.55374 ,1.03108 ,10.11691 
280 ,56.1887 ,1.55574 ,1.00370 ,9.84829 
281 ,56.3808 ,1.55770 ,0.99001 ,9.71397 
282 ,56.5729 ,1.55963 ,0.97290 ,9.54608 
283 ,56.7492 ,1.56154 ,0.94894 ,9.31103 
284 ,56.9413 ,1.56337 ,0.94552 ,9.27745 
285 ,57.1334 ,1.56527 ,0.94210 ,9.24388 
286 ,57.3412 ,1.56734 ,0.92157 ,9.04241 
287 ,57.5335 ,1.56926 ,0.90103 ,8.84094 
288 ,57.7737 ,1.57161 ,0.89419 ,8.77378 
289 ,57.9659 ,1.57361 ,0.87366 ,8.57231 
290 ,58.1734 ,1.57566 ,0.88050 ,8.63947 
291 ,58.3658 ,1.57756 ,0.84970 ,8.33726 
292 ,58.5581 ,1.57952 ,0.85997 ,8.43800 
293 ,58.7501 ,1.58145 ,0.82917 ,8.13579 
294 ,58.9582 ,1.58350 ,0.83943 ,8.23653 
295 ,59.1502 ,1.58546 ,0.78810 ,7.73285 
296 ,59.3582 ,1.58753 ,0.81548 ,8.00148 
297 ,59.5503 ,1.58944 ,0.77099 ,7.56496 
298 ,59.7585 ,1.59151 ,0.77784 ,7.63212 
299 ,59.9506 ,1.59343 ,0.75388 ,7.39707 
300 ,60.1425 ,1.59532 ,0.76072 ,7.46423 
301 ,60.3347 ,1.59728 ,0.72992 ,7.16202 
302 ,60.5262 ,1.59919 ,0.72650 ,7.12844 
303 ,60.7187 ,1.60113 ,0.71966 ,7.06129 
304 ,60.9429 ,1.60331 ,0.69913 ,6.85982 
305 ,61.1350 ,1.60528 ,0.67859 ,6.65835 
306 ,61.3430 ,1.60738 ,0.68544 ,6.72550 
307 ,61.5348 ,1.60927 ,0.66490 ,6.52403 
308 ,61.7272 ,1.61120 ,0.65121 ,6.38972 
309 ,61.9354 ,1.61324 ,0.63068 ,6.18825 
310 ,62.1272 ,1.61518 ,0.62726 ,6.15467 
311 ,62.3195 ,1.61713 ,0.61357 ,6.02036 
312 ,62.5112 ,1.61899 ,0.59304 ,5.81889 
313 ,62.7030 ,1.62093 ,0.59988 ,5.88605 
314 ,62.8953 ,1.62286 ,0.57935 ,5.68458 
315 ,63.0878 ,1.62477 ,0.56908 ,5.58384 
316 ,63.2796 ,1.62669 ,0.56566 ,5.55026 
317 ,63.4715 ,1.62861 ,0.53144 ,5.21448 
318 ,63.6638 ,1.63051 ,0.53486 ,5.24806 
319 ,63.9683 ,1.63315 ,0.51433 ,5.04659 
320 ,64.1764 ,1.63571 ,0.49722 ,4.87870 
321 ,64.3683 ,1.63759 ,0.49722 ,4.87870 
322 ,64.5605 ,1.63949 ,0.49037 ,4.81154 
323 ,64.7524 ,1.64146 ,0.45273 ,4.44218 
324 ,64.9446 ,1.64332 ,0.46642 ,4.57649 
325 ,65.1367 ,1.64529 ,0.44246 ,4.34144 
326 ,65.3287 ,1.64720 ,0.43562 ,4.27429 
327 ,65.5207 ,1.64908 ,0.43220 ,4.24071 
328 ,65.7289 ,1.65118 ,0.41509 ,4.07282 
329 ,65.9206 ,1.65306 ,0.40140 ,3.93850 
330 ,66.1130 ,1.65501 ,0.39113 ,3.83777 
331 ,66.3211 ,1.65714 ,0.38086 ,3.73703 
332 ,66.5132 ,1.65902 ,0.36375 ,3.56914 
333 ,66.7373 ,1.66116 ,0.36033 ,3.53557 
334 ,66.9295 ,1.66323 ,0.34322 ,3.36767 
335 ,67.1374 ,1.66521 ,0.31926 ,3.13263 
336 ,67.3295 ,1.66721 ,0.32269 ,3.16620 
337 ,67.5213 ,1.66906 ,0.31926 ,3.13263 
338 ,67.7136 ,1.67097 ,0.29189 ,2.86400 
339 ,67.9057 ,1.67298 ,0.29189 ,2.86400 
340 ,68.0977 ,1.67491 ,0.27820 ,2.72969 
341 ,68.3058 ,1.67692 ,0.28504 ,2.79684 
342 ,68.5139 ,1.67905 ,0.25767 ,2.52822 
343 ,68.7219 ,1.68107 ,0.24398 ,2.39390 
344 ,68.9303 ,1.68317 ,0.24398 ,2.39390 
345 ,69.1219 ,1.68512 ,0.22687 ,2.22601 
346 ,69.3304 ,1.68714 ,0.21318 ,2.09170 
347 ,69.5225 ,1.68909 ,0.19949 ,1.95738 
348 ,69.7305 ,1.69117 ,0.18922 ,1.85665 
349 ,69.9226 ,1.69311 ,0.17553 ,1.72234 
350 ,70.1307 ,1.69518 ,0.17553 ,1.72234 
351 ,70.3064 ,1.69705 ,0.16527 ,1.62160 
352 ,70.4990 ,1.69890 ,0.14131 ,1.38655 
353 ,70.7230 ,1.70101 ,0.15158 ,1.48729 
354 ,70.9151 ,1.70305 ,0.11736 ,1.15151 
355 ,71.1231 ,1.70498 ,0.13105 ,1.28582 
356 ,71.3152 ,1.70702 ,0.10025 ,0.98361 
357 ,71.5070 ,1.70894 ,0.09682 ,0.95004 
358 ,71.6995 ,1.71086 ,0.07287 ,0.71499 
359 ,71.9235 ,1.71301 ,0.07629 ,0.74857 
360 ,72.1314 ,1.71519 ,0.06945 ,0.68141 
361 ,72.3237 ,1.71709 ,0.05234 ,0.51352 
362 ,72.5317 ,1.71916 ,0.03865 ,0.37920 
363 ,72.7235 ,1.72113 ,0.02496 ,0.24489 
364 ,72.9478 ,1.72339 ,0.02496 ,0.24489 
365 ,73.1560 ,1.72548 ,0.02154 ,0.21131 
366 ,73.3481 ,1.72736 ,-0.00584 ,-0.05731 
367 ,73.5398 ,1.72927 ,-0.02295 ,-0.22520 
368 ,73.7321 ,1.73120 ,-0.01611 ,-0.15805 
369 ,73.9404 ,1.73327 ,-0.04348 ,-0.42667 
370 ,74.1323 ,1.73518 ,-0.03664 ,-0.35952 
371 ,74.3405 ,1.73725 ,-0.06744 ,-0.66172 
372 ,74.5485 ,1.73937 ,-0.05717 ,-0.56099 
373 ,74.7405 ,1.74121 ,-0.08455 ,-0.82961 
374 ,74.9325 ,1.74315 ,-0.06402 ,-0.62814 
375 ,75.1248 ,1.74510 ,-0.10508 ,-1.03108 
376 ,75.3169 ,1.74704 ,-0.09482 ,-0.93035 
377 ,75.5250 ,1.74913 ,-0.11535 ,-1.13182 
378 ,75.7168 ,1.75106 ,-0.12562 ,-1.23255 
379 ,75.9572 ,1.75344 ,-0.13931 ,-1.36687 
380 ,76.1652 ,1.75548 ,-0.15299 ,-1.50118 
381 ,76.3573 ,1.75742 ,-0.15984 ,-1.56834 
382 ,76.5493 ,1.75936 ,-0.15299 ,-1.50118 
383 ,76.7414 ,1.76122 ,-0.19064 ,-1.87054 
384 ,76.9175 ,1.76313 ,-0.18379 ,-1.80338 
385 ,77.1096 ,1.76494 ,-0.18379 ,-1.80338 
386 ,77.3017 ,1.76688 ,-0.21459 ,-2.10559 
387 ,77.5097 ,1.76895 ,-0.21802 ,-2.13917 
388 ,77.7179 ,1.77099 ,-0.21117 ,-2.07201 
389 ,77.9255 ,1.77310 ,-0.25224 ,-2.47495 
390 ,78.1180 ,1.77504 ,-0.23855 ,-2.34064 
391 ,78.3419 ,1.77715 ,-0.26935 ,-2.64284 
392 ,78.5341 ,1.77918 ,-0.25908 ,-2.54211 
393 ,78.7420 ,1.78128 ,-0.28304 ,-2.77716 
394 ,78.9504 ,1.78323 ,-0.28304 ,-2.77716 
395 ,79.1744 ,1.78554 ,-0.28304 ,-2.77716 
396 ,79.3825 ,1.78772 ,-0.30357 ,-2.97863 
397 ,79.5906 ,1.78972 ,-0.32752 ,-3.21367 
398 ,79.7986 ,1.79185 ,-0.31384 ,-3.07936 
399 ,79.9908 ,1.79371 ,-0.34121 ,-3.34799 
400 ,80.1828 ,1.79562 ,-0.35148 ,-3.44872 
401 ,80.4070 ,1.79782 ,-0.35148 ,-3.44872 
402 ,80.5990 ,1.79985 ,-0.36175 ,-3.54946 
403 ,80.8230 ,1.80196 ,-0.38228 ,-3.75093 
404 ,81.0150 ,1.80397 ,-0.38228 ,-3.75093 
405 ,81.2068 ,1.80593 ,-0.40966 ,-4.01955 
406 ,81.3992 ,1.80784 ,-0.39939 ,-3.91882 
407 ,81.5914 ,1.80969 ,-0.41308 ,-4.05313 
408 ,81.7832 ,1.81164 ,-0.42335 ,-4.15387 
409 ,81.9757 ,1.81364 ,-0.43703 ,-4.28818 
410 ,82.1678 ,1.81552 ,-0.44730 ,-4.38891 
411 ,82.3757 ,1.81759 ,-0.44046 ,-4.32176 
412 ,82.5838 ,1.81970 ,-0.48152 ,-4.72470 
413 ,82.7918 ,1.82173 ,-0.47468 ,-4.65754 
414 ,82.9839 ,1.82369 ,-0.48152 ,-4.72470 
415 ,83.1919 ,1.82573 ,-0.50890 ,-4.99332 
416 ,83.3837 ,1.82767 ,-0.50206 ,-4.92617 
417 ,83.5923 ,1.82967 ,-0.51917 ,-5.09406 
418 ,83.8004 ,1.83183 ,-0.51232 ,-5.02690 
419 ,84.0084 ,1.83390 ,-0.53628 ,-5.26195 
420 ,84.2161 ,1.83594 ,-0.53285 ,-5.22837 
421 ,84.4243 ,1.83799 ,-0.56365 ,-5.53058 
422 ,84.6328 ,1.84014 ,-0.56365 ,-5.53058 
423 ,84.8407 ,1.84220 ,-0.56023 ,-5.49700 
424 ,85.0485 ,1.84427 ,-0.59445 ,-5.83278 
425 ,85.2569 ,1.84636 ,-0.58077 ,-5.69847 
426 ,85.4489 ,1.84836 ,-0.59788 ,-5.86636 
427 ,85.6409 ,1.85021 ,-0.59103 ,-5.79920 
428 ,85.8332 ,1.85215 ,-0.63894 ,-6.26930 
429 ,86.0252 ,1.85414 ,-0.62525 ,-6.13499 
430 ,86.2333 ,1.85612 ,-0.63552 ,-6.23572 
431 ,86.4254 ,1.85809 ,-0.64236 ,-6.30288 
432 ,86.6171 ,1.86006 ,-0.65605 ,-6.43719 
433 ,86.8095 ,1.86193 ,-0.66974 ,-6.57150 
434 ,87.0176 ,1.86401 ,-0.66290 ,-6.50435 
435 ,87.2096 ,1.86588 ,-0.69027 ,-6.77297 
436 ,87.4019 ,1.86781 ,-0.67659 ,-6.63866 
437 ,87.6098 ,1.86994 ,-0.69712 ,-6.84013 
438 ,87.8336 ,1.87200 ,-0.69712 ,-6.84013 
439 ,88.0419 ,1.87411 ,-0.70739 ,-6.94086 
440 ,88.2501 ,1.87630 ,-0.72450 ,-7.10876 
441 ,88.4582 ,1.87831 ,-0.74503 ,-7.31023 
442 ,88.6503 ,1.88032 ,-0.74503 ,-7.31023 
443 ,88.8420 ,1.88223 ,-0.73818 ,-7.24307 
444 ,89.0345 ,1.88415 ,-0.76556 ,-7.51170 
445 ,89.2424 ,1.88619 ,-0.76214 ,-7.47812 
446 ,89.4507 ,1.88822 ,-0.77925 ,-7.64601 
447 ,89.6588 ,1.89039 ,-0.78267 ,-7.67959 
448 ,89.8506 ,1.89230 ,-0.79636 ,-7.81390 
449 ,90.0427 ,1.89424 ,-0.79294 ,-7.78032 
450 ,90.2509 ,1.89627 ,-0.81347 ,-7.98179 
451 ,90.4430 ,1.89820 ,-0.80663 ,-7.91464 
452 ,90.6508 ,1.90030 ,-0.83058 ,-8.14968 
453 ,90.8429 ,1.90221 ,-0.83401 ,-8.18326 
454 ,91.0349 ,1.90418 ,-0.85796 ,-8.41831 
455 ,91.2434 ,1.90621 ,-0.84769 ,-8.31758 
456 ,91.4354 ,1.90810 ,-0.87849 ,-8.61978 
457 ,91.6435 ,1.91021 ,-0.86138 ,-8.45189 
458 ,91.8354 ,1.91212 ,-0.88534 ,-8.68694 
459 ,92.0435 ,1.91414 ,-0.89560 ,-8.78767 
460 ,92.2355 ,1.91613 ,-0.90929 ,-8.92198 
461 ,92.4600 ,1.91826 ,-0.92298 ,-9.05630 
462 ,92.6520 ,1.92033 ,-0.91272 ,-8.95556 
463 ,92.8602 ,1.92241 ,-0.92983 ,-9.12345 
