Data stamp = , 29-04-2022 17:57:12 507

Calibration Values: 
Slope = , 26.54 , g/V 
Offset Voltage at no contact = , -0.501760 , V 

No , Time , Stage Position ,   Mass , Force 
   ,  (s) ,      (mm)      ,   (g)  , (mN)  

1 ,0.0000 ,0.99950 ,5.40803 ,53.06356 
2 ,0.2116 ,0.99959 ,5.42172 ,53.19787 
3 ,0.8041 ,1.00184 ,5.42514 ,53.23145 
4 ,1.0121 ,1.00429 ,5.40803 ,53.06356 
5 ,1.2204 ,1.00635 ,5.39776 ,52.96282 
6 ,1.4125 ,1.00831 ,5.41487 ,53.13072 
7 ,1.6205 ,1.01042 ,5.37381 ,52.72778 
8 ,1.8288 ,1.01246 ,5.37381 ,52.72778 
9 ,2.0369 ,1.01465 ,5.33616 ,52.35841 
10 ,2.2448 ,1.01670 ,5.33274 ,52.32484 
11 ,2.4530 ,1.01873 ,5.29167 ,51.92190 
12 ,2.6608 ,1.02083 ,5.27798 ,51.78758 
13 ,2.8531 ,1.02280 ,5.27456 ,51.75401 
14 ,3.0609 ,1.02482 ,5.24034 ,51.41822 
15 ,3.2690 ,1.02682 ,5.23007 ,51.31749 
16 ,3.4609 ,1.02882 ,5.20270 ,51.04886 
17 ,3.6534 ,1.03074 ,5.20270 ,51.04886 
18 ,3.8450 ,1.03269 ,5.17190 ,50.74666 
19 ,4.0378 ,1.03463 ,5.14110 ,50.44445 
20 ,4.2458 ,1.03672 ,5.13083 ,50.34372 
21 ,4.4377 ,1.03864 ,5.11030 ,50.14225 
22 ,4.6301 ,1.04053 ,5.11030 ,50.14225 
23 ,4.8380 ,1.04260 ,5.06923 ,49.73931 
24 ,5.0301 ,1.04453 ,5.06239 ,49.67215 
25 ,5.2220 ,1.04642 ,5.02132 ,49.26921 
26 ,5.4143 ,1.04835 ,5.00763 ,49.13490 
27 ,5.6218 ,1.05043 ,4.98368 ,48.89985 
28 ,5.8143 ,1.05236 ,4.98710 ,48.93343 
29 ,6.0062 ,1.05438 ,4.96315 ,48.69838 
30 ,6.2465 ,1.05652 ,4.94261 ,48.49691 
31 ,6.4385 ,1.05861 ,4.91866 ,48.26186 
32 ,6.6306 ,1.06053 ,4.91181 ,48.19471 
33 ,6.8227 ,1.06247 ,4.88786 ,47.95966 
34 ,7.0144 ,1.06437 ,4.87075 ,47.79177 
35 ,7.2066 ,1.06632 ,4.86048 ,47.69103 
36 ,7.3989 ,1.06820 ,4.81941 ,47.28809 
37 ,7.5912 ,1.07011 ,4.81941 ,47.28809 
38 ,7.8151 ,1.07232 ,4.78519 ,46.95231 
39 ,8.0072 ,1.07429 ,4.78519 ,46.95231 
40 ,8.2149 ,1.07635 ,4.75439 ,46.65010 
41 ,8.4234 ,1.07840 ,4.73044 ,46.41506 
42 ,8.6155 ,1.08050 ,4.71333 ,46.24716 
43 ,8.8075 ,1.08229 ,4.70648 ,46.18001 
44 ,8.9995 ,1.08420 ,4.65857 ,45.70991 
45 ,9.2074 ,1.08624 ,4.66199 ,45.74349 
46 ,9.4318 ,1.08858 ,4.63462 ,45.47486 
47 ,9.6237 ,1.09051 ,4.61066 ,45.23981 
48 ,9.8160 ,1.09241 ,4.59013 ,45.03835 
49 ,10.0235 ,1.09452 ,4.58671 ,45.00477 
50 ,10.2161 ,1.09636 ,4.57302 ,44.87045 
51 ,10.4077 ,1.09828 ,4.56617 ,44.80330 
52 ,10.6003 ,1.10027 ,4.53195 ,44.46751 
53 ,10.8083 ,1.10231 ,4.51484 ,44.29962 
54 ,11.0002 ,1.10420 ,4.48404 ,43.99742 
55 ,11.1925 ,1.10618 ,4.48404 ,43.99742 
56 ,11.4006 ,1.10827 ,4.44982 ,43.66163 
57 ,11.5927 ,1.11015 ,4.43955 ,43.56090 
58 ,11.7848 ,1.11207 ,4.42929 ,43.46016 
59 ,11.9928 ,1.11402 ,4.39164 ,43.09080 
60 ,12.2007 ,1.11623 ,4.38822 ,43.05723 
61 ,12.4250 ,1.11850 ,4.37453 ,42.92291 
62 ,12.6166 ,1.12032 ,4.35400 ,42.72144 
63 ,12.8091 ,1.12226 ,4.34373 ,42.62071 
64 ,13.0172 ,1.12436 ,4.30267 ,42.21777 
65 ,13.2092 ,1.12630 ,4.30609 ,42.25135 
66 ,13.4014 ,1.12822 ,4.28213 ,42.01630 
67 ,13.5934 ,1.13012 ,4.26502 ,41.84841 
68 ,13.7855 ,1.13208 ,4.26502 ,41.84841 
69 ,13.9776 ,1.13402 ,4.21369 ,41.34473 
70 ,14.1697 ,1.13590 ,4.22053 ,41.41189 
71 ,14.3617 ,1.13777 ,4.18974 ,41.10968 
72 ,14.5697 ,1.13988 ,4.18289 ,41.04253 
73 ,14.7455 ,1.14178 ,4.16236 ,40.84106 
74 ,14.9379 ,1.14360 ,4.13840 ,40.60601 
75 ,15.1300 ,1.14546 ,4.13156 ,40.53885 
76 ,15.3383 ,1.14761 ,4.09734 ,40.20307 
77 ,15.5463 ,1.14969 ,4.11787 ,40.40454 
78 ,15.7383 ,1.15160 ,4.06996 ,39.93444 
79 ,15.9303 ,1.15348 ,4.06996 ,39.93444 
80 ,16.1544 ,1.15559 ,4.03916 ,39.63224 
81 ,16.3467 ,1.15765 ,4.03916 ,39.63224 
82 ,16.5545 ,1.15979 ,3.99467 ,39.19572 
83 ,16.7468 ,1.16169 ,3.99125 ,39.16214 
84 ,16.9384 ,1.16361 ,3.96045 ,38.85994 
85 ,17.1310 ,1.16548 ,3.95703 ,38.82636 
86 ,17.3388 ,1.16758 ,3.92965 ,38.55773 
87 ,17.5471 ,1.16954 ,3.92965 ,38.55773 
88 ,17.7390 ,1.17163 ,3.89885 ,38.25553 
89 ,17.9311 ,1.17349 ,3.88858 ,38.15479 
90 ,18.1229 ,1.17537 ,3.87147 ,37.98690 
91 ,18.3153 ,1.17730 ,3.84067 ,37.68470 
92 ,18.5070 ,1.17931 ,3.83725 ,37.65112 
93 ,18.6996 ,1.18115 ,3.81330 ,37.41607 
94 ,18.8914 ,1.18313 ,3.79619 ,37.24818 
95 ,19.0995 ,1.18517 ,3.77908 ,37.08029 
96 ,19.3079 ,1.18724 ,3.75854 ,36.87882 
97 ,19.5158 ,1.18937 ,3.73801 ,36.67735 
98 ,19.7080 ,1.19129 ,3.73459 ,36.64377 
99 ,19.9001 ,1.19317 ,3.72090 ,36.50946 
100 ,20.0922 ,1.19511 ,3.69694 ,36.27441 
101 ,20.2840 ,1.19697 ,3.69352 ,36.24083 
102 ,20.4758 ,1.19888 ,3.64903 ,35.80431 
103 ,20.6684 ,1.20091 ,3.64903 ,35.80431 
104 ,20.8925 ,1.20301 ,3.61481 ,35.46853 
105 ,21.0845 ,1.20503 ,3.61139 ,35.43495 
106 ,21.2766 ,1.20697 ,3.59086 ,35.23348 
107 ,21.4686 ,1.20893 ,3.58059 ,35.13275 
108 ,21.6769 ,1.21094 ,3.55663 ,34.89770 
109 ,21.8688 ,1.21293 ,3.55321 ,34.86412 
110 ,22.0610 ,1.21473 ,3.52584 ,34.59549 
111 ,22.2530 ,1.21667 ,3.53268 ,34.66265 
112 ,22.4446 ,1.21860 ,3.49846 ,34.32687 
113 ,22.6378 ,1.22054 ,3.47792 ,34.12540 
114 ,22.8293 ,1.22250 ,3.46766 ,34.02466 
115 ,23.0213 ,1.22433 ,3.44028 ,33.75604 
116 ,23.2134 ,1.22631 ,3.44370 ,33.78961 
117 ,23.4216 ,1.22833 ,3.41975 ,33.55457 
118 ,23.6294 ,1.23045 ,3.39921 ,33.35310 
119 ,23.8376 ,1.23251 ,3.38553 ,33.21878 
120 ,24.0298 ,1.23446 ,3.37868 ,33.15163 
121 ,24.2375 ,1.23652 ,3.33762 ,32.74869 
122 ,24.4300 ,1.23843 ,3.33419 ,32.71511 
123 ,24.6377 ,1.24051 ,3.30339 ,32.41290 
124 ,24.8301 ,1.24244 ,3.30682 ,32.44648 
125 ,25.0383 ,1.24455 ,3.25891 ,31.97639 
126 ,25.2299 ,1.24653 ,3.27602 ,32.14428 
127 ,25.4223 ,1.24834 ,3.23837 ,31.77492 
128 ,25.6306 ,1.25052 ,3.21784 ,31.57345 
129 ,25.8219 ,1.25240 ,3.22126 ,31.60702 
130 ,26.0140 ,1.25430 ,3.19388 ,31.33840 
131 ,26.2062 ,1.25621 ,3.19046 ,31.30482 
132 ,26.4148 ,1.25822 ,3.15282 ,30.93546 
133 ,26.6064 ,1.26035 ,3.15282 ,30.93546 
134 ,26.7824 ,1.26204 ,3.13571 ,30.76757 
135 ,26.9748 ,1.26393 ,3.12202 ,30.63325 
136 ,27.1830 ,1.26599 ,3.09806 ,30.39821 
137 ,27.4072 ,1.26822 ,3.10833 ,30.49894 
138 ,27.6311 ,1.27042 ,3.06726 ,30.09600 
139 ,27.8394 ,1.27255 ,3.05358 ,29.96169 
140 ,28.0315 ,1.27450 ,3.03989 ,29.82737 
141 ,28.2390 ,1.27656 ,3.01593 ,29.59233 
142 ,28.4316 ,1.27847 ,3.00224 ,29.45801 
143 ,28.6235 ,1.28042 ,2.98513 ,29.29012 
144 ,28.8156 ,1.28227 ,2.96460 ,29.08865 
145 ,29.0073 ,1.28422 ,2.96118 ,29.05507 
146 ,29.1996 ,1.28622 ,2.92696 ,28.71929 
147 ,29.4078 ,1.28825 ,2.94407 ,28.88718 
148 ,29.5997 ,1.29016 ,2.89616 ,28.41709 
149 ,29.7920 ,1.29202 ,2.90300 ,28.48424 
150 ,29.9841 ,1.29403 ,2.87562 ,28.21562 
151 ,30.1761 ,1.29591 ,2.85167 ,27.98057 
152 ,30.3683 ,1.29784 ,2.84825 ,27.94699 
153 ,30.5764 ,1.29995 ,2.81402 ,27.61121 
154 ,30.7684 ,1.30183 ,2.81402 ,27.61121 
155 ,30.9605 ,1.30378 ,2.79007 ,27.37616 
156 ,31.1524 ,1.30566 ,2.78322 ,27.30900 
157 ,31.3607 ,1.30776 ,2.76611 ,27.14111 
158 ,31.5683 ,1.30986 ,2.75585 ,27.04038 
159 ,31.7609 ,1.31174 ,2.71820 ,26.67101 
160 ,31.9689 ,1.31387 ,2.73531 ,26.83891 
161 ,32.1770 ,1.31587 ,2.69083 ,26.40239 
162 ,32.3688 ,1.31785 ,2.69767 ,26.46954 
163 ,32.5611 ,1.31974 ,2.66687 ,26.16734 
164 ,32.7530 ,1.32164 ,2.65660 ,26.06661 
165 ,32.9453 ,1.32358 ,2.63265 ,25.83156 
166 ,33.1375 ,1.32553 ,2.60869 ,25.59651 
167 ,33.3295 ,1.32744 ,2.60527 ,25.56293 
168 ,33.5535 ,1.32958 ,2.58132 ,25.32788 
169 ,33.7613 ,1.33175 ,2.57105 ,25.22715 
170 ,33.9534 ,1.33366 ,2.56078 ,25.12641 
171 ,34.1617 ,1.33573 ,2.52998 ,24.82421 
172 ,34.3537 ,1.33764 ,2.54710 ,24.99210 
173 ,34.5618 ,1.33973 ,2.50945 ,24.62274 
174 ,34.7537 ,1.34167 ,2.49918 ,24.52200 
175 ,34.9461 ,1.34360 ,2.48892 ,24.42127 
176 ,35.1540 ,1.34559 ,2.46154 ,24.15264 
177 ,35.3623 ,1.34774 ,2.43416 ,23.88402 
178 ,35.5540 ,1.34968 ,2.44443 ,23.98475 
179 ,35.7622 ,1.35172 ,2.42048 ,23.74970 
180 ,35.9705 ,1.35385 ,2.41705 ,23.71612 
181 ,36.1627 ,1.35572 ,2.38283 ,23.38034 
182 ,36.3868 ,1.35790 ,2.38968 ,23.44750 
183 ,36.6108 ,1.36012 ,2.36572 ,23.21245 
184 ,36.8029 ,1.36216 ,2.34861 ,23.04456 
185 ,36.9950 ,1.36405 ,2.32123 ,22.77593 
186 ,37.1870 ,1.36596 ,2.31097 ,22.67520 
187 ,37.3791 ,1.36793 ,2.28701 ,22.44015 
188 ,37.5712 ,1.36987 ,2.29728 ,22.54088 
189 ,37.7630 ,1.37176 ,2.26990 ,22.27226 
190 ,37.9714 ,1.37383 ,2.26306 ,22.20510 
191 ,38.1632 ,1.37579 ,2.21857 ,21.76858 
192 ,38.3716 ,1.37787 ,2.23226 ,21.90290 
193 ,38.5635 ,1.37978 ,2.20830 ,21.66785 
194 ,38.7718 ,1.38184 ,2.20146 ,21.60069 
195 ,38.9636 ,1.38377 ,2.16381 ,21.23133 
196 ,39.1720 ,1.38587 ,2.16723 ,21.26491 
197 ,39.3799 ,1.38794 ,2.15012 ,21.09702 
198 ,39.5721 ,1.38984 ,2.12959 ,20.89555 
199 ,39.7801 ,1.39194 ,2.10564 ,20.66050 
200 ,39.9718 ,1.39385 ,2.09537 ,20.55976 
201 ,40.1644 ,1.39574 ,2.07826 ,20.39187 
202 ,40.3722 ,1.39785 ,2.07484 ,20.35829 
203 ,40.5645 ,1.39978 ,2.05430 ,20.15682 
204 ,40.7566 ,1.40172 ,2.04746 ,20.08967 
205 ,40.9646 ,1.40376 ,2.02350 ,19.85462 
206 ,41.1568 ,1.40567 ,2.00982 ,19.72031 
207 ,41.3648 ,1.40774 ,1.99270 ,19.55241 
208 ,41.5888 ,1.40995 ,1.99955 ,19.61957 
209 ,41.7970 ,1.41209 ,1.96533 ,19.28379 
210 ,41.9889 ,1.41393 ,1.95506 ,19.18305 
211 ,42.1807 ,1.41591 ,1.92426 ,18.88085 
212 ,42.3732 ,1.41784 ,1.94137 ,19.04874 
213 ,42.5813 ,1.41986 ,1.90715 ,18.71296 
214 ,42.7732 ,1.42185 ,1.89346 ,18.57864 
215 ,42.9654 ,1.42371 ,1.87977 ,18.44433 
216 ,43.1575 ,1.42569 ,1.87293 ,18.37717 
217 ,43.3654 ,1.42773 ,1.85582 ,18.20928 
218 ,43.5735 ,1.42980 ,1.84897 ,18.14213 
219 ,43.7657 ,1.43176 ,1.82844 ,17.94066 
220 ,43.9736 ,1.43383 ,1.81475 ,17.80634 
221 ,44.1819 ,1.43593 ,1.79080 ,17.57129 
222 ,44.3898 ,1.43797 ,1.78737 ,17.53772 
223 ,44.5820 ,1.43986 ,1.77026 ,17.36983 
224 ,44.7743 ,1.44181 ,1.76342 ,17.30267 
225 ,44.9982 ,1.44399 ,1.73604 ,17.03404 
226 ,45.1903 ,1.44600 ,1.73946 ,17.06762 
227 ,45.3982 ,1.44805 ,1.69840 ,16.66468 
228 ,45.5904 ,1.45002 ,1.70524 ,16.73184 
229 ,45.7981 ,1.45205 ,1.67444 ,16.42963 
230 ,45.9905 ,1.45398 ,1.68129 ,16.49679 
231 ,46.2148 ,1.45608 ,1.65733 ,16.26174 
232 ,46.4068 ,1.45817 ,1.64707 ,16.16101 
233 ,46.6147 ,1.46018 ,1.63338 ,16.02669 
234 ,46.8070 ,1.46215 ,1.61627 ,15.85880 
235 ,46.9990 ,1.46409 ,1.59231 ,15.62375 
236 ,47.1910 ,1.46594 ,1.59916 ,15.69091 
237 ,47.3828 ,1.46790 ,1.56493 ,15.35513 
238 ,47.5748 ,1.46978 ,1.56493 ,15.35513 
239 ,47.7668 ,1.47175 ,1.55124 ,15.22081 
240 ,47.9592 ,1.47366 ,1.51702 ,14.88503 
241 ,48.1994 ,1.47607 ,1.49649 ,14.68356 
242 ,48.3915 ,1.47802 ,1.51702 ,14.88503 
243 ,48.5835 ,1.47990 ,1.47938 ,14.51567 
244 ,48.7753 ,1.48177 ,1.48965 ,14.61640 
245 ,48.9835 ,1.48379 ,1.47938 ,14.51567 
246 ,49.1758 ,1.48583 ,1.46227 ,14.34778 
247 ,49.3677 ,1.48779 ,1.43831 ,14.11273 
248 ,49.5761 ,1.48981 ,1.43489 ,14.07915 
249 ,49.7679 ,1.49172 ,1.43147 ,14.04557 
250 ,49.9602 ,1.49372 ,1.39040 ,13.64263 
251 ,50.1684 ,1.49579 ,1.39383 ,13.67621 
252 ,50.3604 ,1.49771 ,1.36303 ,13.37401 
253 ,50.5683 ,1.49974 ,1.36303 ,13.37401 
254 ,50.7606 ,1.50165 ,1.33907 ,13.13896 
255 ,50.9528 ,1.50363 ,1.33565 ,13.10538 
256 ,51.1608 ,1.50566 ,1.30827 ,12.83675 
257 ,51.3849 ,1.50783 ,1.31512 ,12.90391 
258 ,51.5929 ,1.51001 ,1.30143 ,12.76960 
259 ,51.7848 ,1.51189 ,1.26720 ,12.43381 
260 ,51.9926 ,1.51396 ,1.27405 ,12.50097 
261 ,52.1852 ,1.51590 ,1.23298 ,12.09803 
262 ,52.3931 ,1.51790 ,1.23641 ,12.13161 
263 ,52.6013 ,1.52007 ,1.21587 ,11.93014 
264 ,52.7934 ,1.52201 ,1.20903 ,11.86298 
265 ,52.9854 ,1.52395 ,1.18507 ,11.62794 
266 ,53.1773 ,1.52584 ,1.16454 ,11.42647 
267 ,53.3856 ,1.52787 ,1.15770 ,11.35931 
268 ,53.5776 ,1.52984 ,1.14743 ,11.25857 
269 ,53.7855 ,1.53189 ,1.12005 ,10.98995 
270 ,53.9778 ,1.53382 ,1.13032 ,11.09068 
271 ,54.1694 ,1.53572 ,1.14058 ,11.19142 
272 ,54.3778 ,1.53771 ,1.08925 ,10.68774 
273 ,54.5699 ,1.53976 ,1.09610 ,10.75490 
274 ,54.7779 ,1.54180 ,1.06872 ,10.48627 
275 ,54.9701 ,1.54374 ,1.06530 ,10.45270 
276 ,55.1621 ,1.54568 ,1.03450 ,10.15049 
277 ,55.3382 ,1.54759 ,1.03792 ,10.18407 
278 ,55.5304 ,1.54940 ,1.02765 ,10.08333 
279 ,55.7384 ,1.55139 ,1.00028 ,9.81471 
280 ,55.9303 ,1.55333 ,1.00028 ,9.81471 
281 ,56.1386 ,1.55536 ,0.98317 ,9.64682 
282 ,56.3303 ,1.55738 ,0.97632 ,9.57966 
283 ,56.5229 ,1.55932 ,0.94552 ,9.27745 
284 ,56.7308 ,1.56136 ,0.95237 ,9.34461 
285 ,56.9230 ,1.56321 ,0.91814 ,9.00883 
286 ,57.1309 ,1.56536 ,0.91814 ,9.00883 
287 ,57.3071 ,1.56719 ,0.89077 ,8.74020 
288 ,57.4993 ,1.56897 ,0.89419 ,8.77378 
289 ,57.7073 ,1.57111 ,0.88392 ,8.67305 
290 ,57.8994 ,1.57299 ,0.85654 ,8.40442 
291 ,58.1070 ,1.57514 ,0.84970 ,8.33726 
292 ,58.2995 ,1.57699 ,0.83601 ,8.20295 
293 ,58.4913 ,1.57890 ,0.83601 ,8.20295 
294 ,58.6836 ,1.58094 ,0.81890 ,8.03506 
295 ,58.8757 ,1.58282 ,0.80179 ,7.86717 
296 ,59.0678 ,1.58473 ,0.80521 ,7.90074 
297 ,59.2758 ,1.58683 ,0.76757 ,7.53138 
298 ,59.4679 ,1.58866 ,0.76072 ,7.46423 
299 ,59.6759 ,1.59075 ,0.74704 ,7.32991 
300 ,59.8681 ,1.59267 ,0.74019 ,7.26276 
301 ,60.0760 ,1.59477 ,0.71624 ,7.02771 
302 ,60.2681 ,1.59669 ,0.71966 ,7.06129 
303 ,60.4925 ,1.59894 ,0.70597 ,6.92697 
304 ,60.6842 ,1.60083 ,0.68544 ,6.72550 
305 ,60.8764 ,1.60283 ,0.67859 ,6.65835 
306 ,61.0847 ,1.60487 ,0.67517 ,6.62477 
307 ,61.2766 ,1.60682 ,0.64437 ,6.32256 
308 ,61.4688 ,1.60873 ,0.64779 ,6.35614 
309 ,61.6769 ,1.61079 ,0.62384 ,6.12109 
310 ,61.8527 ,1.61268 ,0.61357 ,6.02036 
311 ,62.0450 ,1.61445 ,0.61357 ,6.02036 
312 ,62.2371 ,1.61636 ,0.57935 ,5.68458 
313 ,62.4291 ,1.61832 ,0.57251 ,5.61742 
314 ,62.6214 ,1.62025 ,0.55197 ,5.41595 
315 ,62.8293 ,1.62225 ,0.54171 ,5.31522 
316 ,63.0213 ,1.62426 ,0.52117 ,5.11375 
317 ,63.2295 ,1.62633 ,0.53486 ,5.24806 
318 ,63.4537 ,1.62857 ,0.50064 ,4.91228 
319 ,63.6615 ,1.63063 ,0.49380 ,4.84512 
320 ,63.8379 ,1.63248 ,0.49722 ,4.87870 
321 ,64.0135 ,1.63427 ,0.47668 ,4.67723 
322 ,64.2059 ,1.63603 ,0.45273 ,4.44218 
323 ,64.3979 ,1.63796 ,0.44588 ,4.37502 
324 ,64.5900 ,1.63987 ,0.45615 ,4.47576 
325 ,64.7821 ,1.64182 ,0.43220 ,4.24071 
326 ,64.9741 ,1.64370 ,0.44246 ,4.34144 
327 ,65.1662 ,1.64571 ,0.41509 ,4.07282 
328 ,65.3584 ,1.64755 ,0.39797 ,3.90493 
329 ,65.5664 ,1.64968 ,0.37060 ,3.63630 
330 ,65.7744 ,1.65164 ,0.37060 ,3.63630 
331 ,65.9827 ,1.65376 ,0.35691 ,3.50199 
332 ,66.1742 ,1.65578 ,0.35349 ,3.46841 
333 ,66.3666 ,1.65765 ,0.34322 ,3.36767 
334 ,66.5587 ,1.65956 ,0.33295 ,3.26694 
335 ,66.7507 ,1.66153 ,0.31926 ,3.13263 
336 ,66.9431 ,1.66344 ,0.29873 ,2.93116 
337 ,67.1348 ,1.66536 ,0.29189 ,2.86400 
338 ,67.3273 ,1.66725 ,0.29189 ,2.86400 
339 ,67.5355 ,1.66937 ,0.27478 ,2.69611 
340 ,67.7593 ,1.67164 ,0.24740 ,2.42748 
341 ,67.9514 ,1.67348 ,0.24398 ,2.39390 
342 ,68.1435 ,1.67542 ,0.22687 ,2.22601 
343 ,68.3352 ,1.67734 ,0.22687 ,2.22601 
344 ,68.5438 ,1.67931 ,0.22002 ,2.15885 
345 ,68.7518 ,1.68145 ,0.20976 ,2.05812 
346 ,68.9438 ,1.68345 ,0.19264 ,1.89023 
347 ,69.1518 ,1.68540 ,0.18922 ,1.85665 
348 ,69.3599 ,1.68760 ,0.17896 ,1.75592 
349 ,69.5520 ,1.68951 ,0.16185 ,1.58802 
350 ,69.7602 ,1.69158 ,0.14131 ,1.38655 
351 ,69.9523 ,1.69355 ,0.13789 ,1.35298 
352 ,70.1441 ,1.69544 ,0.12078 ,1.18508 
353 ,70.3364 ,1.69734 ,0.11051 ,1.08435 
354 ,70.5281 ,1.69928 ,0.10025 ,0.98361 
355 ,70.7206 ,1.70123 ,0.07629 ,0.74857 
356 ,70.9287 ,1.70320 ,0.09340 ,0.91646 
357 ,71.1207 ,1.70522 ,0.05234 ,0.51352 
358 ,71.3127 ,1.70713 ,0.05576 ,0.54710 
359 ,71.4889 ,1.70896 ,0.04549 ,0.44636 
360 ,71.6809 ,1.71076 ,0.03865 ,0.37920 
361 ,71.8570 ,1.71266 ,0.03180 ,0.31205 
362 ,72.0488 ,1.71442 ,0.02496 ,0.24489 
363 ,72.2730 ,1.71667 ,0.01127 ,0.11058 
364 ,72.4810 ,1.71874 ,-0.01611 ,-0.15805 
365 ,72.6729 ,1.72082 ,-0.00242 ,-0.02373 
366 ,72.8654 ,1.72264 ,-0.03322 ,-0.32594 
367 ,73.0575 ,1.72454 ,-0.03664 ,-0.35952 
368 ,73.2495 ,1.72645 ,-0.02980 ,-0.29236 
369 ,73.4576 ,1.72852 ,-0.06060 ,-0.59457 
370 ,73.6497 ,1.73045 ,-0.06402 ,-0.62814 
371 ,73.8415 ,1.73239 ,-0.08455 ,-0.82961 
372 ,74.0497 ,1.73435 ,-0.08455 ,-0.82961 
373 ,74.2420 ,1.73639 ,-0.11193 ,-1.09824 
374 ,74.4499 ,1.73847 ,-0.10508 ,-1.03108 
375 ,74.6422 ,1.74044 ,-0.13246 ,-1.29971 
376 ,74.8342 ,1.74235 ,-0.13588 ,-1.33329 
377 ,75.0424 ,1.74443 ,-0.15299 ,-1.50118 
378 ,75.2341 ,1.74643 ,-0.13588 ,-1.33329 
379 ,75.4265 ,1.74824 ,-0.17695 ,-1.73623 
380 ,75.6348 ,1.75029 ,-0.17011 ,-1.66907 
381 ,75.8267 ,1.75226 ,-0.18379 ,-1.80338 
382 ,76.0183 ,1.75411 ,-0.20775 ,-2.03843 
383 ,76.2108 ,1.75605 ,-0.19064 ,-1.87054 
384 ,76.4345 ,1.75821 ,-0.22144 ,-2.17275 
385 ,76.6270 ,1.76023 ,-0.22828 ,-2.23990 
386 ,76.8188 ,1.76213 ,-0.24539 ,-2.40779 
387 ,77.0111 ,1.76412 ,-0.22144 ,-2.17275 
388 ,77.2031 ,1.76600 ,-0.24881 ,-2.44137 
389 ,77.3952 ,1.76796 ,-0.26935 ,-2.64284 
390 ,77.5873 ,1.76985 ,-0.26250 ,-2.57569 
391 ,77.7794 ,1.77172 ,-0.29330 ,-2.87789 
392 ,77.9715 ,1.77369 ,-0.28304 ,-2.77716 
393 ,78.1792 ,1.77576 ,-0.31041 ,-3.04578 
394 ,78.3874 ,1.77782 ,-0.29330 ,-2.87789 
395 ,78.5797 ,1.77972 ,-0.33095 ,-3.24725 
396 ,78.7717 ,1.78167 ,-0.32410 ,-3.18010 
397 ,78.9640 ,1.78361 ,-0.34806 ,-3.41514 
398 ,79.1719 ,1.78565 ,-0.35490 ,-3.48230 
399 ,79.3476 ,1.78756 ,-0.35490 ,-3.48230 
400 ,79.5401 ,1.78932 ,-0.37201 ,-3.65019 
401 ,79.7321 ,1.79123 ,-0.36859 ,-3.61661 
402 ,79.9243 ,1.79317 ,-0.38228 ,-3.75093 
403 ,80.1162 ,1.79513 ,-0.40281 ,-3.95240 
404 ,80.3243 ,1.79717 ,-0.41992 ,-4.12029 
405 ,80.5003 ,1.79908 ,-0.41308 ,-4.05313 
406 ,80.6926 ,1.80084 ,-0.41308 ,-4.05313 
407 ,80.9167 ,1.80301 ,-0.44388 ,-4.35534 
408 ,81.1088 ,1.80508 ,-0.44046 ,-4.32176 
409 ,81.3329 ,1.80718 ,-0.46099 ,-4.52323 
410 ,81.5247 ,1.80915 ,-0.48494 ,-4.75828 
411 ,81.7170 ,1.81107 ,-0.47810 ,-4.69112 
412 ,81.9090 ,1.81308 ,-0.47810 ,-4.69112 
413 ,82.1011 ,1.81492 ,-0.50206 ,-4.92617 
414 ,82.2933 ,1.81683 ,-0.49521 ,-4.85901 
415 ,82.4853 ,1.81878 ,-0.51917 ,-5.09406 
416 ,82.6773 ,1.82084 ,-0.52259 ,-5.12764 
417 ,82.8695 ,1.82263 ,-0.52601 ,-5.16121 
418 ,83.0616 ,1.82454 ,-0.54312 ,-5.32911 
419 ,83.2694 ,1.82670 ,-0.54997 ,-5.39626 
420 ,83.4776 ,1.82868 ,-0.57392 ,-5.63131 
421 ,83.6694 ,1.83056 ,-0.55681 ,-5.46342 
422 ,83.8620 ,1.83260 ,-0.58761 ,-5.76562 
423 ,84.0698 ,1.83464 ,-0.58077 ,-5.69847 
424 ,84.2620 ,1.83651 ,-0.61499 ,-6.03425 
425 ,84.4859 ,1.83877 ,-0.61156 ,-6.00067 
426 ,84.6780 ,1.84070 ,-0.62183 ,-6.10141 
427 ,84.8700 ,1.84264 ,-0.61841 ,-6.06783 
428 ,85.0783 ,1.84470 ,-0.63894 ,-6.26930 
429 ,85.2703 ,1.84662 ,-0.63894 ,-6.26930 
430 ,85.4623 ,1.84855 ,-0.66974 ,-6.57150 
431 ,85.6707 ,1.85063 ,-0.66290 ,-6.50435 
432 ,85.8624 ,1.85254 ,-0.67659 ,-6.63866 
433 ,86.0548 ,1.85452 ,-0.68343 ,-6.70582 
434 ,86.2625 ,1.85653 ,-0.69370 ,-6.80655 
435 ,86.4544 ,1.85850 ,-0.69370 ,-6.80655 
436 ,86.6464 ,1.86040 ,-0.72450 ,-7.10876 
437 ,86.8391 ,1.86235 ,-0.72107 ,-7.07518 
438 ,87.0472 ,1.86440 ,-0.72107 ,-7.07518 
439 ,87.2551 ,1.86644 ,-0.73476 ,-7.20949 
440 ,87.4791 ,1.86876 ,-0.75530 ,-7.41096 
441 ,87.6874 ,1.87073 ,-0.76214 ,-7.47812 
442 ,87.8794 ,1.87271 ,-0.78267 ,-7.67959 
443 ,88.0711 ,1.87472 ,-0.77925 ,-7.64601 
444 ,88.2636 ,1.87652 ,-0.79978 ,-7.84748 
445 ,88.4557 ,1.87847 ,-0.79636 ,-7.81390 
446 ,88.6478 ,1.88045 ,-0.79636 ,-7.81390 
447 ,88.8558 ,1.88246 ,-0.81689 ,-8.01537 
448 ,89.0480 ,1.88439 ,-0.81689 ,-8.01537 
449 ,89.2400 ,1.88633 ,-0.85796 ,-8.41831 
450 ,89.4322 ,1.88825 ,-0.83401 ,-8.18326 
451 ,89.6403 ,1.89022 ,-0.85112 ,-8.35115 
452 ,89.8326 ,1.89226 ,-0.85112 ,-8.35115 
453 ,90.0244 ,1.89417 ,-0.86138 ,-8.45189 
454 ,90.2160 ,1.89608 ,-0.88192 ,-8.65336 
455 ,90.4084 ,1.89806 ,-0.87849 ,-8.61978 
456 ,90.6166 ,1.90007 ,-0.90587 ,-8.88841 
457 ,90.8086 ,1.90202 ,-0.89903 ,-8.82125 
458 ,91.0008 ,1.90390 ,-0.91614 ,-8.98914 
459 ,91.2088 ,1.90596 ,-0.91956 ,-9.02272 
460 ,91.4168 ,1.90800 ,-0.94009 ,-9.22419 
461 ,91.6088 ,1.90995 ,-0.92640 ,-9.08988 
462 ,91.8010 ,1.91192 ,-0.94694 ,-9.29135 
