Data stamp = , 30-04-2022 01:00:37 183

Calibration Values: 
Slope = , 26.54 , g/V 
Offset Voltage at no contact = , -0.501760 , V 

No , Time , Stage Position ,   Mass , Force 
   ,  (s) ,      (mm)      ,   (g)  , (mN)  

1 ,0.0000 ,0.99948 ,5.39434 ,52.92925 
2 ,0.2089 ,0.99956 ,5.40803 ,53.06356 
3 ,0.7213 ,1.00147 ,5.40460 ,53.02998 
4 ,0.9294 ,1.00350 ,5.41145 ,53.09714 
5 ,1.1213 ,1.00542 ,5.40460 ,53.02998 
6 ,1.3143 ,1.00730 ,5.38407 ,52.82851 
7 ,1.5214 ,1.00940 ,5.39434 ,52.92925 
8 ,1.7138 ,1.01128 ,5.36012 ,52.59346 
9 ,1.9215 ,1.01334 ,5.35327 ,52.52631 
10 ,2.1141 ,1.01538 ,5.31221 ,52.12337 
11 ,2.3221 ,1.01748 ,5.31905 ,52.19052 
12 ,2.5300 ,1.01950 ,5.29510 ,51.95548 
13 ,2.7222 ,1.02144 ,5.28141 ,51.82116 
14 ,2.9302 ,1.02355 ,5.24376 ,51.45180 
15 ,3.1224 ,1.02545 ,5.24718 ,51.48538 
16 ,3.3145 ,1.02733 ,5.19927 ,51.01528 
17 ,3.5064 ,1.02930 ,5.19927 ,51.01528 
18 ,3.6987 ,1.03126 ,5.18901 ,50.91455 
19 ,3.8908 ,1.03316 ,5.14794 ,50.51161 
20 ,4.0985 ,1.03520 ,5.13425 ,50.37729 
21 ,4.2910 ,1.03715 ,5.11714 ,50.20940 
22 ,4.4990 ,1.03921 ,5.09319 ,49.97436 
23 ,4.6912 ,1.04115 ,5.09319 ,49.97436 
24 ,4.8991 ,1.04311 ,5.07950 ,49.84004 
25 ,5.0913 ,1.04517 ,5.05212 ,49.57142 
26 ,5.3157 ,1.04727 ,5.02132 ,49.26921 
27 ,5.5234 ,1.04944 ,5.00763 ,49.13490 
28 ,5.7315 ,1.05154 ,4.98710 ,48.93343 
29 ,5.9234 ,1.05349 ,4.96657 ,48.73196 
30 ,6.1157 ,1.05537 ,4.93577 ,48.42975 
31 ,6.3234 ,1.05746 ,4.93577 ,48.42975 
32 ,6.5314 ,1.05942 ,4.90155 ,48.09397 
33 ,6.7239 ,1.06145 ,4.88786 ,47.95966 
34 ,6.9164 ,1.06337 ,4.86390 ,47.72461 
35 ,7.1082 ,1.06534 ,4.86048 ,47.69103 
36 ,7.2841 ,1.06716 ,4.83310 ,47.42240 
37 ,7.4763 ,1.06893 ,4.80915 ,47.18736 
38 ,7.6679 ,1.07085 ,4.81257 ,47.22093 
39 ,7.8603 ,1.07275 ,4.77493 ,46.85157 
40 ,8.0524 ,1.07476 ,4.76466 ,46.75084 
41 ,8.2446 ,1.07667 ,4.74755 ,46.58295 
42 ,8.4366 ,1.07859 ,4.72702 ,46.38148 
43 ,8.6447 ,1.08063 ,4.72359 ,46.34790 
44 ,8.8526 ,1.08276 ,4.69279 ,46.04569 
45 ,9.0449 ,1.08467 ,4.67568 ,45.87780 
46 ,9.2530 ,1.08675 ,4.65515 ,45.67633 
47 ,9.4451 ,1.08862 ,4.63804 ,45.50844 
48 ,9.6367 ,1.09070 ,4.62435 ,45.37413 
49 ,9.8291 ,1.09245 ,4.61408 ,45.27339 
50 ,10.0373 ,1.09444 ,4.57986 ,44.93761 
51 ,10.2293 ,1.09662 ,4.57986 ,44.93761 
52 ,10.4217 ,1.09840 ,4.54564 ,44.60183 
53 ,10.6135 ,1.10035 ,4.52511 ,44.40036 
54 ,10.8056 ,1.10231 ,4.51484 ,44.29962 
55 ,11.0136 ,1.10429 ,4.49431 ,44.09815 
56 ,11.2056 ,1.10628 ,4.48404 ,43.99742 
57 ,11.3979 ,1.10817 ,4.45666 ,43.72879 
58 ,11.6060 ,1.11026 ,4.43955 ,43.56090 
59 ,11.7975 ,1.11217 ,4.41218 ,43.29227 
60 ,11.9900 ,1.11407 ,4.41218 ,43.29227 
61 ,12.1821 ,1.11598 ,4.37453 ,42.92291 
62 ,12.3739 ,1.11790 ,4.38480 ,43.02365 
63 ,12.5662 ,1.11990 ,4.35742 ,42.75502 
64 ,12.7740 ,1.12191 ,4.33689 ,42.55355 
65 ,12.9824 ,1.12399 ,4.31293 ,42.31850 
66 ,13.1904 ,1.12608 ,4.31636 ,42.35208 
67 ,13.3825 ,1.12797 ,4.28213 ,42.01630 
68 ,13.5905 ,1.12996 ,4.26160 ,41.81483 
69 ,13.7824 ,1.13208 ,4.23765 ,41.57978 
70 ,13.9743 ,1.13395 ,4.23080 ,41.51262 
71 ,14.1664 ,1.13587 ,4.22396 ,41.44547 
72 ,14.3745 ,1.13781 ,4.17262 ,40.94179 
73 ,14.5666 ,1.13984 ,4.18631 ,41.07611 
74 ,14.7750 ,1.14182 ,4.14867 ,40.70674 
75 ,14.9671 ,1.14380 ,4.14183 ,40.63959 
76 ,15.1753 ,1.14583 ,4.12129 ,40.43812 
77 ,15.3672 ,1.14784 ,4.11103 ,40.33738 
78 ,15.5594 ,1.14971 ,4.08023 ,40.03518 
79 ,15.7833 ,1.15192 ,4.06996 ,39.93444 
80 ,15.9917 ,1.15409 ,4.06654 ,39.90087 
81 ,16.1832 ,1.15603 ,4.02889 ,39.53150 
82 ,16.3758 ,1.15793 ,4.01520 ,39.39719 
83 ,16.5839 ,1.16005 ,3.98441 ,39.09499 
84 ,16.7920 ,1.16214 ,3.97414 ,38.99425 
85 ,16.9840 ,1.16403 ,3.95361 ,38.79278 
86 ,17.1756 ,1.16596 ,3.94334 ,38.69205 
87 ,17.3519 ,1.16779 ,3.93307 ,38.59131 
88 ,17.5443 ,1.16960 ,3.91596 ,38.42342 
89 ,17.7524 ,1.17169 ,3.90227 ,38.28911 
90 ,17.9445 ,1.17364 ,3.86121 ,37.88617 
91 ,18.1363 ,1.17552 ,3.85436 ,37.81901 
92 ,18.3283 ,1.17744 ,3.85094 ,37.78543 
93 ,18.5044 ,1.17937 ,3.83041 ,37.58396 
94 ,18.7129 ,1.18131 ,3.82014 ,37.48323 
95 ,18.9049 ,1.18324 ,3.78934 ,37.18102 
96 ,19.0969 ,1.18515 ,3.78250 ,37.11387 
97 ,19.3211 ,1.18728 ,3.74828 ,36.77808 
98 ,19.5129 ,1.18928 ,3.75854 ,36.87882 
99 ,19.7051 ,1.19117 ,3.71748 ,36.47588 
100 ,19.8972 ,1.19313 ,3.70379 ,36.34157 
101 ,20.0892 ,1.19504 ,3.70037 ,36.30799 
102 ,20.2813 ,1.19697 ,3.66614 ,35.97220 
103 ,20.4734 ,1.19887 ,3.67299 ,36.03936 
104 ,20.6814 ,1.20103 ,3.63192 ,35.63642 
105 ,20.8896 ,1.20308 ,3.62850 ,35.60284 
106 ,21.0816 ,1.20499 ,3.60454 ,35.36779 
107 ,21.2895 ,1.20702 ,3.59428 ,35.26706 
108 ,21.4819 ,1.20896 ,3.55663 ,34.89770 
109 ,21.6734 ,1.21086 ,3.57717 ,35.09917 
110 ,21.8659 ,1.21282 ,3.54637 ,34.79696 
111 ,22.0580 ,1.21476 ,3.52584 ,34.59549 
112 ,22.2341 ,1.21667 ,3.51899 ,34.52834 
113 ,22.4261 ,1.21837 ,3.48477 ,34.19255 
114 ,22.6344 ,1.22051 ,3.48477 ,34.19255 
115 ,22.8579 ,1.22270 ,3.45397 ,33.89035 
116 ,23.0339 ,1.22459 ,3.44028 ,33.75604 
117 ,23.2262 ,1.22637 ,3.42659 ,33.62172 
118 ,23.4183 ,1.22831 ,3.41975 ,33.55457 
119 ,23.6106 ,1.23026 ,3.40264 ,33.38667 
120 ,23.8026 ,1.23222 ,3.38553 ,33.21878 
121 ,23.9948 ,1.23404 ,3.37526 ,33.11805 
122 ,24.2027 ,1.23612 ,3.34446 ,32.81584 
123 ,24.4111 ,1.23815 ,3.33419 ,32.71511 
124 ,24.6031 ,1.24021 ,3.32051 ,32.58080 
125 ,24.8114 ,1.24223 ,3.28628 ,32.24501 
126 ,25.0027 ,1.24420 ,3.26917 ,32.07712 
127 ,25.1949 ,1.24606 ,3.27944 ,32.17786 
128 ,25.3872 ,1.24797 ,3.22811 ,31.67418 
129 ,25.6116 ,1.25016 ,3.23495 ,31.74134 
130 ,25.8197 ,1.25236 ,3.21442 ,31.53987 
131 ,26.0112 ,1.25427 ,3.20073 ,31.40555 
132 ,26.2034 ,1.25619 ,3.16651 ,31.06977 
133 ,26.3958 ,1.25812 ,3.17335 ,31.13693 
134 ,26.5879 ,1.26006 ,3.14597 ,30.86830 
135 ,26.7800 ,1.26194 ,3.12886 ,30.70041 
136 ,26.9721 ,1.26391 ,3.12202 ,30.63325 
137 ,27.1637 ,1.26590 ,3.09806 ,30.39821 
138 ,27.3562 ,1.26768 ,3.08780 ,30.29747 
139 ,27.5642 ,1.26975 ,3.07069 ,30.12958 
140 ,27.7561 ,1.27170 ,3.05358 ,29.96169 
141 ,27.9485 ,1.27361 ,3.02620 ,29.69306 
142 ,28.1405 ,1.27551 ,3.01593 ,29.59233 
143 ,28.3323 ,1.27746 ,3.02278 ,29.65948 
144 ,28.5245 ,1.27933 ,2.98513 ,29.29012 
145 ,28.7168 ,1.28128 ,2.97829 ,29.22297 
146 ,28.9087 ,1.28322 ,2.95091 ,28.95434 
147 ,29.1328 ,1.28545 ,2.94407 ,28.88718 
148 ,29.3406 ,1.28753 ,2.93038 ,28.75287 
149 ,29.5332 ,1.28953 ,2.92011 ,28.65213 
150 ,29.7407 ,1.29150 ,2.88931 ,28.34993 
151 ,29.9328 ,1.29344 ,2.87562 ,28.21562 
152 ,30.1250 ,1.29540 ,2.84825 ,27.94699 
153 ,30.3496 ,1.29759 ,2.82771 ,27.74552 
154 ,30.5255 ,1.29948 ,2.83456 ,27.81268 
155 ,30.7176 ,1.30128 ,2.82429 ,27.71194 
156 ,30.9099 ,1.30322 ,2.79007 ,27.37616 
157 ,31.1338 ,1.30534 ,2.78322 ,27.30900 
158 ,31.3419 ,1.30754 ,2.76611 ,27.14111 
159 ,31.5176 ,1.30947 ,2.74558 ,26.93964 
160 ,31.7102 ,1.31126 ,2.73189 ,26.80533 
161 ,31.9182 ,1.31327 ,2.73189 ,26.80533 
162 ,32.1103 ,1.31524 ,2.69083 ,26.40239 
163 ,32.3183 ,1.31725 ,2.69425 ,26.43597 
164 ,32.5103 ,1.31922 ,2.67372 ,26.23450 
165 ,32.7023 ,1.32113 ,2.67029 ,26.20092 
166 ,32.8944 ,1.32301 ,2.63607 ,25.86514 
167 ,33.0867 ,1.32498 ,2.60869 ,25.59651 
168 ,33.2946 ,1.32706 ,2.61554 ,25.66367 
169 ,33.4865 ,1.32898 ,2.58132 ,25.32788 
170 ,33.6946 ,1.33104 ,2.59158 ,25.42862 
171 ,33.9029 ,1.33317 ,2.57105 ,25.22715 
172 ,34.1109 ,1.33522 ,2.53341 ,24.85779 
173 ,34.3030 ,1.33710 ,2.53341 ,24.85779 
174 ,34.4951 ,1.33917 ,2.50945 ,24.62274 
175 ,34.6870 ,1.34095 ,2.49234 ,24.45485 
176 ,34.8788 ,1.34289 ,2.49918 ,24.52200 
177 ,35.0713 ,1.34483 ,2.46839 ,24.21980 
178 ,35.2632 ,1.34672 ,2.46496 ,24.18622 
179 ,35.4551 ,1.34869 ,2.45127 ,24.05191 
180 ,35.6312 ,1.35054 ,2.41363 ,23.68255 
181 ,35.8233 ,1.35232 ,2.42048 ,23.74970 
182 ,35.9993 ,1.35422 ,2.41021 ,23.64897 
183 ,36.1915 ,1.35599 ,2.38968 ,23.44750 
184 ,36.3836 ,1.35792 ,2.37599 ,23.31318 
185 ,36.5757 ,1.35984 ,2.36572 ,23.21245 
186 ,36.7677 ,1.36178 ,2.33492 ,22.91024 
187 ,36.9598 ,1.36367 ,2.34177 ,22.97740 
188 ,37.1519 ,1.36560 ,2.30412 ,22.60804 
189 ,37.3440 ,1.36751 ,2.30070 ,22.57446 
190 ,37.5360 ,1.36943 ,2.29043 ,22.47373 
191 ,37.7122 ,1.37131 ,2.25621 ,22.13794 
192 ,37.9041 ,1.37312 ,2.25279 ,22.10437 
193 ,38.0962 ,1.37501 ,2.24937 ,22.07079 
194 ,38.2883 ,1.37701 ,2.22883 ,21.86932 
195 ,38.4805 ,1.37889 ,2.22541 ,21.83574 
196 ,38.6726 ,1.38080 ,2.18435 ,21.43280 
197 ,38.8645 ,1.38271 ,2.17408 ,21.33206 
198 ,39.0567 ,1.38463 ,2.17750 ,21.36564 
199 ,39.2488 ,1.38657 ,2.14328 ,21.02986 
200 ,39.4408 ,1.38851 ,2.15012 ,21.09702 
201 ,39.6330 ,1.39041 ,2.13644 ,20.96270 
202 ,39.8251 ,1.39230 ,2.12617 ,20.86197 
203 ,40.0173 ,1.39430 ,2.11932 ,20.79481 
204 ,40.2256 ,1.39632 ,2.08510 ,20.45903 
205 ,40.4175 ,1.39822 ,2.07141 ,20.32472 
206 ,40.6098 ,1.40020 ,2.04746 ,20.08967 
207 ,40.8180 ,1.40218 ,2.04746 ,20.08967 
208 ,41.0260 ,1.40433 ,2.02693 ,19.88820 
209 ,41.2180 ,1.40626 ,2.01324 ,19.75388 
210 ,41.3937 ,1.40814 ,1.99955 ,19.61957 
211 ,41.5859 ,1.40995 ,1.98928 ,19.51884 
212 ,41.7942 ,1.41199 ,1.94822 ,19.11590 
213 ,41.9864 ,1.41390 ,1.95848 ,19.21663 
214 ,42.2106 ,1.41606 ,1.93453 ,18.98158 
215 ,42.4183 ,1.41813 ,1.93111 ,18.94801 
216 ,42.6106 ,1.42017 ,1.90031 ,18.64580 
217 ,42.8189 ,1.42230 ,1.90373 ,18.67938 
218 ,43.0266 ,1.42431 ,1.88662 ,18.51149 
219 ,43.2191 ,1.42628 ,1.86266 ,18.27644 
220 ,43.4269 ,1.42829 ,1.87293 ,18.37717 
221 ,43.6185 ,1.43030 ,1.84213 ,18.07497 
222 ,43.8111 ,1.43217 ,1.82160 ,17.87350 
223 ,44.0193 ,1.43416 ,1.82160 ,17.87350 
224 ,44.2272 ,1.43636 ,1.80791 ,17.73919 
225 ,44.4195 ,1.43827 ,1.78737 ,17.53772 
226 ,44.6116 ,1.44021 ,1.76684 ,17.33625 
227 ,44.8196 ,1.44225 ,1.76342 ,17.30267 
228 ,45.0114 ,1.44416 ,1.73604 ,17.03404 
229 ,45.2035 ,1.44611 ,1.73262 ,17.00046 
230 ,45.3958 ,1.44801 ,1.70866 ,16.76542 
231 ,45.5878 ,1.44998 ,1.69498 ,16.63110 
232 ,45.7635 ,1.45178 ,1.68129 ,16.49679 
233 ,45.9720 ,1.45369 ,1.66418 ,16.32890 
234 ,46.1802 ,1.45588 ,1.65733 ,16.26174 
235 ,46.3722 ,1.45775 ,1.64022 ,16.09385 
236 ,46.5803 ,1.45979 ,1.64022 ,16.09385 
237 ,46.7724 ,1.46181 ,1.61627 ,15.85880 
238 ,46.9802 ,1.46387 ,1.60600 ,15.75807 
239 ,47.1725 ,1.46582 ,1.58204 ,15.52302 
240 ,47.3806 ,1.46774 ,1.59231 ,15.62375 
241 ,47.5727 ,1.46981 ,1.56493 ,15.35513 
242 ,47.7648 ,1.47171 ,1.56151 ,15.32155 
243 ,47.9565 ,1.47360 ,1.53071 ,15.01934 
244 ,48.1486 ,1.47563 ,1.52729 ,14.98577 
245 ,48.3410 ,1.47747 ,1.51702 ,14.88503 
246 ,48.5490 ,1.47954 ,1.51360 ,14.85145 
247 ,48.7412 ,1.48143 ,1.48622 ,14.58283 
248 ,48.9331 ,1.48338 ,1.47596 ,14.48209 
249 ,49.1251 ,1.48528 ,1.44858 ,14.21346 
250 ,49.3177 ,1.48723 ,1.44516 ,14.17989 
251 ,49.5090 ,1.48920 ,1.44858 ,14.21346 
252 ,49.7335 ,1.49137 ,1.42120 ,13.94484 
253 ,49.9254 ,1.49332 ,1.41436 ,13.87768 
254 ,50.1177 ,1.49532 ,1.39383 ,13.67621 
255 ,50.3098 ,1.49717 ,1.38356 ,13.57548 
256 ,50.5175 ,1.49923 ,1.35618 ,13.30685 
257 ,50.7100 ,1.50114 ,1.35618 ,13.30685 
258 ,50.9017 ,1.50303 ,1.34934 ,13.23969 
259 ,51.0941 ,1.50501 ,1.32538 ,13.00465 
260 ,51.2858 ,1.50692 ,1.31512 ,12.90391 
261 ,51.4942 ,1.50889 ,1.29116 ,12.66886 
262 ,51.7184 ,1.51109 ,1.28089 ,12.56813 
263 ,51.9104 ,1.51315 ,1.28089 ,12.56813 
264 ,52.1025 ,1.51503 ,1.25009 ,12.26592 
265 ,52.2946 ,1.51694 ,1.25694 ,12.33308 
266 ,52.5022 ,1.51904 ,1.22956 ,12.06445 
267 ,52.6949 ,1.52096 ,1.21929 ,11.96372 
268 ,52.8868 ,1.52290 ,1.20903 ,11.86298 
269 ,53.0947 ,1.52500 ,1.19876 ,11.76225 
270 ,53.3030 ,1.52701 ,1.16112 ,11.39289 
271 ,53.4947 ,1.52901 ,1.16796 ,11.46004 
272 ,53.6872 ,1.53087 ,1.15770 ,11.35931 
273 ,53.8793 ,1.53288 ,1.13374 ,11.12426 
274 ,54.0714 ,1.53473 ,1.14058 ,11.19142 
275 ,54.2793 ,1.53677 ,1.10979 ,10.88921 
276 ,54.4716 ,1.53879 ,1.09952 ,10.78848 
277 ,54.6635 ,1.54065 ,1.09267 ,10.72132 
278 ,54.8557 ,1.54258 ,1.06872 ,10.48627 
279 ,55.0474 ,1.54447 ,1.06187 ,10.41912 
280 ,55.2399 ,1.54639 ,1.03792 ,10.18407 
281 ,55.4480 ,1.54851 ,1.04134 ,10.21765 
282 ,55.6235 ,1.55036 ,1.01054 ,9.91544 
283 ,55.8164 ,1.55220 ,1.00712 ,9.88186 
284 ,56.0242 ,1.55426 ,0.99685 ,9.78113 
285 ,56.2164 ,1.55616 ,0.98317 ,9.64682 
286 ,56.4244 ,1.55826 ,0.95921 ,9.41177 
287 ,56.6325 ,1.56034 ,0.96948 ,9.51250 
288 ,56.8245 ,1.56224 ,0.94894 ,9.31103 
289 ,57.0164 ,1.56415 ,0.93183 ,9.14314 
290 ,57.2086 ,1.56610 ,0.92157 ,9.04241 
291 ,57.4328 ,1.56837 ,0.92499 ,9.07598 
292 ,57.6409 ,1.57037 ,0.89419 ,8.77378 
293 ,57.8325 ,1.57234 ,0.89077 ,8.74020 
294 ,58.0250 ,1.57428 ,0.85654 ,8.40442 
295 ,58.2330 ,1.57636 ,0.85654 ,8.40442 
296 ,58.4253 ,1.57823 ,0.83601 ,8.20295 
297 ,58.6173 ,1.58014 ,0.82575 ,8.10221 
298 ,58.8092 ,1.58215 ,0.82232 ,8.06864 
299 ,58.9854 ,1.58394 ,0.80179 ,7.86717 
300 ,59.1775 ,1.58572 ,0.80179 ,7.86717 
301 ,59.3692 ,1.58769 ,0.78126 ,7.66570 
302 ,59.5618 ,1.58967 ,0.76072 ,7.46423 
303 ,59.7538 ,1.59152 ,0.76072 ,7.46423 
304 ,59.9459 ,1.59350 ,0.74361 ,7.29633 
305 ,60.1539 ,1.59551 ,0.73677 ,7.22918 
306 ,60.3461 ,1.59748 ,0.70597 ,6.92697 
307 ,60.5380 ,1.59939 ,0.72308 ,7.09486 
308 ,60.7463 ,1.60142 ,0.67859 ,6.65835 
309 ,60.9540 ,1.60354 ,0.69228 ,6.79266 
310 ,61.1462 ,1.60547 ,0.66833 ,6.55761 
311 ,61.3381 ,1.60736 ,0.66490 ,6.52403 
312 ,61.5304 ,1.60929 ,0.64095 ,6.28899 
313 ,61.7384 ,1.61126 ,0.61699 ,6.05394 
314 ,61.9306 ,1.61330 ,0.62042 ,6.08752 
315 ,62.1226 ,1.61522 ,0.59646 ,5.85247 
316 ,62.3308 ,1.61733 ,0.59988 ,5.88605 
317 ,62.5390 ,1.61942 ,0.58962 ,5.78531 
318 ,62.7308 ,1.62134 ,0.58277 ,5.71815 
319 ,62.9391 ,1.62340 ,0.56566 ,5.55026 
320 ,63.1309 ,1.62532 ,0.55539 ,5.44953 
321 ,63.3229 ,1.62719 ,0.53828 ,5.28164 
322 ,63.5151 ,1.62910 ,0.53828 ,5.28164 
323 ,63.7071 ,1.63102 ,0.51091 ,5.01301 
324 ,63.8993 ,1.63302 ,0.49722 ,4.87870 
325 ,64.0755 ,1.63482 ,0.48695 ,4.77796 
326 ,64.2834 ,1.63668 ,0.47326 ,4.64365 
327 ,64.4757 ,1.63876 ,0.47668 ,4.67723 
328 ,64.6998 ,1.64099 ,0.45957 ,4.50934 
329 ,64.9075 ,1.64303 ,0.42193 ,4.13997 
330 ,65.1000 ,1.64498 ,0.43904 ,4.30787 
331 ,65.2920 ,1.64691 ,0.40824 ,4.00566 
332 ,65.4836 ,1.64879 ,0.40482 ,3.97208 
333 ,65.6762 ,1.65071 ,0.40482 ,3.97208 
334 ,65.8842 ,1.65275 ,0.38429 ,3.77061 
335 ,66.0763 ,1.65478 ,0.38429 ,3.77061 
336 ,66.2844 ,1.65677 ,0.37060 ,3.63630 
337 ,66.4764 ,1.65877 ,0.35006 ,3.43483 
338 ,66.7006 ,1.66094 ,0.33980 ,3.33410 
339 ,66.9087 ,1.66309 ,0.30900 ,3.03189 
340 ,67.1008 ,1.66497 ,0.30900 ,3.03189 
341 ,67.2929 ,1.66692 ,0.30558 ,2.99831 
342 ,67.5007 ,1.66887 ,0.28504 ,2.79684 
343 ,67.7250 ,1.67120 ,0.27135 ,2.66253 
344 ,67.9331 ,1.67316 ,0.28504 ,2.79684 
345 ,68.1412 ,1.67542 ,0.26451 ,2.59537 
346 ,68.3329 ,1.67734 ,0.24055 ,2.36032 
347 ,68.5414 ,1.67932 ,0.24055 ,2.36032 
348 ,68.7330 ,1.68131 ,0.22344 ,2.19243 
349 ,68.9255 ,1.68320 ,0.20976 ,2.05812 
350 ,69.1176 ,1.68512 ,0.21660 ,2.12528 
351 ,69.3096 ,1.68706 ,0.17896 ,1.75592 
352 ,69.5017 ,1.68900 ,0.17896 ,1.75592 
353 ,69.7099 ,1.69106 ,0.14816 ,1.45371 
354 ,69.9019 ,1.69298 ,0.14816 ,1.45371 
355 ,70.0940 ,1.69490 ,0.14473 ,1.42013 
356 ,70.2861 ,1.69684 ,0.12762 ,1.25224 
357 ,70.4942 ,1.69881 ,0.12762 ,1.25224 
358 ,70.7184 ,1.70114 ,0.12420 ,1.21866 
359 ,70.9259 ,1.70317 ,0.08656 ,0.84930 
360 ,71.1185 ,1.70512 ,0.08656 ,0.84930 
361 ,71.3104 ,1.70706 ,0.06260 ,0.61425 
362 ,71.5025 ,1.70898 ,0.07629 ,0.74857 
363 ,71.6947 ,1.71086 ,0.05918 ,0.58067 
364 ,71.9028 ,1.71295 ,0.04549 ,0.44636 
365 ,72.0788 ,1.71487 ,0.03522 ,0.34563 
366 ,72.2706 ,1.71665 ,0.01469 ,0.14416 
367 ,72.4630 ,1.71858 ,0.02496 ,0.24489 
368 ,72.6711 ,1.72070 ,-0.00584 ,-0.05731 
369 ,72.8631 ,1.72261 ,-0.00926 ,-0.09089 
370 ,73.0548 ,1.72448 ,-0.00584 ,-0.05731 
371 ,73.2472 ,1.72643 ,-0.02295 ,-0.22520 
372 ,73.4551 ,1.72850 ,-0.03322 ,-0.32594 
373 ,73.6474 ,1.73044 ,-0.05033 ,-0.49383 
374 ,73.8556 ,1.73249 ,-0.07086 ,-0.69530 
375 ,74.0476 ,1.73446 ,-0.07771 ,-0.76246 
376 ,74.2395 ,1.73633 ,-0.06060 ,-0.59457 
377 ,74.4317 ,1.73821 ,-0.10508 ,-1.03108 
378 ,74.6240 ,1.74015 ,-0.07771 ,-0.76246 
379 ,74.8318 ,1.74226 ,-0.11877 ,-1.16540 
380 ,75.0242 ,1.74418 ,-0.12219 ,-1.19898 
381 ,75.2161 ,1.74609 ,-0.13588 ,-1.33329 
382 ,75.3921 ,1.74803 ,-0.15299 ,-1.50118 
383 ,75.5840 ,1.74978 ,-0.14957 ,-1.46760 
384 ,75.7763 ,1.75175 ,-0.15642 ,-1.53476 
385 ,75.9684 ,1.75357 ,-0.17353 ,-1.70265 
386 ,76.1606 ,1.75558 ,-0.17011 ,-1.66907 
387 ,76.3683 ,1.75761 ,-0.19064 ,-1.87054 
388 ,76.5606 ,1.75958 ,-0.19748 ,-1.93770 
389 ,76.7527 ,1.76144 ,-0.21802 ,-2.13917 
390 ,76.9449 ,1.76338 ,-0.21117 ,-2.07201 
391 ,77.1367 ,1.76532 ,-0.24197 ,-2.37422 
392 ,77.3290 ,1.76724 ,-0.24539 ,-2.40779 
393 ,77.5366 ,1.76924 ,-0.25908 ,-2.54211 
394 ,77.7290 ,1.77121 ,-0.25908 ,-2.54211 
395 ,77.9370 ,1.77334 ,-0.26250 ,-2.57569 
396 ,78.1452 ,1.77535 ,-0.27619 ,-2.71000 
397 ,78.3372 ,1.77731 ,-0.29330 ,-2.87789 
398 ,78.5453 ,1.77927 ,-0.29673 ,-2.91147 
399 ,78.7536 ,1.78151 ,-0.32410 ,-3.18010 
400 ,78.9778 ,1.78361 ,-0.31384 ,-3.07936 
401 ,79.2017 ,1.78587 ,-0.32068 ,-3.14652 
402 ,79.4099 ,1.78801 ,-0.35490 ,-3.48230 
403 ,79.6018 ,1.78988 ,-0.36175 ,-3.54946 
404 ,79.7780 ,1.79182 ,-0.37886 ,-3.71735 
405 ,79.9701 ,1.79362 ,-0.36517 ,-3.58303 
406 ,80.1782 ,1.79555 ,-0.37886 ,-3.71735 
407 ,80.3860 ,1.79776 ,-0.39597 ,-3.88524 
408 ,80.5783 ,1.79970 ,-0.40623 ,-3.98597 
409 ,80.7860 ,1.80179 ,-0.40623 ,-3.98597 
410 ,80.9944 ,1.80378 ,-0.43361 ,-4.25460 
411 ,81.2023 ,1.80594 ,-0.43703 ,-4.28818 
412 ,81.3785 ,1.80781 ,-0.44046 ,-4.32176 
413 ,81.5707 ,1.80961 ,-0.44046 ,-4.32176 
414 ,81.7787 ,1.81158 ,-0.45414 ,-4.45607 
415 ,81.9870 ,1.81374 ,-0.45757 ,-4.48965 
416 ,82.2111 ,1.81604 ,-0.46783 ,-4.59038 
417 ,82.4030 ,1.81794 ,-0.47810 ,-4.69112 
418 ,82.5789 ,1.81983 ,-0.50548 ,-4.95975 
419 ,82.7708 ,1.82158 ,-0.50548 ,-4.95975 
420 ,82.9628 ,1.82356 ,-0.50890 ,-4.99332 
421 ,83.1389 ,1.82543 ,-0.52943 ,-5.19479 
422 ,83.3472 ,1.82725 ,-0.54654 ,-5.36268 
423 ,83.5395 ,1.82933 ,-0.55681 ,-5.46342 
424 ,83.7313 ,1.83119 ,-0.54312 ,-5.32911 
425 ,83.9236 ,1.83308 ,-0.56023 ,-5.49700 
426 ,84.1317 ,1.83519 ,-0.57392 ,-5.63131 
427 ,84.3239 ,1.83709 ,-0.58761 ,-5.76562 
428 ,84.5160 ,1.83904 ,-0.58077 ,-5.69847 
429 ,84.7080 ,1.84100 ,-0.59103 ,-5.79920 
430 ,84.9001 ,1.84290 ,-0.60130 ,-5.89994 
431 ,85.1082 ,1.84496 ,-0.60814 ,-5.96709 
432 ,85.2840 ,1.84687 ,-0.62868 ,-6.16856 
433 ,85.4764 ,1.84865 ,-0.63894 ,-6.26930 
434 ,85.6845 ,1.85075 ,-0.65605 ,-6.43719 
435 ,85.8926 ,1.85285 ,-0.64921 ,-6.37003 
436 ,86.1007 ,1.85480 ,-0.66290 ,-6.50435 
437 ,86.2922 ,1.85694 ,-0.66290 ,-6.50435 
438 ,86.4849 ,1.85872 ,-0.68001 ,-6.67224 
439 ,86.6766 ,1.86066 ,-0.70054 ,-6.87371 
440 ,86.8690 ,1.86261 ,-0.69370 ,-6.80655 
441 ,87.0772 ,1.86465 ,-0.70396 ,-6.90729 
442 ,87.2530 ,1.86655 ,-0.71423 ,-7.00802 
443 ,87.4452 ,1.86831 ,-0.72450 ,-7.10876 
444 ,87.6373 ,1.87023 ,-0.72792 ,-7.14233 
445 ,87.8294 ,1.87214 ,-0.74161 ,-7.27665 
446 ,88.0214 ,1.87410 ,-0.75187 ,-7.37738 
447 ,88.2135 ,1.87602 ,-0.74845 ,-7.34380 
448 ,88.4053 ,1.87793 ,-0.77241 ,-7.57885 
449 ,88.5975 ,1.87991 ,-0.77925 ,-7.64601 
450 ,88.7898 ,1.88184 ,-0.78610 ,-7.71317 
451 ,88.9819 ,1.88375 ,-0.80321 ,-7.88106 
452 ,89.1899 ,1.88579 ,-0.79978 ,-7.84748 
453 ,89.3819 ,1.88768 ,-0.81689 ,-8.01537 
454 ,89.5736 ,1.88960 ,-0.81005 ,-7.94821 
455 ,89.7661 ,1.89154 ,-0.83401 ,-8.18326 
456 ,89.9582 ,1.89353 ,-0.83743 ,-8.21684 
457 ,90.1659 ,1.89551 ,-0.85796 ,-8.41831 
458 ,90.3418 ,1.89746 ,-0.86138 ,-8.45189 
459 ,90.5659 ,1.89959 ,-0.87849 ,-8.61978 
460 ,90.7584 ,1.90150 ,-0.87165 ,-8.55262 
461 ,90.9665 ,1.90352 ,-0.88192 ,-8.65336 
462 ,91.1908 ,1.90570 ,-0.88534 ,-8.68694 
463 ,91.3829 ,1.90772 ,-0.89903 ,-8.82125 
