Data stamp = , 29-04-2022 21:31:55 440

Calibration Values: 
Slope = , 26.54 , g/V 
Offset Voltage at no contact = , -0.501760 , V 

No , Time , Stage Position ,   Mass , Force 
   ,  (s) ,      (mm)      ,   (g)  , (mN)  

1 ,0.0000 ,1.04950 ,5.02817 ,49.33637 
2 ,0.2475 ,1.04959 ,5.02817 ,49.33637 
3 ,0.7597 ,1.05155 ,5.02132 ,49.26921 
4 ,0.9676 ,1.05365 ,5.00763 ,49.13490 
5 ,1.1601 ,1.05549 ,5.00421 ,49.10132 
6 ,1.3680 ,1.05759 ,4.99737 ,49.03416 
7 ,1.5600 ,1.05950 ,4.96999 ,48.76554 
8 ,1.7527 ,1.06141 ,4.97341 ,48.79911 
9 ,1.9604 ,1.06351 ,4.94261 ,48.49691 
10 ,2.1526 ,1.06540 ,4.94603 ,48.53049 
11 ,2.3606 ,1.06740 ,4.91523 ,48.22828 
12 ,2.5529 ,1.06947 ,4.90497 ,48.12755 
13 ,2.7449 ,1.07136 ,4.86732 ,47.75819 
14 ,2.9526 ,1.07348 ,4.86390 ,47.72461 
15 ,3.1451 ,1.07540 ,4.82968 ,47.38883 
16 ,3.3690 ,1.07754 ,4.81599 ,47.25451 
17 ,3.5612 ,1.07954 ,4.79888 ,47.08662 
18 ,3.7692 ,1.08164 ,4.78861 ,46.98589 
19 ,3.9772 ,1.08366 ,4.76124 ,46.71726 
20 ,4.1694 ,1.08557 ,4.74070 ,46.51579 
21 ,4.3772 ,1.08769 ,4.72702 ,46.38148 
22 ,4.5690 ,1.08963 ,4.70648 ,46.18001 
23 ,4.7612 ,1.09152 ,4.68937 ,46.01212 
24 ,4.9694 ,1.09349 ,4.67226 ,45.84422 
25 ,5.1774 ,1.09563 ,4.64831 ,45.60918 
26 ,5.3698 ,1.09763 ,4.62777 ,45.40771 
27 ,5.5618 ,1.09958 ,4.60040 ,45.13908 
28 ,5.7541 ,1.10148 ,4.60040 ,45.13908 
29 ,5.9621 ,1.10338 ,4.56960 ,44.83688 
30 ,6.1700 ,1.10556 ,4.56960 ,44.83688 
31 ,6.3784 ,1.10768 ,4.52169 ,44.36678 
32 ,6.5859 ,1.10977 ,4.50800 ,44.23247 
33 ,6.8106 ,1.11188 ,4.49773 ,44.13173 
34 ,7.0027 ,1.11395 ,4.47035 ,43.86310 
35 ,7.1947 ,1.11579 ,4.46009 ,43.76237 
36 ,7.3864 ,1.11776 ,4.44298 ,43.59448 
37 ,7.5628 ,1.11964 ,4.40875 ,43.25870 
38 ,7.7555 ,1.12143 ,4.41218 ,43.29227 
39 ,7.9472 ,1.12338 ,4.40533 ,43.22512 
40 ,8.1392 ,1.12532 ,4.35058 ,42.68786 
41 ,8.3631 ,1.12742 ,4.35058 ,42.68786 
42 ,8.5552 ,1.12946 ,4.33689 ,42.55355 
43 ,8.7633 ,1.13150 ,4.30951 ,42.28492 
44 ,8.9714 ,1.13348 ,4.29582 ,42.15061 
45 ,9.1633 ,1.13554 ,4.27187 ,41.91556 
46 ,9.3557 ,1.13749 ,4.24791 ,41.68051 
47 ,9.5632 ,1.13949 ,4.23765 ,41.57978 
48 ,9.7717 ,1.14167 ,4.23080 ,41.51262 
49 ,9.9794 ,1.14369 ,4.18974 ,41.10968 
50 ,10.1715 ,1.14558 ,4.18631 ,41.07611 
51 ,10.3800 ,1.14759 ,4.17947 ,41.00895 
52 ,10.5879 ,1.14976 ,4.16236 ,40.84106 
53 ,10.8118 ,1.15189 ,4.12471 ,40.47170 
54 ,11.0042 ,1.15393 ,4.11787 ,40.40454 
55 ,11.2122 ,1.15590 ,4.09049 ,40.13591 
56 ,11.4204 ,1.15809 ,4.07338 ,39.96802 
57 ,11.6125 ,1.16003 ,4.05627 ,39.80013 
58 ,11.8045 ,1.16202 ,4.04258 ,39.66582 
59 ,11.9967 ,1.16381 ,4.02547 ,39.49793 
60 ,12.1887 ,1.16571 ,4.02547 ,39.49793 
61 ,12.3645 ,1.16762 ,3.98441 ,39.09499 
62 ,12.5570 ,1.16943 ,3.96045 ,38.85994 
63 ,12.7808 ,1.17169 ,3.95361 ,38.79278 
64 ,12.9729 ,1.17368 ,3.93650 ,38.62489 
65 ,13.1650 ,1.17556 ,3.93307 ,38.59131 
66 ,13.3730 ,1.17763 ,3.91254 ,38.38984 
67 ,13.5653 ,1.17960 ,3.88858 ,38.15479 
68 ,13.7579 ,1.18142 ,3.87147 ,37.98690 
69 ,13.9330 ,1.18335 ,3.86121 ,37.88617 
70 ,14.1417 ,1.18517 ,3.84410 ,37.71828 
71 ,14.3497 ,1.18740 ,3.83725 ,37.65112 
72 ,14.5417 ,1.18928 ,3.79961 ,37.28176 
73 ,14.7339 ,1.19120 ,3.78592 ,37.14744 
74 ,14.9417 ,1.19330 ,3.77565 ,37.04671 
75 ,15.1179 ,1.19517 ,3.75170 ,36.81166 
76 ,15.3101 ,1.19699 ,3.75170 ,36.81166 
77 ,15.5022 ,1.19887 ,3.73117 ,36.61019 
78 ,15.7262 ,1.20107 ,3.70037 ,36.30799 
79 ,15.9183 ,1.20305 ,3.68668 ,36.17367 
80 ,16.1261 ,1.20509 ,3.66957 ,36.00578 
81 ,16.3185 ,1.20706 ,3.64561 ,35.77073 
82 ,16.5266 ,1.20910 ,3.63534 ,35.67000 
83 ,16.7186 ,1.21104 ,3.62166 ,35.53569 
84 ,16.9267 ,1.21307 ,3.59428 ,35.26706 
85 ,17.1346 ,1.21521 ,3.57375 ,35.06559 
86 ,17.3108 ,1.21706 ,3.57717 ,35.09917 
87 ,17.5190 ,1.21897 ,3.56006 ,34.93128 
88 ,17.7270 ,1.22108 ,3.53268 ,34.66265 
89 ,17.9352 ,1.22318 ,3.50188 ,34.36045 
90 ,18.1270 ,1.22513 ,3.49846 ,34.32687 
91 ,18.3189 ,1.22706 ,3.48477 ,34.19255 
92 ,18.5272 ,1.22905 ,3.44028 ,33.75604 
93 ,18.7356 ,1.23118 ,3.43686 ,33.72246 
94 ,18.9436 ,1.23331 ,3.44370 ,33.78961 
95 ,19.1355 ,1.23519 ,3.41290 ,33.48741 
96 ,19.3437 ,1.23730 ,3.39921 ,33.35310 
97 ,19.5359 ,1.23920 ,3.37184 ,33.08447 
98 ,19.7439 ,1.24131 ,3.36157 ,32.98374 
99 ,19.9360 ,1.24316 ,3.33762 ,32.74869 
100 ,20.1282 ,1.24512 ,3.32735 ,32.64795 
101 ,20.3202 ,1.24706 ,3.32051 ,32.58080 
102 ,20.5118 ,1.24898 ,3.27944 ,32.17786 
103 ,20.7043 ,1.25090 ,3.28971 ,32.27859 
104 ,20.8964 ,1.25284 ,3.26575 ,32.04354 
105 ,21.0886 ,1.25474 ,3.24864 ,31.87565 
106 ,21.2806 ,1.25665 ,3.23837 ,31.77492 
107 ,21.4886 ,1.25873 ,3.21442 ,31.53987 
108 ,21.6805 ,1.26067 ,3.20415 ,31.43913 
109 ,21.8727 ,1.26255 ,3.17677 ,31.17051 
110 ,22.0810 ,1.26465 ,3.16993 ,31.10335 
111 ,22.2730 ,1.26656 ,3.13571 ,30.76757 
112 ,22.4810 ,1.26867 ,3.14940 ,30.90188 
113 ,22.6727 ,1.27052 ,3.10491 ,30.46536 
114 ,22.8652 ,1.27249 ,3.10833 ,30.49894 
115 ,23.0733 ,1.27457 ,3.07411 ,30.16316 
116 ,23.2814 ,1.27661 ,3.07069 ,30.12958 
117 ,23.4735 ,1.27852 ,3.04673 ,29.89453 
118 ,23.6655 ,1.28051 ,3.03989 ,29.82737 
119 ,23.8576 ,1.28243 ,3.02278 ,29.65948 
120 ,24.0495 ,1.28434 ,2.99540 ,29.39086 
121 ,24.2578 ,1.28642 ,2.98171 ,29.25654 
122 ,24.4499 ,1.28830 ,2.97144 ,29.15581 
123 ,24.6419 ,1.29024 ,2.97144 ,29.15581 
124 ,24.8336 ,1.29221 ,2.93722 ,28.82003 
125 ,25.0262 ,1.29409 ,2.93038 ,28.75287 
126 ,25.2502 ,1.29620 ,2.90642 ,28.51782 
127 ,25.4581 ,1.29848 ,2.89273 ,28.38351 
128 ,25.6663 ,1.30049 ,2.87220 ,28.18204 
129 ,25.8740 ,1.30256 ,2.84482 ,27.91341 
130 ,26.0664 ,1.30444 ,2.84140 ,27.87983 
131 ,26.2590 ,1.30644 ,2.83798 ,27.84625 
132 ,26.4507 ,1.30833 ,2.80376 ,27.51047 
133 ,26.6422 ,1.31026 ,2.79691 ,27.44332 
134 ,26.8347 ,1.31214 ,2.77638 ,27.24185 
135 ,27.0265 ,1.31403 ,2.75585 ,27.04038 
136 ,27.2189 ,1.31600 ,2.76269 ,27.10753 
137 ,27.4271 ,1.31808 ,2.71820 ,26.67101 
138 ,27.6190 ,1.32001 ,2.71820 ,26.67101 
139 ,27.7947 ,1.32184 ,2.68740 ,26.36881 
140 ,27.9872 ,1.32365 ,2.68056 ,26.30165 
141 ,28.1787 ,1.32559 ,2.67372 ,26.23450 
142 ,28.3708 ,1.32747 ,2.64292 ,25.93229 
143 ,28.5628 ,1.32944 ,2.63949 ,25.89871 
144 ,28.7554 ,1.33139 ,2.62923 ,25.79798 
145 ,28.9796 ,1.33365 ,2.60527 ,25.56293 
146 ,29.1873 ,1.33568 ,2.57789 ,25.29430 
147 ,29.3794 ,1.33761 ,2.58816 ,25.39504 
148 ,29.5717 ,1.33952 ,2.55052 ,25.02568 
149 ,29.7637 ,1.34142 ,2.55052 ,25.02568 
150 ,29.9560 ,1.34337 ,2.53683 ,24.89136 
151 ,30.1639 ,1.34551 ,2.51972 ,24.72347 
152 ,30.3557 ,1.34736 ,2.50261 ,24.55558 
153 ,30.5483 ,1.34927 ,2.48207 ,24.35411 
154 ,30.7402 ,1.35126 ,2.48550 ,24.38769 
155 ,30.9484 ,1.35333 ,2.43416 ,23.88402 
156 ,31.1404 ,1.35519 ,2.45127 ,24.05191 
157 ,31.3486 ,1.35726 ,2.40679 ,23.61539 
158 ,31.5403 ,1.35924 ,2.40679 ,23.61539 
159 ,31.7491 ,1.36134 ,2.38283 ,23.38034 
160 ,31.9408 ,1.36321 ,2.37256 ,23.27961 
161 ,32.1327 ,1.36512 ,2.35888 ,23.14529 
162 ,32.3409 ,1.36720 ,2.34861 ,23.04456 
163 ,32.5326 ,1.36916 ,2.34177 ,22.97740 
164 ,32.7251 ,1.37108 ,2.30412 ,22.60804 
165 ,32.9171 ,1.37300 ,2.31097 ,22.67520 
166 ,33.1092 ,1.37488 ,2.27674 ,22.33941 
167 ,33.3013 ,1.37682 ,2.26306 ,22.20510 
168 ,33.5094 ,1.37888 ,2.24594 ,22.03721 
169 ,33.7012 ,1.38082 ,2.23568 ,21.93647 
170 ,33.8936 ,1.38274 ,2.24594 ,22.03721 
171 ,34.0855 ,1.38462 ,2.21515 ,21.73500 
172 ,34.2777 ,1.38662 ,2.20488 ,21.63427 
173 ,34.4698 ,1.38853 ,2.18435 ,21.43280 
174 ,34.6614 ,1.39051 ,2.18435 ,21.43280 
175 ,34.8540 ,1.39234 ,2.17750 ,21.36564 
176 ,35.0620 ,1.39443 ,2.13301 ,20.92912 
177 ,35.2547 ,1.39635 ,2.13986 ,20.99628 
178 ,35.4461 ,1.39828 ,2.09195 ,20.52619 
179 ,35.6381 ,1.40023 ,2.09879 ,20.59334 
180 ,35.8462 ,1.40224 ,2.06457 ,20.25756 
181 ,36.0381 ,1.40415 ,2.07826 ,20.39187 
182 ,36.2304 ,1.40612 ,2.05088 ,20.12325 
183 ,36.4385 ,1.40813 ,2.06457 ,20.25756 
184 ,36.6462 ,1.41020 ,2.03719 ,19.98893 
185 ,36.8383 ,1.41211 ,2.02008 ,19.82104 
186 ,37.0466 ,1.41421 ,1.99270 ,19.55241 
187 ,37.2548 ,1.41631 ,1.99613 ,19.58599 
188 ,37.4465 ,1.41822 ,1.96190 ,19.25021 
189 ,37.6227 ,1.42010 ,1.95506 ,19.18305 
190 ,37.8149 ,1.42192 ,1.95164 ,19.14948 
191 ,38.0067 ,1.42386 ,1.91742 ,18.81369 
192 ,38.1990 ,1.42578 ,1.91742 ,18.81369 
193 ,38.4073 ,1.42782 ,1.89346 ,18.57864 
194 ,38.5991 ,1.42973 ,1.88319 ,18.47791 
195 ,38.8073 ,1.43183 ,1.86266 ,18.27644 
196 ,38.9995 ,1.43374 ,1.85240 ,18.17570 
197 ,39.1917 ,1.43568 ,1.85240 ,18.17570 
198 ,39.3998 ,1.43782 ,1.82502 ,17.90708 
199 ,39.5916 ,1.43976 ,1.81817 ,17.83992 
200 ,39.7997 ,1.44179 ,1.79764 ,17.63845 
201 ,40.0080 ,1.44384 ,1.77369 ,17.40340 
202 ,40.2156 ,1.44585 ,1.78053 ,17.47056 
203 ,40.4082 ,1.44783 ,1.75315 ,17.20193 
204 ,40.6323 ,1.44998 ,1.75315 ,17.20193 
205 ,40.8243 ,1.45205 ,1.72578 ,16.93331 
206 ,41.0163 ,1.45391 ,1.71209 ,16.79899 
207 ,41.2084 ,1.45581 ,1.70524 ,16.73184 
208 ,41.4006 ,1.45777 ,1.68471 ,16.53037 
209 ,41.6084 ,1.45986 ,1.66418 ,16.32890 
210 ,41.8008 ,1.46180 ,1.65049 ,16.19458 
211 ,41.9928 ,1.46368 ,1.65733 ,16.26174 
212 ,42.1849 ,1.46562 ,1.62311 ,15.92596 
213 ,42.3765 ,1.46766 ,1.61969 ,15.89238 
214 ,42.5689 ,1.46946 ,1.61284 ,15.82522 
215 ,42.7611 ,1.47140 ,1.59231 ,15.62375 
216 ,42.9690 ,1.47341 ,1.59231 ,15.62375 
217 ,43.1613 ,1.47534 ,1.54782 ,15.18724 
218 ,43.3533 ,1.47729 ,1.56151 ,15.32155 
219 ,43.5454 ,1.47924 ,1.54440 ,15.15366 
220 ,43.7376 ,1.48115 ,1.52387 ,14.95219 
221 ,43.9292 ,1.48302 ,1.52045 ,14.91861 
222 ,44.1216 ,1.48496 ,1.48965 ,14.61640 
223 ,44.3138 ,1.48691 ,1.48965 ,14.61640 
224 ,44.5056 ,1.48881 ,1.46227 ,14.34778 
225 ,44.7140 ,1.49093 ,1.45542 ,14.28062 
226 ,44.9220 ,1.49297 ,1.43147 ,14.04557 
227 ,45.1141 ,1.49493 ,1.42462 ,13.97842 
228 ,45.3221 ,1.49692 ,1.41094 ,13.84410 
229 ,45.5143 ,1.49891 ,1.39725 ,13.70979 
230 ,45.7382 ,1.50103 ,1.38014 ,13.54190 
231 ,45.9302 ,1.50309 ,1.38698 ,13.60906 
232 ,46.1386 ,1.50513 ,1.35960 ,13.34043 
233 ,46.3306 ,1.50707 ,1.35618 ,13.30685 
234 ,46.5387 ,1.50914 ,1.32538 ,13.00465 
235 ,46.7464 ,1.51114 ,1.31854 ,12.93749 
236 ,46.9390 ,1.51315 ,1.29800 ,12.73602 
237 ,47.1309 ,1.51517 ,1.29800 ,12.73602 
238 ,47.3231 ,1.51698 ,1.26378 ,12.40024 
239 ,47.5308 ,1.51904 ,1.28089 ,12.56813 
240 ,47.7227 ,1.52095 ,1.25009 ,12.26592 
241 ,47.9148 ,1.52288 ,1.25352 ,12.29950 
242 ,48.0908 ,1.52478 ,1.21929 ,11.96372 
243 ,48.2831 ,1.52654 ,1.22614 ,12.03088 
244 ,48.4753 ,1.52851 ,1.21245 ,11.89656 
245 ,48.6994 ,1.53067 ,1.18507 ,11.62794 
246 ,48.8918 ,1.53263 ,1.18165 ,11.59436 
247 ,49.0999 ,1.53476 ,1.14743 ,11.25857 
248 ,49.3074 ,1.53683 ,1.15085 ,11.29215 
249 ,49.5000 ,1.53870 ,1.12690 ,11.05710 
250 ,49.6921 ,1.54068 ,1.12347 ,11.02353 
251 ,49.8838 ,1.54259 ,1.09952 ,10.78848 
252 ,50.0760 ,1.54446 ,1.09952 ,10.78848 
253 ,50.2683 ,1.54639 ,1.07899 ,10.58701 
254 ,50.4763 ,1.54849 ,1.05161 ,10.31838 
255 ,50.6684 ,1.55042 ,1.05845 ,10.38554 
256 ,50.8606 ,1.55236 ,1.03792 ,10.18407 
257 ,51.0681 ,1.55440 ,1.03792 ,10.18407 
258 ,51.2607 ,1.55635 ,0.99685 ,9.78113 
259 ,51.4688 ,1.55842 ,1.00028 ,9.81471 
260 ,51.6765 ,1.56049 ,0.99001 ,9.71397 
261 ,51.8690 ,1.56240 ,0.97974 ,9.61324 
262 ,52.0928 ,1.56456 ,0.95237 ,9.34461 
263 ,52.3010 ,1.56670 ,0.93525 ,9.17672 
264 ,52.4928 ,1.56865 ,0.94210 ,9.24388 
265 ,52.6852 ,1.57050 ,0.92157 ,9.04241 
266 ,52.8768 ,1.57246 ,0.90446 ,8.87451 
267 ,53.0693 ,1.57438 ,0.90103 ,8.84094 
268 ,53.2613 ,1.57635 ,0.87023 ,8.53873 
269 ,53.4536 ,1.57824 ,0.88392 ,8.67305 
270 ,53.6455 ,1.58018 ,0.86681 ,8.50515 
271 ,53.8378 ,1.58207 ,0.84970 ,8.33726 
272 ,54.0454 ,1.58417 ,0.82917 ,8.13579 
273 ,54.2379 ,1.58607 ,0.82232 ,8.06864 
274 ,54.4294 ,1.58804 ,0.82575 ,8.10221 
275 ,54.6218 ,1.59000 ,0.78810 ,7.73285 
276 ,54.8298 ,1.59200 ,0.78468 ,7.69927 
277 ,55.0222 ,1.59391 ,0.76757 ,7.53138 
278 ,55.2140 ,1.59588 ,0.76415 ,7.49780 
279 ,55.4063 ,1.59774 ,0.74019 ,7.26276 
280 ,55.5819 ,1.59962 ,0.71624 ,7.02771 
281 ,55.7744 ,1.60139 ,0.71624 ,7.02771 
282 ,55.9666 ,1.60336 ,0.71624 ,7.02771 
283 ,56.1746 ,1.60538 ,0.70255 ,6.89340 
284 ,56.3828 ,1.60754 ,0.67175 ,6.59119 
285 ,56.6066 ,1.60968 ,0.67517 ,6.62477 
286 ,56.8149 ,1.61184 ,0.66148 ,6.49046 
287 ,57.0230 ,1.61395 ,0.64437 ,6.32256 
288 ,57.2151 ,1.61588 ,0.63068 ,6.18825 
289 ,57.4230 ,1.61795 ,0.60673 ,5.95320 
290 ,57.6151 ,1.61988 ,0.60673 ,5.95320 
291 ,57.8071 ,1.62174 ,0.60330 ,5.91962 
292 ,57.9834 ,1.62363 ,0.57251 ,5.61742 
293 ,58.1754 ,1.62542 ,0.57935 ,5.68458 
294 ,58.3673 ,1.62738 ,0.56908 ,5.58384 
295 ,58.5598 ,1.62927 ,0.53486 ,5.24806 
296 ,58.7517 ,1.63122 ,0.55882 ,5.48311 
297 ,58.9437 ,1.63312 ,0.52459 ,5.14732 
298 ,59.1519 ,1.63516 ,0.51433 ,5.04659 
299 ,59.3598 ,1.63730 ,0.50406 ,4.94585 
300 ,59.5519 ,1.63923 ,0.48353 ,4.74438 
301 ,59.7440 ,1.64109 ,0.48353 ,4.74438 
302 ,59.9358 ,1.64303 ,0.46300 ,4.54291 
303 ,60.1281 ,1.64497 ,0.45615 ,4.47576 
304 ,60.3364 ,1.64710 ,0.43220 ,4.24071 
305 ,60.5604 ,1.64918 ,0.43220 ,4.24071 
306 ,60.7530 ,1.65119 ,0.42877 ,4.20713 
307 ,60.9604 ,1.65333 ,0.39797 ,3.90493 
308 ,61.1527 ,1.65517 ,0.39455 ,3.87135 
309 ,61.3605 ,1.65730 ,0.38429 ,3.77061 
310 ,61.5688 ,1.65934 ,0.37402 ,3.66988 
311 ,61.7609 ,1.66132 ,0.35006 ,3.43483 
312 ,61.9532 ,1.66326 ,0.33980 ,3.33410 
313 ,62.1607 ,1.66532 ,0.34322 ,3.36767 
314 ,62.3690 ,1.66730 ,0.31584 ,3.09905 
315 ,62.5771 ,1.66943 ,0.30558 ,2.99831 
316 ,62.7853 ,1.67151 ,0.30900 ,3.03189 
317 ,62.9774 ,1.67345 ,0.28162 ,2.76326 
318 ,63.1856 ,1.67548 ,0.28162 ,2.76326 
319 ,63.3775 ,1.67753 ,0.25082 ,2.46106 
320 ,63.5858 ,1.67954 ,0.26109 ,2.56179 
321 ,63.7937 ,1.68161 ,0.25082 ,2.46106 
322 ,64.0016 ,1.68371 ,0.22687 ,2.22601 
323 ,64.1940 ,1.68563 ,0.21318 ,2.09170 
324 ,64.3856 ,1.68750 ,0.22687 ,2.22601 
325 ,64.5776 ,1.68958 ,0.19264 ,1.89023 
326 ,64.7698 ,1.69132 ,0.19607 ,1.92381 
327 ,64.9458 ,1.69324 ,0.17553 ,1.72234 
328 ,65.1381 ,1.69506 ,0.17553 ,1.72234 
329 ,65.3305 ,1.69697 ,0.17211 ,1.68876 
330 ,65.5225 ,1.69890 ,0.14816 ,1.45371 
331 ,65.7145 ,1.70085 ,0.12420 ,1.21866 
332 ,65.9067 ,1.70269 ,0.12762 ,1.25224 
333 ,66.1148 ,1.70483 ,0.09340 ,0.91646 
334 ,66.3230 ,1.70681 ,0.10025 ,0.98361 
335 ,66.5305 ,1.70896 ,0.07971 ,0.78214 
336 ,66.7229 ,1.71088 ,0.08998 ,0.88288 
337 ,66.9149 ,1.71283 ,0.06260 ,0.61425 
338 ,67.1069 ,1.71471 ,0.06945 ,0.68141 
339 ,67.2992 ,1.71665 ,0.03865 ,0.37920 
340 ,67.5073 ,1.71875 ,0.04891 ,0.47994 
341 ,67.6994 ,1.72066 ,0.02838 ,0.27847 
342 ,67.9072 ,1.72271 ,0.01469 ,0.14416 
343 ,68.0996 ,1.72464 ,-0.00584 ,-0.05731 
344 ,68.2916 ,1.72661 ,-0.01953 ,-0.19163 
345 ,68.4837 ,1.72849 ,-0.01269 ,-0.12447 
346 ,68.6913 ,1.73056 ,-0.03322 ,-0.32594 
347 ,68.8839 ,1.73254 ,-0.03322 ,-0.32594 
348 ,69.0757 ,1.73445 ,-0.05033 ,-0.49383 
349 ,69.2840 ,1.73652 ,-0.06060 ,-0.59457 
350 ,69.4757 ,1.73840 ,-0.08113 ,-0.79604 
351 ,69.6680 ,1.74029 ,-0.07771 ,-0.76246 
352 ,69.8598 ,1.74241 ,-0.10851 ,-1.06466 
353 ,70.0523 ,1.74414 ,-0.11193 ,-1.09824 
354 ,70.2440 ,1.74605 ,-0.10166 ,-0.99751 
355 ,70.4361 ,1.74800 ,-0.12904 ,-1.26613 
356 ,70.6280 ,1.74993 ,-0.13588 ,-1.33329 
357 ,70.8202 ,1.75182 ,-0.13588 ,-1.33329 
358 ,71.0124 ,1.75378 ,-0.16668 ,-1.63549 
359 ,71.2044 ,1.75571 ,-0.15299 ,-1.50118 
360 ,71.3804 ,1.75756 ,-0.18379 ,-1.80338 
361 ,71.5725 ,1.75933 ,-0.19748 ,-1.93770 
362 ,71.7646 ,1.76125 ,-0.18379 ,-1.80338 
363 ,71.9406 ,1.76316 ,-0.21117 ,-2.07201 
364 ,72.1327 ,1.76503 ,-0.21802 ,-2.13917 
365 ,72.3248 ,1.76686 ,-0.21117 ,-2.07201 
366 ,72.5170 ,1.76882 ,-0.22828 ,-2.23990 
367 ,72.7090 ,1.77073 ,-0.24539 ,-2.40779 
368 ,72.9011 ,1.77267 ,-0.23170 ,-2.27348 
369 ,73.0932 ,1.77453 ,-0.26935 ,-2.64284 
370 ,73.2853 ,1.77647 ,-0.26593 ,-2.60926 
371 ,73.4774 ,1.77841 ,-0.27961 ,-2.74358 
372 ,73.6693 ,1.78032 ,-0.28988 ,-2.84431 
373 ,73.8615 ,1.78224 ,-0.28304 ,-2.77716 
374 ,74.0375 ,1.78411 ,-0.31726 ,-3.11294 
375 ,74.2296 ,1.78591 ,-0.31726 ,-3.11294 
376 ,74.4218 ,1.78784 ,-0.31384 ,-3.07936 
377 ,74.6138 ,1.78976 ,-0.34806 ,-3.41514 
378 ,74.8061 ,1.79169 ,-0.34464 ,-3.38156 
379 ,74.9983 ,1.79362 ,-0.35148 ,-3.44872 
380 ,75.1904 ,1.79553 ,-0.36859 ,-3.61661 
381 ,75.3825 ,1.79746 ,-0.37201 ,-3.65019 
382 ,75.5906 ,1.79959 ,-0.38228 ,-3.75093 
383 ,75.7825 ,1.80147 ,-0.38570 ,-3.78450 
384 ,75.9905 ,1.80349 ,-0.40966 ,-4.01955 
385 ,76.1828 ,1.80545 ,-0.40966 ,-4.01955 
386 ,76.3744 ,1.80735 ,-0.44046 ,-4.32176 
387 ,76.5668 ,1.80934 ,-0.42335 ,-4.15387 
388 ,76.7748 ,1.81135 ,-0.46441 ,-4.55681 
389 ,76.9669 ,1.81329 ,-0.44046 ,-4.32176 
390 ,77.1751 ,1.81537 ,-0.46441 ,-4.55681 
391 ,77.3672 ,1.81725 ,-0.45072 ,-4.42249 
392 ,77.5433 ,1.81918 ,-0.47810 ,-4.69112 
393 ,77.7352 ,1.82095 ,-0.49521 ,-4.85901 
394 ,77.9275 ,1.82288 ,-0.48837 ,-4.79185 
395 ,78.1196 ,1.82485 ,-0.49179 ,-4.82543 
396 ,78.3117 ,1.82675 ,-0.52259 ,-5.12764 
397 ,78.5199 ,1.82877 ,-0.50890 ,-4.99332 
398 ,78.7434 ,1.83092 ,-0.54312 ,-5.32911 
399 ,78.9360 ,1.83302 ,-0.54654 ,-5.36268 
400 ,79.1442 ,1.83503 ,-0.54997 ,-5.39626 
401 ,79.3360 ,1.83699 ,-0.55339 ,-5.42984 
402 ,79.5283 ,1.83885 ,-0.57734 ,-5.66489 
403 ,79.7523 ,1.84114 ,-0.58761 ,-5.76562 
404 ,79.9444 ,1.84302 ,-0.57392 ,-5.63131 
405 ,80.1365 ,1.84495 ,-0.60472 ,-5.93352 
406 ,80.3446 ,1.84706 ,-0.60130 ,-5.89994 
407 ,80.5364 ,1.84895 ,-0.61841 ,-6.06783 
408 ,80.7283 ,1.85092 ,-0.62525 ,-6.13499 
409 ,80.9209 ,1.85285 ,-0.62525 ,-6.13499 
410 ,81.1289 ,1.85491 ,-0.66290 ,-6.50435 
411 ,81.3210 ,1.85687 ,-0.64236 ,-6.30288 
412 ,81.5290 ,1.85886 ,-0.66632 ,-6.53793 
413 ,81.7211 ,1.86083 ,-0.66974 ,-6.57150 
414 ,81.9130 ,1.86271 ,-0.69370 ,-6.80655 
415 ,82.1053 ,1.86465 ,-0.68685 ,-6.73940 
416 ,82.3292 ,1.86678 ,-0.71423 ,-7.00802 
417 ,82.5215 ,1.86883 ,-0.70739 ,-6.94086 
418 ,82.7296 ,1.87098 ,-0.75187 ,-7.37738 
419 ,82.9372 ,1.87299 ,-0.73818 ,-7.24307 
420 ,83.1297 ,1.87491 ,-0.73818 ,-7.24307 
421 ,83.3377 ,1.87701 ,-0.74161 ,-7.27665 
422 ,83.5297 ,1.87888 ,-0.76214 ,-7.47812 
423 ,83.7378 ,1.88101 ,-0.75872 ,-7.44454 
424 ,83.9298 ,1.88287 ,-0.77241 ,-7.57885 
425 ,84.1059 ,1.88479 ,-0.78267 ,-7.67959 
426 ,84.2978 ,1.88653 ,-0.79636 ,-7.81390 
427 ,84.5062 ,1.88858 ,-0.81689 ,-8.01537 
428 ,84.6983 ,1.89063 ,-0.82032 ,-8.04895 
429 ,84.8902 ,1.89248 ,-0.82716 ,-8.11611 
430 ,85.0985 ,1.89462 ,-0.81347 ,-7.98179 
431 ,85.3062 ,1.89662 ,-0.83743 ,-8.21684 
432 ,85.5147 ,1.89867 ,-0.83743 ,-8.21684 
433 ,85.7067 ,1.90068 ,-0.86481 ,-8.48547 
434 ,85.8987 ,1.90256 ,-0.85454 ,-8.38473 
435 ,86.0911 ,1.90454 ,-0.88192 ,-8.65336 
436 ,86.2988 ,1.90657 ,-0.87507 ,-8.58620 
437 ,86.4911 ,1.90848 ,-0.89560 ,-8.78767 
438 ,86.6832 ,1.91045 ,-0.89560 ,-8.78767 
439 ,86.9072 ,1.91263 ,-0.90929 ,-8.92198 
440 ,87.0993 ,1.91450 ,-0.91614 ,-8.98914 
441 ,87.2912 ,1.91653 ,-0.93667 ,-9.19061 
442 ,87.4995 ,1.91855 ,-0.93667 ,-9.19061 
443 ,87.7075 ,1.92064 ,-0.96063 ,-9.42566 
444 ,87.8997 ,1.92259 ,-0.95036 ,-9.32492 
445 ,88.1076 ,1.92460 ,-0.96063 ,-9.42566 
446 ,88.2998 ,1.92657 ,-0.96405 ,-9.45924 
447 ,88.4919 ,1.92852 ,-0.98458 ,-9.66071 
448 ,88.6839 ,1.93039 ,-0.97431 ,-9.55997 
449 ,88.8755 ,1.93233 ,-0.98800 ,-9.69429 
450 ,89.0517 ,1.93421 ,-1.01880 ,-9.99649 
451 ,89.2439 ,1.93604 ,-1.00854 ,-9.89576 
452 ,89.4840 ,1.93840 ,-1.01880 ,-9.99649 
453 ,89.6765 ,1.94036 ,-1.04960 ,-10.29869 
454 ,89.8684 ,1.94227 ,-1.05987 ,-10.39943 
455 ,90.0605 ,1.94420 ,-1.03591 ,-10.16438 
456 ,90.2531 ,1.94607 ,-1.05645 ,-10.36585 
457 ,90.4607 ,1.94820 ,-1.05302 ,-10.33227 
458 ,90.6529 ,1.95008 ,-1.10093 ,-10.80237 
459 ,90.8610 ,1.95221 ,-1.07356 ,-10.53374 
460 ,91.0688 ,1.95422 ,-1.10778 ,-10.86953 
461 ,91.2610 ,1.95616 ,-1.08382 ,-10.63448 
462 ,91.4531 ,1.95810 ,-1.11462 ,-10.93668 
