Data stamp = , 02-05-2022 13:18:48 763

Calibration Values: 
Slope = , 26.54 , g/V 
Offset Voltage at no contact = , -0.501760 , V 

No , Time , Stage Position ,   Mass , Force 
   ,  (s) ,      (mm)      ,   (g)  , (mN)  

1 ,0.0000 ,0.99950 ,5.40460 ,53.02998 
2 ,0.2125 ,0.99955 ,5.39434 ,52.92925 
3 ,0.7729 ,1.00178 ,5.41829 ,53.16429 
4 ,0.9972 ,1.00410 ,5.41829 ,53.16429 
5 ,1.2214 ,1.00631 ,5.41487 ,53.13072 
6 ,1.4134 ,1.00832 ,5.39776 ,52.96282 
7 ,1.6053 ,1.01023 ,5.38407 ,52.82851 
8 ,1.7976 ,1.01221 ,5.34643 ,52.45915 
9 ,2.0055 ,1.01425 ,5.33958 ,52.39199 
10 ,2.1976 ,1.01622 ,5.31221 ,52.12337 
11 ,2.4218 ,1.01839 ,5.30878 ,52.08979 
12 ,2.5979 ,1.02038 ,5.27798 ,51.78758 
13 ,2.7901 ,1.02215 ,5.26087 ,51.61969 
14 ,2.9817 ,1.02405 ,5.25403 ,51.55254 
15 ,3.1741 ,1.02605 ,5.21639 ,51.18317 
16 ,3.3823 ,1.02804 ,5.20612 ,51.08244 
17 ,3.5904 ,1.03016 ,5.17874 ,50.81381 
18 ,3.7823 ,1.03207 ,5.16848 ,50.71308 
19 ,3.9745 ,1.03399 ,5.13768 ,50.41087 
20 ,4.1825 ,1.03606 ,5.13768 ,50.41087 
21 ,4.3748 ,1.03800 ,5.13083 ,50.34372 
22 ,4.5823 ,1.04008 ,5.09319 ,49.97436 
23 ,4.8068 ,1.04231 ,5.06923 ,49.73931 
24 ,5.0147 ,1.04434 ,5.04185 ,49.47068 
25 ,5.2066 ,1.04631 ,5.03843 ,49.43710 
26 ,5.4311 ,1.04841 ,5.00421 ,49.10132 
27 ,5.6550 ,1.05074 ,4.99394 ,49.00058 
28 ,5.8633 ,1.05285 ,4.97683 ,48.83269 
29 ,6.0553 ,1.05479 ,4.94946 ,48.56407 
30 ,6.2475 ,1.05670 ,4.91866 ,48.26186 
31 ,6.4554 ,1.05872 ,4.92550 ,48.32902 
32 ,6.6475 ,1.06069 ,4.89812 ,48.06039 
33 ,6.8395 ,1.06265 ,4.89470 ,48.02681 
34 ,7.0317 ,1.06450 ,4.87417 ,47.82534 
35 ,7.2396 ,1.06657 ,4.85364 ,47.62387 
36 ,7.4314 ,1.06851 ,4.82626 ,47.35525 
37 ,7.6238 ,1.07049 ,4.82284 ,47.32167 
38 ,7.8320 ,1.07253 ,4.77493 ,46.85157 
39 ,8.0241 ,1.07447 ,4.77493 ,46.85157 
40 ,8.2161 ,1.07641 ,4.75439 ,46.65010 
41 ,8.4083 ,1.07829 ,4.73386 ,46.44863 
42 ,8.6163 ,1.08037 ,4.70990 ,46.21359 
43 ,8.8085 ,1.08229 ,4.70306 ,46.14643 
44 ,9.0005 ,1.08419 ,4.68937 ,46.01212 
45 ,9.1926 ,1.08614 ,4.65857 ,45.70991 
46 ,9.4007 ,1.08824 ,4.65515 ,45.67633 
47 ,9.6085 ,1.09032 ,4.62093 ,45.34055 
48 ,9.8168 ,1.09241 ,4.61066 ,45.23981 
49 ,10.0247 ,1.09446 ,4.60382 ,45.17266 
50 ,10.2169 ,1.09637 ,4.57302 ,44.87045 
51 ,10.4091 ,1.09831 ,4.53537 ,44.50109 
52 ,10.6170 ,1.10025 ,4.54222 ,44.56825 
53 ,10.8093 ,1.10228 ,4.51484 ,44.29962 
54 ,11.0011 ,1.10422 ,4.50800 ,44.23247 
55 ,11.2089 ,1.10637 ,4.48062 ,43.96384 
56 ,11.4009 ,1.10830 ,4.47378 ,43.89668 
57 ,11.6092 ,1.11025 ,4.44298 ,43.59448 
58 ,11.8013 ,1.11223 ,4.44298 ,43.59448 
59 ,12.0254 ,1.11445 ,4.40875 ,43.25870 
60 ,12.2499 ,1.11662 ,4.38822 ,43.05723 
61 ,12.4734 ,1.11886 ,4.37111 ,42.88933 
62 ,12.6817 ,1.12096 ,4.35742 ,42.75502 
63 ,12.9216 ,1.12338 ,4.33689 ,42.55355 
64 ,13.1297 ,1.12547 ,4.30267 ,42.21777 
65 ,13.3218 ,1.12742 ,4.30609 ,42.25135 
66 ,13.5299 ,1.12946 ,4.26502 ,41.84841 
67 ,13.7540 ,1.13176 ,4.25133 ,41.71409 
68 ,13.9623 ,1.13380 ,4.24449 ,41.64694 
69 ,14.1704 ,1.13592 ,4.20685 ,41.27758 
70 ,14.3628 ,1.13783 ,4.21711 ,41.37831 
71 ,14.5548 ,1.13975 ,4.17947 ,41.00895 
72 ,14.7466 ,1.14166 ,4.17947 ,41.00895 
73 ,14.9548 ,1.14372 ,4.14183 ,40.63959 
74 ,15.1470 ,1.14568 ,4.13498 ,40.57243 
75 ,15.3550 ,1.14775 ,4.13156 ,40.53885 
76 ,15.5635 ,1.14982 ,4.10760 ,40.30380 
77 ,15.7391 ,1.15172 ,4.06654 ,39.90087 
78 ,15.9313 ,1.15350 ,4.05285 ,39.76655 
79 ,16.1235 ,1.15540 ,4.04600 ,39.69940 
80 ,16.3150 ,1.15749 ,4.02205 ,39.46435 
81 ,16.5076 ,1.15925 ,4.01863 ,39.43077 
82 ,16.7155 ,1.16134 ,3.99125 ,39.16214 
83 ,16.9397 ,1.16357 ,3.98441 ,39.09499 
84 ,17.1317 ,1.16561 ,3.95703 ,38.82636 
85 ,17.3240 ,1.16740 ,3.94334 ,38.69205 
86 ,17.5320 ,1.16953 ,3.90912 ,38.35626 
87 ,17.7400 ,1.17158 ,3.91254 ,38.38984 
88 ,17.9321 ,1.17349 ,3.87490 ,38.02048 
89 ,18.1242 ,1.17537 ,3.87490 ,38.02048 
90 ,18.3322 ,1.17750 ,3.85094 ,37.78543 
91 ,18.5239 ,1.17940 ,3.85094 ,37.78543 
92 ,18.7164 ,1.18138 ,3.82699 ,37.55038 
93 ,18.9082 ,1.18338 ,3.81330 ,37.41607 
94 ,19.1004 ,1.18520 ,3.80645 ,37.34891 
95 ,19.3087 ,1.18730 ,3.76881 ,36.97955 
96 ,19.5166 ,1.18939 ,3.74828 ,36.77808 
97 ,19.7087 ,1.19126 ,3.72774 ,36.57661 
98 ,19.9169 ,1.19329 ,3.72090 ,36.50946 
99 ,20.1245 ,1.19541 ,3.69694 ,36.27441 
100 ,20.3171 ,1.19737 ,3.69352 ,36.24083 
101 ,20.5250 ,1.19947 ,3.67641 ,36.07294 
102 ,20.7168 ,1.20133 ,3.64561 ,35.77073 
103 ,20.9093 ,1.20327 ,3.63534 ,35.67000 
104 ,21.1173 ,1.20531 ,3.62850 ,35.60284 
105 ,21.3095 ,1.20725 ,3.60797 ,35.40137 
106 ,21.5015 ,1.20922 ,3.59086 ,35.23348 
107 ,21.7095 ,1.21123 ,3.56348 ,34.96485 
108 ,21.9016 ,1.21320 ,3.56348 ,34.96485 
109 ,22.0936 ,1.21522 ,3.52926 ,34.62907 
110 ,22.2859 ,1.21703 ,3.51899 ,34.52834 
111 ,22.4779 ,1.21891 ,3.51557 ,34.49476 
112 ,22.7021 ,1.22099 ,3.48135 ,34.15898 
113 ,22.8936 ,1.22321 ,3.45739 ,33.92393 
114 ,23.0862 ,1.22503 ,3.46766 ,34.02466 
115 ,23.2939 ,1.22707 ,3.44370 ,33.78961 
116 ,23.4864 ,1.22904 ,3.42317 ,33.58814 
117 ,23.6785 ,1.23092 ,3.41633 ,33.52099 
118 ,23.8707 ,1.23287 ,3.37868 ,33.15163 
119 ,24.0785 ,1.23493 ,3.38210 ,33.18520 
120 ,24.2707 ,1.23684 ,3.34788 ,32.84942 
121 ,24.4627 ,1.23876 ,3.34788 ,32.84942 
122 ,24.6710 ,1.24092 ,3.32393 ,32.61437 
123 ,24.8788 ,1.24296 ,3.31366 ,32.51364 
124 ,25.0705 ,1.24484 ,3.28286 ,32.21143 
125 ,25.2789 ,1.24685 ,3.28971 ,32.27859 
126 ,25.4871 ,1.24901 ,3.26233 ,32.00996 
127 ,25.7112 ,1.25115 ,3.23153 ,31.70776 
128 ,25.9192 ,1.25331 ,3.22468 ,31.64060 
129 ,26.1114 ,1.25523 ,3.19388 ,31.33840 
130 ,26.3193 ,1.25739 ,3.18362 ,31.23766 
131 ,26.5275 ,1.25939 ,3.15282 ,30.93546 
132 ,26.7356 ,1.26147 ,3.14940 ,30.90188 
133 ,26.9438 ,1.26357 ,3.14940 ,30.90188 
134 ,27.1355 ,1.26552 ,3.11860 ,30.59968 
135 ,27.3279 ,1.26742 ,3.10491 ,30.46536 
136 ,27.5199 ,1.26931 ,3.10491 ,30.46536 
137 ,27.7120 ,1.27122 ,3.06042 ,30.02884 
138 ,27.9041 ,1.27316 ,3.06042 ,30.02884 
139 ,28.0959 ,1.27507 ,3.03647 ,29.79380 
140 ,28.2884 ,1.27705 ,3.01935 ,29.62590 
141 ,28.4803 ,1.27902 ,3.00909 ,29.52517 
142 ,28.6882 ,1.28096 ,2.97487 ,29.18939 
143 ,28.8805 ,1.28297 ,2.99540 ,29.39086 
144 ,29.0884 ,1.28494 ,2.97144 ,29.15581 
145 ,29.2967 ,1.28714 ,2.94407 ,28.88718 
146 ,29.4723 ,1.28900 ,2.92696 ,28.71929 
147 ,29.6645 ,1.29081 ,2.93380 ,28.78645 
148 ,29.8407 ,1.29266 ,2.89958 ,28.45066 
149 ,30.0329 ,1.29446 ,2.87562 ,28.21562 
150 ,30.2411 ,1.29655 ,2.87220 ,28.18204 
151 ,30.4331 ,1.29846 ,2.83456 ,27.81268 
152 ,30.6410 ,1.30050 ,2.84140 ,27.87983 
153 ,30.8332 ,1.30247 ,2.82771 ,27.74552 
154 ,31.0253 ,1.30438 ,2.81402 ,27.61121 
155 ,31.2174 ,1.30632 ,2.79007 ,27.37616 
156 ,31.4094 ,1.30824 ,2.76954 ,27.17469 
157 ,31.6015 ,1.31012 ,2.75927 ,27.07395 
158 ,31.7937 ,1.31212 ,2.73531 ,26.83891 
159 ,32.0178 ,1.31426 ,2.73189 ,26.80533 
160 ,32.2097 ,1.31620 ,2.70452 ,26.53670 
161 ,32.4180 ,1.31832 ,2.70452 ,26.53670 
162 ,32.5940 ,1.32017 ,2.67714 ,26.26807 
163 ,32.7697 ,1.32196 ,2.68398 ,26.33523 
164 ,32.9783 ,1.32381 ,2.66003 ,26.10018 
165 ,33.1862 ,1.32595 ,2.63607 ,25.86514 
166 ,33.3785 ,1.32792 ,2.62238 ,25.73082 
167 ,33.5863 ,1.32999 ,2.61212 ,25.63009 
168 ,33.7782 ,1.33190 ,2.60185 ,25.52935 
169 ,33.9865 ,1.33406 ,2.56078 ,25.12641 
170 ,34.1945 ,1.33604 ,2.54710 ,24.99210 
171 ,34.3867 ,1.33799 ,2.54710 ,24.99210 
172 ,34.5947 ,1.34003 ,2.52656 ,24.79063 
173 ,34.8186 ,1.34234 ,2.50603 ,24.58916 
174 ,35.0268 ,1.34438 ,2.49234 ,24.45485 
175 ,35.2351 ,1.34645 ,2.47523 ,24.28696 
176 ,35.4430 ,1.34857 ,2.48207 ,24.35411 
177 ,35.6351 ,1.35045 ,2.43759 ,23.91759 
178 ,35.8431 ,1.35255 ,2.44785 ,24.01833 
179 ,36.0350 ,1.35443 ,2.41705 ,23.71612 
180 ,36.2275 ,1.35636 ,2.39994 ,23.54823 
181 ,36.4352 ,1.35847 ,2.37256 ,23.27961 
182 ,36.6274 ,1.36040 ,2.37256 ,23.27961 
183 ,36.8357 ,1.36245 ,2.35203 ,23.07814 
184 ,37.0278 ,1.36439 ,2.34861 ,23.04456 
185 ,37.2198 ,1.36630 ,2.33150 ,22.87667 
186 ,37.4119 ,1.36822 ,2.30070 ,22.57446 
187 ,37.6037 ,1.37015 ,2.31781 ,22.74235 
188 ,37.7961 ,1.37203 ,2.28359 ,22.40657 
189 ,37.9881 ,1.37401 ,2.28017 ,22.37299 
190 ,38.1802 ,1.37589 ,2.26990 ,22.27226 
191 ,38.3881 ,1.37794 ,2.24594 ,22.03721 
192 ,38.6124 ,1.38015 ,2.21172 ,21.70143 
193 ,38.8041 ,1.38227 ,2.21515 ,21.73500 
194 ,38.9961 ,1.38404 ,2.20146 ,21.60069 
195 ,39.1884 ,1.38598 ,2.16039 ,21.19775 
196 ,39.3807 ,1.38787 ,2.18435 ,21.43280 
197 ,39.5724 ,1.38981 ,2.14328 ,21.02986 
198 ,39.7646 ,1.39173 ,2.13301 ,20.92912 
199 ,39.9731 ,1.39385 ,2.11590 ,20.76123 
200 ,40.1647 ,1.39576 ,2.12275 ,20.82839 
201 ,40.3733 ,1.39783 ,2.08510 ,20.45903 
202 ,40.5973 ,1.39991 ,2.08852 ,20.49261 
203 ,40.8053 ,1.40215 ,2.06799 ,20.29114 
204 ,40.9972 ,1.40403 ,2.03719 ,19.98893 
205 ,41.1893 ,1.40612 ,2.04061 ,20.02251 
206 ,41.3815 ,1.40794 ,2.03035 ,19.92178 
207 ,41.5737 ,1.40978 ,1.99613 ,19.58599 
208 ,41.7658 ,1.41177 ,1.99955 ,19.61957 
209 ,41.9737 ,1.41381 ,1.96190 ,19.25021 
210 ,42.1656 ,1.41578 ,1.97902 ,19.41810 
211 ,42.3742 ,1.41778 ,1.94822 ,19.11590 
212 ,42.5659 ,1.41976 ,1.93453 ,18.98158 
213 ,42.7742 ,1.42174 ,1.92768 ,18.91443 
214 ,42.9822 ,1.42392 ,1.90373 ,18.67938 
215 ,43.1899 ,1.42584 ,1.88319 ,18.47791 
216 ,43.3824 ,1.42791 ,1.88662 ,18.51149 
217 ,43.5905 ,1.43001 ,1.84897 ,18.14213 
218 ,43.7983 ,1.43203 ,1.85924 ,18.24286 
219 ,43.9907 ,1.43397 ,1.81475 ,17.80634 
220 ,44.1826 ,1.43593 ,1.81133 ,17.77276 
221 ,44.3908 ,1.43798 ,1.79422 ,17.60487 
222 ,44.5828 ,1.43996 ,1.78737 ,17.53772 
223 ,44.7748 ,1.44189 ,1.76684 ,17.33625 
224 ,44.9992 ,1.44391 ,1.76342 ,17.30267 
225 ,45.2071 ,1.44613 ,1.74289 ,17.10120 
226 ,45.4152 ,1.44823 ,1.72920 ,16.96689 
227 ,45.6072 ,1.45020 ,1.71551 ,16.83257 
228 ,45.7994 ,1.45206 ,1.69840 ,16.66468 
229 ,46.0075 ,1.45415 ,1.68129 ,16.49679 
230 ,46.2154 ,1.45619 ,1.67102 ,16.39605 
231 ,46.4238 ,1.45820 ,1.64022 ,16.09385 
232 ,46.6317 ,1.46028 ,1.64022 ,16.09385 
233 ,46.8399 ,1.46247 ,1.64022 ,16.09385 
234 ,47.0796 ,1.46473 ,1.63680 ,16.06027 
235 ,47.2720 ,1.46678 ,1.58889 ,15.59018 
236 ,47.4642 ,1.46874 ,1.58889 ,15.59018 
237 ,47.6559 ,1.47062 ,1.56151 ,15.32155 
238 ,47.8803 ,1.47274 ,1.55467 ,15.25439 
239 ,48.0879 ,1.47493 ,1.53071 ,15.01934 
240 ,48.2804 ,1.47696 ,1.52387 ,14.95219 
241 ,48.4727 ,1.47878 ,1.51702 ,14.88503 
242 ,48.6642 ,1.48075 ,1.49991 ,14.71714 
243 ,48.8567 ,1.48258 ,1.48965 ,14.61640 
244 ,49.0644 ,1.48474 ,1.47596 ,14.48209 
245 ,49.2404 ,1.48658 ,1.46227 ,14.34778 
246 ,49.4329 ,1.48841 ,1.44516 ,14.17989 
247 ,49.6569 ,1.49053 ,1.44858 ,14.21346 
248 ,49.8325 ,1.49251 ,1.40751 ,13.81053 
249 ,50.0250 ,1.49429 ,1.41094 ,13.84410 
250 ,50.2172 ,1.49622 ,1.41094 ,13.84410 
251 ,50.4252 ,1.49822 ,1.39383 ,13.67621 
252 ,50.6174 ,1.50025 ,1.37671 ,13.50832 
253 ,50.8253 ,1.50226 ,1.36645 ,13.40759 
254 ,51.0334 ,1.50437 ,1.34249 ,13.17254 
255 ,51.2255 ,1.50630 ,1.33565 ,13.10538 
256 ,51.4332 ,1.50838 ,1.31854 ,12.93749 
257 ,51.6257 ,1.51032 ,1.31854 ,12.93749 
258 ,51.8178 ,1.51220 ,1.30485 ,12.80318 
259 ,52.0255 ,1.51427 ,1.26378 ,12.40024 
260 ,52.2020 ,1.51618 ,1.26720 ,12.43381 
261 ,52.3941 ,1.51802 ,1.24667 ,12.23235 
262 ,52.5857 ,1.52003 ,1.23983 ,12.16519 
263 ,52.7942 ,1.52192 ,1.23298 ,12.09803 
264 ,53.0024 ,1.52408 ,1.21245 ,11.89656 
265 ,53.1944 ,1.52600 ,1.19876 ,11.76225 
266 ,53.3865 ,1.52788 ,1.19192 ,11.69509 
267 ,53.5946 ,1.53000 ,1.16454 ,11.42647 
268 ,53.8026 ,1.53208 ,1.15770 ,11.35931 
269 ,54.0107 ,1.53415 ,1.13032 ,11.09068 
270 ,54.2027 ,1.53606 ,1.13374 ,11.12426 
271 ,54.3946 ,1.53795 ,1.09952 ,10.78848 
272 ,54.6027 ,1.54004 ,1.08925 ,10.68774 
273 ,54.7786 ,1.54198 ,1.09267 ,10.72132 
274 ,54.9711 ,1.54376 ,1.06872 ,10.48627 
275 ,55.1791 ,1.54580 ,1.07214 ,10.51985 
276 ,55.3713 ,1.54778 ,1.04819 ,10.28480 
277 ,55.5788 ,1.54983 ,1.03792 ,10.18407 
278 ,55.8188 ,1.55208 ,1.00712 ,9.88186 
279 ,56.0270 ,1.55431 ,1.01396 ,9.94902 
280 ,56.2194 ,1.55628 ,1.00028 ,9.81471 
281 ,56.4434 ,1.55846 ,0.97974 ,9.61324 
282 ,56.6356 ,1.56040 ,0.96263 ,9.44535 
283 ,56.8435 ,1.56246 ,0.96948 ,9.51250 
284 ,57.0199 ,1.56435 ,0.95237 ,9.34461 
285 ,57.2120 ,1.56614 ,0.93183 ,9.14314 
286 ,57.4038 ,1.56807 ,0.91814 ,9.00883 
287 ,57.6122 ,1.57014 ,0.89761 ,8.80736 
288 ,57.8202 ,1.57221 ,0.90446 ,8.87451 
289 ,58.0119 ,1.57415 ,0.88392 ,8.67305 
290 ,58.2204 ,1.57624 ,0.88050 ,8.63947 
291 ,58.4284 ,1.57827 ,0.85312 ,8.37084 
292 ,58.6205 ,1.58019 ,0.85654 ,8.40442 
293 ,58.8444 ,1.58234 ,0.83943 ,8.23653 
294 ,59.0363 ,1.58436 ,0.80863 ,7.93432 
295 ,59.2286 ,1.58630 ,0.80863 ,7.93432 
296 ,59.4367 ,1.58830 ,0.80521 ,7.90074 
297 ,59.6128 ,1.59028 ,0.77784 ,7.63212 
298 ,59.8050 ,1.59204 ,0.77441 ,7.59854 
299 ,60.0129 ,1.59416 ,0.75730 ,7.43065 
300 ,60.2047 ,1.59605 ,0.75730 ,7.43065 
301 ,60.4131 ,1.59809 ,0.72992 ,7.16202 
302 ,60.6213 ,1.60019 ,0.74019 ,7.26276 
303 ,60.8294 ,1.60232 ,0.70939 ,6.96055 
304 ,61.0373 ,1.60438 ,0.70597 ,6.92697 
305 ,61.2295 ,1.60633 ,0.68886 ,6.75908 
306 ,61.5337 ,1.60879 ,0.67859 ,6.65835 
307 ,61.7416 ,1.61143 ,0.66833 ,6.55761 
308 ,61.9336 ,1.61335 ,0.63753 ,6.25541 
309 ,62.1259 ,1.61529 ,0.62726 ,6.15467 
310 ,62.3337 ,1.61736 ,0.59646 ,5.85247 
311 ,62.5260 ,1.61924 ,0.60330 ,5.91962 
312 ,62.7339 ,1.62134 ,0.59304 ,5.81889 
313 ,62.9261 ,1.62332 ,0.57593 ,5.65100 
314 ,63.1181 ,1.62519 ,0.57251 ,5.61742 
315 ,63.3264 ,1.62726 ,0.56908 ,5.58384 
316 ,63.5500 ,1.62946 ,0.53144 ,5.21448 
317 ,63.7425 ,1.63143 ,0.54171 ,5.31522 
318 ,63.9507 ,1.63350 ,0.51775 ,5.08017 
319 ,64.1588 ,1.63560 ,0.51091 ,5.01301 
320 ,64.3669 ,1.63764 ,0.50064 ,4.91228 
321 ,64.5588 ,1.63960 ,0.50406 ,4.94585 
322 ,64.7828 ,1.64178 ,0.47326 ,4.64365 
323 ,64.9910 ,1.64392 ,0.46642 ,4.57649 
324 ,65.1991 ,1.64596 ,0.45615 ,4.47576 
325 ,65.3911 ,1.64790 ,0.41851 ,4.10640 
326 ,65.5993 ,1.65001 ,0.43562 ,4.27429 
327 ,65.7911 ,1.65201 ,0.39455 ,3.87135 
328 ,65.9834 ,1.65380 ,0.41166 ,4.03924 
329 ,66.1753 ,1.65575 ,0.39113 ,3.83777 
330 ,66.3675 ,1.65762 ,0.37402 ,3.66988 
331 ,66.5755 ,1.65972 ,0.37402 ,3.66988 
332 ,66.7678 ,1.66170 ,0.36033 ,3.53557 
333 ,66.9919 ,1.66379 ,0.35691 ,3.50199 
334 ,67.2000 ,1.66599 ,0.35006 ,3.43483 
335 ,67.3920 ,1.66791 ,0.31926 ,3.13263 
336 ,67.5840 ,1.66982 ,0.33295 ,3.26694 
337 ,67.7760 ,1.67176 ,0.30558 ,2.99831 
338 ,67.9678 ,1.67371 ,0.27135 ,2.66253 
339 ,68.1602 ,1.67561 ,0.29531 ,2.89758 
340 ,68.3524 ,1.67750 ,0.25767 ,2.52822 
341 ,68.5445 ,1.67943 ,0.26793 ,2.62895 
342 ,68.7525 ,1.68149 ,0.24398 ,2.39390 
343 ,68.9445 ,1.68346 ,0.24398 ,2.39390 
344 ,69.1206 ,1.68528 ,0.22344 ,2.19243 
345 ,69.3130 ,1.68711 ,0.22344 ,2.19243 
346 ,69.5046 ,1.68902 ,0.20633 ,2.02454 
347 ,69.6970 ,1.69093 ,0.20291 ,1.99096 
348 ,69.9048 ,1.69302 ,0.19264 ,1.89023 
349 ,70.0969 ,1.69495 ,0.18580 ,1.82307 
350 ,70.3052 ,1.69700 ,0.16527 ,1.62160 
351 ,70.5133 ,1.69910 ,0.14473 ,1.42013 
352 ,70.7050 ,1.70103 ,0.14473 ,1.42013 
353 ,70.8813 ,1.70292 ,0.12420 ,1.21866 
354 ,71.0734 ,1.70471 ,0.10367 ,1.01719 
355 ,71.2811 ,1.70673 ,0.11393 ,1.11793 
356 ,71.4732 ,1.70868 ,0.10025 ,0.98361 
357 ,71.6493 ,1.71057 ,0.08314 ,0.81572 
358 ,71.8579 ,1.71242 ,0.07287 ,0.71499 
359 ,72.0820 ,1.71465 ,0.05918 ,0.58067 
360 ,72.2900 ,1.71688 ,0.04549 ,0.44636 
361 ,72.4979 ,1.71894 ,0.04549 ,0.44636 
362 ,72.7059 ,1.72101 ,0.02838 ,0.27847 
363 ,72.9142 ,1.72311 ,0.02838 ,0.27847 
364 ,73.1060 ,1.72503 ,0.00100 ,0.00984 
365 ,73.3140 ,1.72703 ,0.01469 ,0.14416 
366 ,73.5540 ,1.72932 ,-0.01611 ,-0.15805 
367 ,73.7622 ,1.73150 ,-0.03322 ,-0.32594 
368 ,73.9703 ,1.73363 ,-0.03664 ,-0.35952 
369 ,74.1624 ,1.73563 ,-0.04691 ,-0.46025 
370 ,74.3543 ,1.73752 ,-0.06402 ,-0.62814 
371 ,74.5625 ,1.73956 ,-0.06744 ,-0.66172 
372 ,74.7705 ,1.74166 ,-0.09140 ,-0.89677 
373 ,74.9626 ,1.74363 ,-0.07428 ,-0.72888 
374 ,75.1707 ,1.74560 ,-0.08455 ,-0.82961 
375 ,75.3789 ,1.74768 ,-0.11877 ,-1.16540 
376 ,75.5870 ,1.74980 ,-0.12904 ,-1.26613 
377 ,75.7791 ,1.75175 ,-0.12904 ,-1.26613 
378 ,75.9870 ,1.75379 ,-0.14273 ,-1.40045 
379 ,76.1792 ,1.75579 ,-0.14273 ,-1.40045 
380 ,76.3713 ,1.75768 ,-0.17353 ,-1.70265 
381 ,76.5632 ,1.75958 ,-0.16326 ,-1.60191 
382 ,76.8034 ,1.76178 ,-0.18037 ,-1.76981 
383 ,77.0115 ,1.76401 ,-0.18037 ,-1.76981 
384 ,77.2195 ,1.76608 ,-0.19406 ,-1.90412 
385 ,77.4280 ,1.76819 ,-0.21802 ,-2.13917 
386 ,77.6358 ,1.77029 ,-0.20433 ,-2.00485 
387 ,77.8440 ,1.77226 ,-0.24197 ,-2.37422 
388 ,78.0840 ,1.77468 ,-0.24881 ,-2.44137 
389 ,78.2924 ,1.77688 ,-0.26250 ,-2.57569 
390 ,78.5005 ,1.77896 ,-0.26250 ,-2.57569 
391 ,78.7086 ,1.78102 ,-0.29330 ,-2.87789 
392 ,78.9005 ,1.78293 ,-0.27961 ,-2.74358 
393 ,79.0928 ,1.78484 ,-0.28988 ,-2.84431 
394 ,79.3007 ,1.78691 ,-0.31384 ,-3.07936 
395 ,79.4930 ,1.78887 ,-0.31384 ,-3.07936 
396 ,79.6847 ,1.79075 ,-0.32752 ,-3.21367 
397 ,79.9090 ,1.79309 ,-0.35832 ,-3.51588 
398 ,80.1169 ,1.79498 ,-0.34464 ,-3.38156 
399 ,80.3251 ,1.79722 ,-0.36175 ,-3.54946 
400 ,80.5332 ,1.79927 ,-0.36517 ,-3.58303 
401 ,80.7253 ,1.80120 ,-0.38228 ,-3.75093 
402 ,80.9174 ,1.80304 ,-0.37201 ,-3.65019 
403 ,81.1096 ,1.80505 ,-0.39597 ,-3.88524 
404 ,81.3015 ,1.80695 ,-0.39939 ,-3.91882 
405 ,81.5098 ,1.80903 ,-0.40966 ,-4.01955 
406 ,81.7178 ,1.81107 ,-0.41650 ,-4.08671 
407 ,81.9099 ,1.81305 ,-0.44730 ,-4.38891 
408 ,82.1020 ,1.81496 ,-0.45072 ,-4.42249 
409 ,82.3096 ,1.81702 ,-0.45757 ,-4.48965 
410 ,82.5182 ,1.81910 ,-0.46099 ,-4.52323 
411 ,82.7260 ,1.82116 ,-0.47810 ,-4.69112 
412 ,82.9342 ,1.82324 ,-0.47126 ,-4.62396 
413 ,83.1263 ,1.82522 ,-0.49179 ,-4.82543 
414 ,83.3822 ,1.82775 ,-0.50890 ,-4.99332 
415 ,83.6065 ,1.82998 ,-0.53628 ,-5.26195 
416 ,83.8146 ,1.83206 ,-0.53285 ,-5.22837 
417 ,84.0227 ,1.83410 ,-0.54654 ,-5.36268 
418 ,84.2148 ,1.83607 ,-0.53628 ,-5.26195 
419 ,84.4228 ,1.83814 ,-0.55681 ,-5.46342 
420 ,84.6147 ,1.84005 ,-0.55681 ,-5.46342 
421 ,84.8230 ,1.84212 ,-0.56023 ,-5.49700 
422 ,85.0151 ,1.84406 ,-0.56365 ,-5.53058 
423 ,85.2073 ,1.84597 ,-0.58761 ,-5.76562 
424 ,85.4152 ,1.84806 ,-0.58761 ,-5.76562 
425 ,85.6070 ,1.84997 ,-0.61841 ,-6.06783 
426 ,85.8154 ,1.85203 ,-0.61841 ,-6.06783 
427 ,86.0235 ,1.85417 ,-0.62868 ,-6.16856 
428 ,86.2154 ,1.85607 ,-0.63210 ,-6.20214 
429 ,86.4077 ,1.85799 ,-0.65263 ,-6.40361 
430 ,86.5997 ,1.85990 ,-0.65605 ,-6.43719 
431 ,86.7919 ,1.86182 ,-0.65605 ,-6.43719 
432 ,86.9999 ,1.86391 ,-0.66290 ,-6.50435 
433 ,87.1920 ,1.86582 ,-0.68343 ,-6.70582 
434 ,87.3841 ,1.86774 ,-0.68685 ,-6.73940 
435 ,87.5918 ,1.86985 ,-0.71081 ,-6.97444 
436 ,87.7840 ,1.87176 ,-0.70396 ,-6.90729 
437 ,87.9923 ,1.87386 ,-0.71765 ,-7.04160 
438 ,88.2002 ,1.87593 ,-0.72792 ,-7.14233 
439 ,88.3925 ,1.87783 ,-0.74503 ,-7.31023 
440 ,88.6008 ,1.87990 ,-0.73476 ,-7.20949 
441 ,88.8245 ,1.88211 ,-0.76214 ,-7.47812 
442 ,89.0326 ,1.88412 ,-0.76556 ,-7.51170 
443 ,89.2246 ,1.88612 ,-0.78267 ,-7.67959 
444 ,89.4329 ,1.88822 ,-0.78267 ,-7.67959 
445 ,89.6408 ,1.89030 ,-0.77925 ,-7.64601 
446 ,89.8329 ,1.89218 ,-0.81005 ,-7.94821 
447 ,90.0407 ,1.89425 ,-0.81005 ,-7.94821 
448 ,90.2493 ,1.89634 ,-0.83743 ,-8.21684 
449 ,90.4573 ,1.89848 ,-0.82374 ,-8.08253 
450 ,90.6653 ,1.90054 ,-0.84085 ,-8.25042 
451 ,90.8575 ,1.90243 ,-0.85454 ,-8.38473 
452 ,91.0654 ,1.90454 ,-0.85112 ,-8.35115 
453 ,91.2735 ,1.90656 ,-0.86823 ,-8.51904 
454 ,91.4819 ,1.90868 ,-0.87507 ,-8.58620 
455 ,91.6734 ,1.91062 ,-0.88192 ,-8.65336 
456 ,91.8977 ,1.91287 ,-0.89560 ,-8.78767 
457 ,92.1057 ,1.91494 ,-0.89903 ,-8.82125 
458 ,92.2815 ,1.91683 ,-0.91272 ,-8.95556 
459 ,92.4742 ,1.91864 ,-0.92298 ,-9.05630 
460 ,92.6822 ,1.92072 ,-0.91956 ,-9.02272 
461 ,92.8747 ,1.92262 ,-0.94009 ,-9.22419 
462 ,93.0823 ,1.92475 ,-0.93667 ,-9.19061 
463 ,93.2904 ,1.92680 ,-0.96063 ,-9.42566 
