Data stamp = , 02-05-2022 01:21:27 631

Calibration Values: 
Slope = , 26.54 , g/V 
Offset Voltage at no contact = , -0.501760 , V 

No , Time , Stage Position ,   Mass , Force 
   ,  (s) ,      (mm)      ,   (g)  , (mN)  

1 ,0.0000 ,0.99950 ,5.34301 ,52.42557 
2 ,0.2135 ,0.99959 ,5.35669 ,52.55988 
3 ,0.7580 ,1.00178 ,5.34985 ,52.49273 
4 ,1.0139 ,1.00414 ,5.35327 ,52.52631 
5 ,1.2058 ,1.00628 ,5.34643 ,52.45915 
6 ,1.4144 ,1.00834 ,5.33958 ,52.39199 
7 ,1.6065 ,1.01028 ,5.31563 ,52.15694 
8 ,1.7984 ,1.01226 ,5.32589 ,52.25768 
9 ,1.9905 ,1.01415 ,5.27798 ,51.78758 
10 ,2.1984 ,1.01625 ,5.27798 ,51.78758 
11 ,2.3908 ,1.01818 ,5.23692 ,51.38464 
12 ,2.5988 ,1.02025 ,5.23692 ,51.38464 
13 ,2.8070 ,1.02233 ,5.20270 ,51.04886 
14 ,3.0150 ,1.02438 ,5.19243 ,50.94813 
15 ,3.2070 ,1.02635 ,5.17190 ,50.74666 
16 ,3.3991 ,1.02831 ,5.16505 ,50.67950 
17 ,3.5747 ,1.03016 ,5.14452 ,50.47803 
18 ,3.7672 ,1.03194 ,5.11372 ,50.17583 
19 ,3.9593 ,1.03386 ,5.10688 ,50.10867 
20 ,4.1995 ,1.03615 ,5.08634 ,49.90720 
21 ,4.3915 ,1.03817 ,5.04528 ,49.50426 
22 ,4.5837 ,1.04005 ,5.04185 ,49.47068 
23 ,4.7916 ,1.04230 ,5.00763 ,49.13490 
24 ,4.9839 ,1.04409 ,5.01106 ,49.16848 
25 ,5.1756 ,1.04603 ,4.98368 ,48.89985 
26 ,5.3839 ,1.04807 ,4.98026 ,48.86627 
27 ,5.5758 ,1.04998 ,4.94603 ,48.53049 
28 ,5.7836 ,1.05206 ,4.92208 ,48.29544 
29 ,5.9758 ,1.05403 ,4.90497 ,48.12755 
30 ,6.1521 ,1.05593 ,4.88786 ,47.95966 
31 ,6.3603 ,1.05782 ,4.88444 ,47.92608 
32 ,6.5523 ,1.05976 ,4.83995 ,47.48956 
33 ,6.7605 ,1.06189 ,4.83995 ,47.48956 
34 ,6.9523 ,1.06377 ,4.80573 ,47.15378 
35 ,7.1765 ,1.06598 ,4.80915 ,47.18736 
36 ,7.3844 ,1.06810 ,4.78519 ,46.95231 
37 ,7.5765 ,1.06999 ,4.75097 ,46.61653 
38 ,7.7850 ,1.07208 ,4.74413 ,46.54937 
39 ,7.9604 ,1.07400 ,4.72017 ,46.31432 
40 ,8.1528 ,1.07578 ,4.69964 ,46.11285 
41 ,8.3609 ,1.07788 ,4.70648 ,46.18001 
42 ,8.5690 ,1.07986 ,4.65857 ,45.70991 
43 ,8.7613 ,1.08183 ,4.66199 ,45.74349 
44 ,8.9533 ,1.08379 ,4.63119 ,45.44128 
45 ,9.1451 ,1.08572 ,4.61751 ,45.30697 
46 ,9.3534 ,1.08774 ,4.59697 ,45.10550 
47 ,9.5616 ,1.08976 ,4.59355 ,45.07192 
48 ,9.7537 ,1.09180 ,4.55933 ,44.73614 
49 ,9.9616 ,1.09387 ,4.55249 ,44.66898 
50 ,10.1374 ,1.09572 ,4.51484 ,44.29962 
51 ,10.3300 ,1.09753 ,4.50800 ,44.23247 
52 ,10.5221 ,1.09946 ,4.50115 ,44.16531 
53 ,10.7301 ,1.10153 ,4.47035 ,43.86310 
54 ,10.9380 ,1.10352 ,4.47720 ,43.93026 
55 ,11.1303 ,1.10554 ,4.43955 ,43.56090 
56 ,11.3382 ,1.10757 ,4.42586 ,43.42659 
57 ,11.5463 ,1.10971 ,4.41218 ,43.29227 
58 ,11.7383 ,1.11162 ,4.37111 ,42.88933 
59 ,11.9306 ,1.11356 ,4.37795 ,42.95649 
60 ,12.1227 ,1.11544 ,4.34716 ,42.65429 
61 ,12.3303 ,1.11749 ,4.32662 ,42.45282 
62 ,12.5229 ,1.11946 ,4.32320 ,42.41924 
63 ,12.7309 ,1.12155 ,4.28898 ,42.08345 
64 ,12.9229 ,1.12344 ,4.28556 ,42.04988 
65 ,13.1469 ,1.12576 ,4.25133 ,41.71409 
66 ,13.3550 ,1.12781 ,4.23422 ,41.54620 
67 ,13.5631 ,1.12981 ,4.22738 ,41.47905 
68 ,13.7711 ,1.13198 ,4.21027 ,41.31115 
69 ,13.9637 ,1.13386 ,4.21027 ,41.31115 
70 ,14.1552 ,1.13577 ,4.16578 ,40.87464 
71 ,14.3476 ,1.13771 ,4.14867 ,40.70674 
72 ,14.5556 ,1.13975 ,4.12814 ,40.50527 
73 ,14.7637 ,1.14183 ,4.13498 ,40.57243 
74 ,14.9553 ,1.14373 ,4.09391 ,40.16949 
75 ,15.1635 ,1.14580 ,4.09049 ,40.13591 
76 ,15.3559 ,1.14783 ,4.05627 ,39.80013 
77 ,15.5637 ,1.14981 ,4.04943 ,39.73297 
78 ,15.7560 ,1.15180 ,4.02547 ,39.49793 
79 ,15.9641 ,1.15382 ,4.03232 ,39.56508 
80 ,16.1884 ,1.15609 ,3.98441 ,39.09499 
81 ,16.4283 ,1.15836 ,3.96729 ,38.92709 
82 ,16.6362 ,1.16055 ,3.95018 ,38.75920 
83 ,16.8287 ,1.16250 ,3.93992 ,38.65847 
84 ,17.0363 ,1.16454 ,3.90912 ,38.35626 
85 ,17.2285 ,1.16644 ,3.90570 ,38.32268 
86 ,17.4207 ,1.16844 ,3.88858 ,38.15479 
87 ,17.6129 ,1.17034 ,3.86805 ,37.95332 
88 ,17.8045 ,1.17224 ,3.86805 ,37.95332 
89 ,18.0133 ,1.17429 ,3.82356 ,37.51681 
90 ,18.2212 ,1.17642 ,3.83725 ,37.65112 
91 ,18.4134 ,1.17833 ,3.79961 ,37.28176 
92 ,18.6212 ,1.18046 ,3.78934 ,37.18102 
93 ,18.8295 ,1.18250 ,3.76196 ,36.91240 
94 ,19.0376 ,1.18453 ,3.74485 ,36.74450 
95 ,19.2458 ,1.18665 ,3.73801 ,36.67735 
96 ,19.4537 ,1.18874 ,3.69694 ,36.27441 
97 ,19.6458 ,1.19065 ,3.71063 ,36.40872 
98 ,19.8539 ,1.19275 ,3.67299 ,36.03936 
99 ,20.0454 ,1.19464 ,3.67983 ,36.10652 
100 ,20.2380 ,1.19655 ,3.64219 ,35.73716 
101 ,20.4781 ,1.19904 ,3.62508 ,35.56926 
102 ,20.6702 ,1.20089 ,3.61481 ,35.46853 
103 ,20.8781 ,1.20299 ,3.57717 ,35.09917 
104 ,21.0701 ,1.20496 ,3.57375 ,35.06559 
105 ,21.2781 ,1.20697 ,3.55321 ,34.86412 
106 ,21.4862 ,1.20903 ,3.53952 ,34.72981 
107 ,21.6786 ,1.21095 ,3.51215 ,34.46118 
108 ,21.8706 ,1.21288 ,3.51215 ,34.46118 
109 ,22.0627 ,1.21480 ,3.49504 ,34.29329 
110 ,22.2542 ,1.21684 ,3.46081 ,33.95751 
111 ,22.4467 ,1.21863 ,3.47792 ,34.12540 
112 ,22.6549 ,1.22076 ,3.42659 ,33.62172 
113 ,22.8470 ,1.22264 ,3.42659 ,33.62172 
114 ,23.0711 ,1.22478 ,3.38553 ,33.21878 
115 ,23.2790 ,1.22696 ,3.37868 ,33.15163 
116 ,23.4872 ,1.22898 ,3.35473 ,32.91658 
117 ,23.6954 ,1.23114 ,3.34104 ,32.78227 
118 ,23.8874 ,1.23308 ,3.35130 ,32.88300 
119 ,24.0795 ,1.23500 ,3.31024 ,32.48006 
120 ,24.2717 ,1.23690 ,3.30339 ,32.41290 
121 ,24.4793 ,1.23898 ,3.27944 ,32.17786 
122 ,24.6718 ,1.24090 ,3.27602 ,32.14428 
123 ,24.8639 ,1.24287 ,3.26233 ,32.00996 
124 ,25.0559 ,1.24474 ,3.21784 ,31.57345 
125 ,25.2475 ,1.24659 ,3.22811 ,31.67418 
126 ,25.4396 ,1.24862 ,3.18362 ,31.23766 
127 ,25.6316 ,1.25051 ,3.18704 ,31.27124 
128 ,25.8243 ,1.25242 ,3.17677 ,31.17051 
129 ,26.0482 ,1.25458 ,3.15624 ,30.96904 
130 ,26.2244 ,1.25652 ,3.12544 ,30.66683 
131 ,26.4325 ,1.25847 ,3.13229 ,30.73399 
132 ,26.6401 ,1.26044 ,3.11518 ,30.56610 
133 ,26.8487 ,1.26265 ,3.09806 ,30.39821 
134 ,27.0563 ,1.26475 ,3.06042 ,30.02884 
135 ,27.2488 ,1.26660 ,3.06384 ,30.06242 
136 ,27.4404 ,1.26860 ,3.03647 ,29.79380 
137 ,27.6329 ,1.27046 ,3.01935 ,29.62590 
138 ,27.8246 ,1.27236 ,3.00909 ,29.52517 
139 ,28.0490 ,1.27447 ,2.97829 ,29.22297 
140 ,28.2413 ,1.27656 ,2.97829 ,29.22297 
141 ,28.4491 ,1.27870 ,2.96460 ,29.08865 
142 ,28.6414 ,1.28055 ,2.94749 ,28.92076 
143 ,28.8330 ,1.28263 ,2.93722 ,28.82003 
144 ,29.0255 ,1.28443 ,2.91669 ,28.61856 
145 ,29.2336 ,1.28651 ,2.90300 ,28.48424 
146 ,29.4258 ,1.28841 ,2.89273 ,28.38351 
147 ,29.6176 ,1.29033 ,2.85851 ,28.04772 
148 ,29.8099 ,1.29223 ,2.85851 ,28.04772 
149 ,30.0176 ,1.29430 ,2.82429 ,27.71194 
150 ,30.2100 ,1.29626 ,2.83456 ,27.81268 
151 ,30.4020 ,1.29816 ,2.79007 ,27.37616 
152 ,30.5942 ,1.30010 ,2.77638 ,27.24185 
153 ,30.7860 ,1.30202 ,2.77980 ,27.27542 
154 ,30.9781 ,1.30394 ,2.75243 ,27.00680 
155 ,31.1862 ,1.30606 ,2.74558 ,26.93964 
156 ,31.3942 ,1.30811 ,2.71820 ,26.67101 
157 ,31.5863 ,1.30999 ,2.71820 ,26.67101 
158 ,31.7786 ,1.31190 ,2.68398 ,26.33523 
159 ,31.9707 ,1.31387 ,2.68740 ,26.36881 
160 ,32.1463 ,1.31575 ,2.65318 ,26.03303 
161 ,32.3545 ,1.31765 ,2.64292 ,25.93229 
162 ,32.5305 ,1.31960 ,2.63607 ,25.86514 
163 ,32.7226 ,1.32135 ,2.61554 ,25.66367 
164 ,32.9310 ,1.32336 ,2.60869 ,25.59651 
165 ,33.1392 ,1.32559 ,2.57105 ,25.22715 
166 ,33.3312 ,1.32745 ,2.58132 ,25.32788 
167 ,33.5232 ,1.32938 ,2.55736 ,25.09283 
168 ,33.7156 ,1.33130 ,2.53341 ,24.85779 
169 ,33.9073 ,1.33323 ,2.51972 ,24.72347 
170 ,34.1152 ,1.33522 ,2.50603 ,24.58916 
171 ,34.3232 ,1.33731 ,2.48892 ,24.42127 
172 ,34.5317 ,1.33936 ,2.48892 ,24.42127 
173 ,34.7396 ,1.34151 ,2.45127 ,24.05191 
174 ,34.9319 ,1.34350 ,2.45127 ,24.05191 
175 ,35.1239 ,1.34540 ,2.42390 ,23.78328 
176 ,35.3321 ,1.34745 ,2.41705 ,23.71612 
177 ,35.5400 ,1.34954 ,2.39310 ,23.48108 
178 ,35.7482 ,1.35162 ,2.39994 ,23.54823 
179 ,35.9562 ,1.35371 ,2.37599 ,23.31318 
180 ,36.1483 ,1.35561 ,2.36230 ,23.17887 
181 ,36.3242 ,1.35751 ,2.32808 ,22.84309 
182 ,36.5162 ,1.35926 ,2.32808 ,22.84309 
183 ,36.7086 ,1.36126 ,2.31781 ,22.74235 
184 ,36.9169 ,1.36330 ,2.28701 ,22.44015 
185 ,37.0924 ,1.36519 ,2.28017 ,22.37299 
186 ,37.2850 ,1.36695 ,2.25963 ,22.17152 
187 ,37.4930 ,1.36910 ,2.25621 ,22.13794 
188 ,37.6850 ,1.37099 ,2.22883 ,21.86932 
189 ,37.8770 ,1.37292 ,2.21515 ,21.73500 
190 ,38.0688 ,1.37481 ,2.20830 ,21.66785 
191 ,38.2773 ,1.37678 ,2.19119 ,21.49996 
192 ,38.4694 ,1.37883 ,2.17750 ,21.36564 
193 ,38.6770 ,1.38087 ,2.16723 ,21.26491 
194 ,38.8695 ,1.38289 ,2.15355 ,21.13059 
195 ,39.0774 ,1.38490 ,2.13301 ,20.92912 
196 ,39.2536 ,1.38676 ,2.12275 ,20.82839 
197 ,39.4618 ,1.38861 ,2.09537 ,20.55976 
198 ,39.6698 ,1.39084 ,2.09879 ,20.59334 
199 ,39.8615 ,1.39271 ,2.06115 ,20.22398 
200 ,40.0859 ,1.39498 ,2.05430 ,20.15682 
201 ,40.2779 ,1.39692 ,2.04746 ,20.08967 
202 ,40.4702 ,1.39885 ,2.04061 ,20.02251 
203 ,40.6622 ,1.40073 ,2.00982 ,19.72031 
204 ,40.8543 ,1.40265 ,2.01324 ,19.75388 
205 ,41.0624 ,1.40472 ,1.98244 ,19.45168 
206 ,41.2704 ,1.40685 ,1.97902 ,19.41810 
207 ,41.4626 ,1.40877 ,1.95848 ,19.21663 
208 ,41.6701 ,1.41083 ,1.95848 ,19.21663 
209 ,41.8786 ,1.41279 ,1.91742 ,18.81369 
210 ,42.0866 ,1.41492 ,1.91399 ,18.78011 
211 ,42.2787 ,1.41686 ,1.89688 ,18.61222 
212 ,42.4707 ,1.41881 ,1.89004 ,18.54507 
213 ,42.6630 ,1.42074 ,1.85924 ,18.24286 
214 ,42.8549 ,1.42265 ,1.87635 ,18.41075 
215 ,43.0628 ,1.42466 ,1.83871 ,18.04139 
216 ,43.2551 ,1.42670 ,1.83528 ,18.00781 
217 ,43.4634 ,1.42871 ,1.79422 ,17.60487 
218 ,43.6552 ,1.43065 ,1.80449 ,17.70561 
219 ,43.8635 ,1.43275 ,1.78053 ,17.47056 
220 ,44.0716 ,1.43473 ,1.77711 ,17.43698 
221 ,44.2951 ,1.43708 ,1.75657 ,17.23551 
222 ,44.4878 ,1.43899 ,1.72920 ,16.96689 
223 ,44.7119 ,1.44109 ,1.73946 ,17.06762 
224 ,44.9040 ,1.44316 ,1.71893 ,16.86615 
225 ,45.0960 ,1.44506 ,1.70182 ,16.69826 
226 ,45.2876 ,1.44697 ,1.66760 ,16.36248 
227 ,45.5122 ,1.44907 ,1.68129 ,16.49679 
228 ,45.7203 ,1.45135 ,1.65049 ,16.19458 
229 ,45.9126 ,1.45324 ,1.63338 ,16.02669 
230 ,46.1204 ,1.45530 ,1.62311 ,15.92596 
231 ,46.3123 ,1.45718 ,1.62311 ,15.92596 
232 ,46.5045 ,1.45917 ,1.58889 ,15.59018 
233 ,46.6962 ,1.46101 ,1.60258 ,15.72449 
234 ,46.8887 ,1.46292 ,1.56836 ,15.38871 
235 ,47.0807 ,1.46489 ,1.56151 ,15.32155 
236 ,47.2729 ,1.46680 ,1.54440 ,15.15366 
237 ,47.4646 ,1.46875 ,1.52729 ,14.98577 
238 ,47.6570 ,1.47070 ,1.52045 ,14.91861 
239 ,47.8651 ,1.47270 ,1.49649 ,14.68356 
240 ,48.0729 ,1.47480 ,1.48280 ,14.54925 
241 ,48.2970 ,1.47693 ,1.46911 ,14.41493 
242 ,48.4895 ,1.47895 ,1.44516 ,14.17989 
243 ,48.6975 ,1.48102 ,1.45200 ,14.24704 
244 ,48.8896 ,1.48300 ,1.42120 ,13.94484 
245 ,49.0815 ,1.48505 ,1.43147 ,14.04557 
246 ,49.2736 ,1.48678 ,1.41778 ,13.91126 
247 ,49.4657 ,1.48872 ,1.39040 ,13.64263 
248 ,49.6575 ,1.49064 ,1.38698 ,13.60906 
249 ,49.8499 ,1.49265 ,1.37671 ,13.50832 
250 ,50.0579 ,1.49465 ,1.36987 ,13.44116 
251 ,50.2501 ,1.49659 ,1.33565 ,13.10538 
252 ,50.4581 ,1.49867 ,1.33223 ,13.07180 
253 ,50.6503 ,1.50063 ,1.31169 ,12.87033 
254 ,50.8420 ,1.50249 ,1.30485 ,12.80318 
255 ,51.0344 ,1.50442 ,1.29800 ,12.73602 
256 ,51.2265 ,1.50634 ,1.26720 ,12.43381 
257 ,51.4187 ,1.50831 ,1.27063 ,12.46739 
258 ,51.6267 ,1.51033 ,1.23641 ,12.13161 
259 ,51.8188 ,1.51224 ,1.23298 ,12.09803 
260 ,52.0109 ,1.51424 ,1.20903 ,11.86298 
261 ,52.2188 ,1.51628 ,1.22956 ,12.06445 
262 ,52.4267 ,1.51825 ,1.17481 ,11.52720 
263 ,52.6192 ,1.52029 ,1.19876 ,11.76225 
264 ,52.8270 ,1.52229 ,1.16796 ,11.46004 
265 ,53.0029 ,1.52422 ,1.16796 ,11.46004 
266 ,53.1953 ,1.52603 ,1.14401 ,11.22500 
267 ,53.4034 ,1.52809 ,1.13374 ,11.12426 
268 ,53.5950 ,1.53001 ,1.12005 ,10.98995 
269 ,53.7874 ,1.53192 ,1.10294 ,10.82206 
270 ,53.9797 ,1.53386 ,1.09267 ,10.72132 
271 ,54.1877 ,1.53594 ,1.06872 ,10.48627 
272 ,54.3957 ,1.53800 ,1.06872 ,10.48627 
273 ,54.5875 ,1.53991 ,1.04819 ,10.28480 
274 ,54.7638 ,1.54182 ,1.04819 ,10.28480 
275 ,54.9559 ,1.54361 ,1.03108 ,10.11691 
276 ,55.1637 ,1.54558 ,1.00370 ,9.84829 
277 ,55.3721 ,1.54776 ,0.99685 ,9.78113 
278 ,55.5802 ,1.54991 ,1.00712 ,9.88186 
279 ,55.7723 ,1.55182 ,0.96263 ,9.44535 
280 ,55.9804 ,1.55386 ,0.96263 ,9.44535 
281 ,56.1564 ,1.55574 ,0.93525 ,9.17672 
282 ,56.3321 ,1.55750 ,0.92499 ,9.07598 
283 ,56.5408 ,1.55937 ,0.92499 ,9.07598 
284 ,56.7327 ,1.56136 ,0.91472 ,8.97525 
285 ,56.9249 ,1.56330 ,0.88734 ,8.70662 
286 ,57.1169 ,1.56523 ,0.89077 ,8.74020 
287 ,57.3090 ,1.56714 ,0.87366 ,8.57231 
288 ,57.5010 ,1.56906 ,0.86339 ,8.47158 
289 ,57.7091 ,1.57110 ,0.84970 ,8.33726 
290 ,57.9011 ,1.57305 ,0.84970 ,8.33726 
291 ,58.1089 ,1.57509 ,0.82232 ,8.06864 
292 ,58.3012 ,1.57703 ,0.81890 ,8.03506 
293 ,58.4930 ,1.57896 ,0.78468 ,7.69927 
294 ,58.6855 ,1.58094 ,0.79152 ,7.76643 
295 ,58.8936 ,1.58301 ,0.77099 ,7.56496 
296 ,59.0855 ,1.58490 ,0.76072 ,7.46423 
297 ,59.2778 ,1.58684 ,0.74704 ,7.32991 
298 ,59.4856 ,1.58890 ,0.74019 ,7.26276 
299 ,59.6938 ,1.59095 ,0.72308 ,7.09486 
300 ,59.9020 ,1.59302 ,0.72308 ,7.09486 
301 ,60.0940 ,1.59497 ,0.69570 ,6.82624 
302 ,60.2857 ,1.59685 ,0.69570 ,6.82624 
303 ,60.4782 ,1.59878 ,0.69228 ,6.79266 
304 ,60.6698 ,1.60072 ,0.65464 ,6.42330 
305 ,60.8783 ,1.60276 ,0.65464 ,6.42330 
306 ,61.0860 ,1.60487 ,0.64095 ,6.28899 
307 ,61.3106 ,1.60698 ,0.63068 ,6.18825 
308 ,61.5188 ,1.60921 ,0.61699 ,6.05394 
309 ,61.7107 ,1.61111 ,0.59304 ,5.81889 
310 ,61.9187 ,1.61322 ,0.59646 ,5.85247 
311 ,62.1265 ,1.61526 ,0.57935 ,5.68458 
312 ,62.3190 ,1.61722 ,0.57593 ,5.65100 
313 ,62.5269 ,1.61932 ,0.55539 ,5.44953 
314 ,62.7351 ,1.62140 ,0.53828 ,5.28164 
315 ,62.9107 ,1.62328 ,0.53828 ,5.28164 
316 ,63.1032 ,1.62503 ,0.53144 ,5.21448 
317 ,63.2952 ,1.62697 ,0.51775 ,5.08017 
318 ,63.4873 ,1.62888 ,0.49722 ,4.87870 
319 ,63.6795 ,1.63080 ,0.49722 ,4.87870 
320 ,63.8872 ,1.63289 ,0.48011 ,4.71081 
321 ,64.0632 ,1.63477 ,0.47668 ,4.67723 
322 ,64.2557 ,1.63659 ,0.45957 ,4.50934 
323 ,64.4636 ,1.63866 ,0.45615 ,4.47576 
324 ,64.6558 ,1.64057 ,0.43220 ,4.24071 
325 ,64.8479 ,1.64248 ,0.42193 ,4.13997 
326 ,65.0556 ,1.64457 ,0.41851 ,4.10640 
327 ,65.2639 ,1.64660 ,0.40140 ,3.93850 
328 ,65.4722 ,1.64873 ,0.37402 ,3.66988 
329 ,65.6802 ,1.65073 ,0.38429 ,3.77061 
330 ,65.8723 ,1.65274 ,0.35349 ,3.46841 
331 ,66.0803 ,1.65482 ,0.37744 ,3.70346 
332 ,66.2725 ,1.65673 ,0.33980 ,3.33410 
333 ,66.4805 ,1.65886 ,0.33295 ,3.26694 
334 ,66.6727 ,1.66072 ,0.31926 ,3.13263 
335 ,66.8649 ,1.66268 ,0.31584 ,3.09905 
336 ,67.0726 ,1.66478 ,0.28162 ,2.76326 
337 ,67.2965 ,1.66701 ,0.29189 ,2.86400 
338 ,67.4890 ,1.66890 ,0.26793 ,2.62895 
339 ,67.6970 ,1.67094 ,0.26451 ,2.59537 
340 ,67.8890 ,1.67294 ,0.25424 ,2.49464 
341 ,68.0972 ,1.67492 ,0.24398 ,2.39390 
342 ,68.2889 ,1.67690 ,0.23029 ,2.25959 
343 ,68.4814 ,1.67883 ,0.22687 ,2.22601 
344 ,68.6736 ,1.68074 ,0.20976 ,2.05812 
345 ,68.8656 ,1.68263 ,0.19607 ,1.92381 
346 ,69.0738 ,1.68472 ,0.17553 ,1.72234 
347 ,69.2818 ,1.68681 ,0.18922 ,1.85665 
348 ,69.4737 ,1.68871 ,0.16527 ,1.62160 
349 ,69.6819 ,1.69090 ,0.16869 ,1.65518 
350 ,69.8899 ,1.69295 ,0.14473 ,1.42013 
351 ,70.0818 ,1.69489 ,0.13789 ,1.35298 
352 ,70.3223 ,1.69706 ,0.12762 ,1.25224 
353 ,70.5304 ,1.69931 ,0.11051 ,1.08435 
354 ,70.7223 ,1.70123 ,0.11051 ,1.08435 
355 ,70.9305 ,1.70333 ,0.07287 ,0.71499 
356 ,71.1226 ,1.70525 ,0.08998 ,0.88288 
357 ,71.3307 ,1.70732 ,0.06260 ,0.61425 
358 ,71.5384 ,1.70938 ,0.06260 ,0.61425 
359 ,71.7304 ,1.71127 ,0.04207 ,0.41278 
360 ,71.9229 ,1.71325 ,0.04207 ,0.41278 
361 ,72.1150 ,1.71527 ,0.02154 ,0.21131 
362 ,72.3070 ,1.71707 ,0.02496 ,0.24489 
363 ,72.4992 ,1.71903 ,0.01469 ,0.14416 
364 ,72.7072 ,1.72101 ,0.00100 ,0.00984 
365 ,72.8994 ,1.72298 ,-0.01269 ,-0.12447 
366 ,73.1074 ,1.72505 ,-0.02295 ,-0.22520 
367 ,73.2995 ,1.72697 ,-0.03322 ,-0.32594 
368 ,73.4916 ,1.72894 ,-0.04691 ,-0.46025 
369 ,73.6836 ,1.73083 ,-0.03664 ,-0.35952 
370 ,73.8915 ,1.73290 ,-0.06744 ,-0.66172 
371 ,74.0999 ,1.73499 ,-0.06060 ,-0.59457 
372 ,74.3239 ,1.73713 ,-0.06402 ,-0.62814 
373 ,74.5158 ,1.73911 ,-0.09140 ,-0.89677 
374 ,74.7241 ,1.74125 ,-0.09140 ,-0.89677 
375 ,74.9160 ,1.74313 ,-0.11877 ,-1.16540 
376 ,75.0922 ,1.74502 ,-0.10851 ,-1.06466 
377 ,75.2841 ,1.74681 ,-0.12904 ,-1.26613 
378 ,75.4925 ,1.74886 ,-0.14273 ,-1.40045 
379 ,75.6841 ,1.75082 ,-0.15299 ,-1.50118 
380 ,75.8766 ,1.75273 ,-0.16326 ,-1.60191 
381 ,76.0842 ,1.75482 ,-0.17353 ,-1.70265 
382 ,76.3248 ,1.75719 ,-0.18037 ,-1.76981 
383 ,76.5488 ,1.75934 ,-0.20433 ,-2.00485 
384 ,76.7567 ,1.76151 ,-0.21802 ,-2.13917 
385 ,76.9488 ,1.76345 ,-0.21802 ,-2.13917 
386 ,77.1410 ,1.76539 ,-0.22828 ,-2.23990 
387 ,77.3491 ,1.76748 ,-0.23513 ,-2.30706 
388 ,77.5572 ,1.76952 ,-0.26250 ,-2.57569 
389 ,77.7334 ,1.77141 ,-0.25566 ,-2.50853 
390 ,77.9255 ,1.77320 ,-0.25908 ,-2.54211 
391 ,78.1176 ,1.77513 ,-0.27619 ,-2.71000 
392 ,78.3253 ,1.77718 ,-0.26935 ,-2.64284 
393 ,78.5175 ,1.77915 ,-0.30699 ,-3.01220 
394 ,78.7257 ,1.78121 ,-0.30357 ,-2.97863 
395 ,78.9178 ,1.78309 ,-0.32752 ,-3.21367 
396 ,79.1418 ,1.78520 ,-0.31726 ,-3.11294 
397 ,79.3340 ,1.78736 ,-0.34121 ,-3.34799 
398 ,79.5420 ,1.78940 ,-0.34806 ,-3.41514 
399 ,79.7500 ,1.79147 ,-0.35148 ,-3.44872 
400 ,79.9584 ,1.79354 ,-0.37544 ,-3.68377 
401 ,80.1503 ,1.79558 ,-0.36859 ,-3.61661 
402 ,80.3425 ,1.79743 ,-0.38912 ,-3.81808 
403 ,80.5181 ,1.79928 ,-0.40281 ,-3.95240 
404 ,80.7105 ,1.80107 ,-0.40281 ,-3.95240 
405 ,80.9188 ,1.80314 ,-0.41992 ,-4.12029 
406 ,81.1108 ,1.80505 ,-0.41308 ,-4.05313 
407 ,81.3189 ,1.80718 ,-0.44388 ,-4.35534 
408 ,81.4948 ,1.80903 ,-0.42677 ,-4.18744 
409 ,81.6868 ,1.81078 ,-0.44046 ,-4.32176 
410 ,81.8949 ,1.81286 ,-0.47810 ,-4.69112 
411 ,82.0869 ,1.81482 ,-0.45757 ,-4.48965 
412 ,82.2791 ,1.81671 ,-0.48837 ,-4.79185 
413 ,82.5032 ,1.81896 ,-0.49521 ,-4.85901 
414 ,82.6948 ,1.82088 ,-0.49521 ,-4.85901 
415 ,82.8874 ,1.82285 ,-0.49863 ,-4.89259 
416 ,83.1113 ,1.82490 ,-0.52943 ,-5.19479 
417 ,83.3196 ,1.82715 ,-0.53628 ,-5.26195 
418 ,83.5117 ,1.82906 ,-0.53970 ,-5.29553 
419 ,83.7197 ,1.83117 ,-0.55339 ,-5.42984 
420 ,83.9279 ,1.83318 ,-0.54997 ,-5.39626 
421 ,84.1359 ,1.83528 ,-0.56708 ,-5.56415 
422 ,84.3601 ,1.83745 ,-0.57392 ,-5.63131 
423 ,84.5679 ,1.83964 ,-0.57392 ,-5.63131 
424 ,84.7602 ,1.84156 ,-0.60130 ,-5.89994 
425 ,84.9519 ,1.84359 ,-0.60130 ,-5.89994 
426 ,85.1443 ,1.84537 ,-0.61499 ,-6.03425 
427 ,85.3360 ,1.84726 ,-0.63894 ,-6.26930 
428 ,85.5285 ,1.84925 ,-0.61499 ,-6.03425 
429 ,85.7362 ,1.85127 ,-0.64579 ,-6.33646 
430 ,85.9281 ,1.85330 ,-0.64921 ,-6.37003 
431 ,86.1362 ,1.85529 ,-0.64579 ,-6.33646 
432 ,86.3288 ,1.85725 ,-0.66290 ,-6.50435 
433 ,86.5529 ,1.85946 ,-0.66632 ,-6.53793 
434 ,86.7609 ,1.86150 ,-0.69370 ,-6.80655 
435 ,86.9529 ,1.86347 ,-0.69712 ,-6.84013 
436 ,87.1611 ,1.86560 ,-0.70739 ,-6.94086 
437 ,87.3691 ,1.86755 ,-0.70396 ,-6.90729 
438 ,87.5613 ,1.86956 ,-0.73818 ,-7.24307 
439 ,87.7531 ,1.87157 ,-0.72792 ,-7.14233 
440 ,87.9456 ,1.87338 ,-0.73818 ,-7.24307 
441 ,88.1531 ,1.87542 ,-0.75530 ,-7.41096 
442 ,88.3457 ,1.87742 ,-0.76556 ,-7.51170 
443 ,88.5538 ,1.87947 ,-0.76214 ,-7.47812 
444 ,88.7456 ,1.88138 ,-0.77925 ,-7.64601 
445 ,88.9380 ,1.88328 ,-0.79636 ,-7.81390 
446 ,89.1458 ,1.88538 ,-0.79636 ,-7.81390 
447 ,89.3379 ,1.88733 ,-0.80321 ,-7.88106 
448 ,89.5302 ,1.88923 ,-0.81689 ,-8.01537 
449 ,89.7223 ,1.89114 ,-0.83401 ,-8.18326 
450 ,89.9145 ,1.89309 ,-0.82374 ,-8.08253 
451 ,90.1221 ,1.89513 ,-0.84085 ,-8.25042 
452 ,90.3140 ,1.89702 ,-0.84085 ,-8.25042 
453 ,90.5224 ,1.89909 ,-0.86138 ,-8.45189 
454 ,90.7146 ,1.90105 ,-0.85112 ,-8.35115 
455 ,90.9065 ,1.90297 ,-0.87507 ,-8.58620 
456 ,91.0987 ,1.90489 ,-0.88876 ,-8.72051 
457 ,91.3228 ,1.90714 ,-0.90245 ,-8.85483 
458 ,91.5308 ,1.90925 ,-0.89560 ,-8.78767 
459 ,91.7389 ,1.91129 ,-0.91614 ,-8.98914 
460 ,91.9309 ,1.91322 ,-0.90929 ,-8.92198 
461 ,92.1227 ,1.91513 ,-0.94009 ,-9.22419 
462 ,92.3149 ,1.91705 ,-0.95036 ,-9.32492 
463 ,92.4909 ,1.91896 ,-0.94009 ,-9.22419 
