Data stamp = , 30-04-2022 00:02:28 774

Calibration Values: 
Slope = , 26.54 , g/V 
Offset Voltage at no contact = , -0.501760 , V 

No , Time , Stage Position ,   Mass , Force 
   ,  (s) ,      (mm)      ,   (g)  , (mN)  

1 ,0.0000 ,1.04950 ,4.94946 ,48.56407 
2 ,0.2105 ,1.04957 ,4.96315 ,48.69838 
3 ,0.7869 ,1.05183 ,4.97683 ,48.83269 
4 ,0.9951 ,1.05406 ,4.94603 ,48.53049 
5 ,1.1874 ,1.05606 ,4.96999 ,48.76554 
6 ,1.3790 ,1.05807 ,4.94261 ,48.49691 
7 ,1.5715 ,1.05992 ,4.92550 ,48.32902 
8 ,1.7794 ,1.06202 ,4.89128 ,47.99324 
9 ,1.9877 ,1.06405 ,4.88444 ,47.92608 
10 ,2.1798 ,1.06603 ,4.86390 ,47.72461 
11 ,2.3719 ,1.06800 ,4.85706 ,47.65745 
12 ,2.5639 ,1.06982 ,4.83995 ,47.48956 
13 ,2.7879 ,1.07211 ,4.81941 ,47.28809 
14 ,2.9961 ,1.07420 ,4.78861 ,46.98589 
15 ,3.1882 ,1.07616 ,4.78177 ,46.91873 
16 ,3.3803 ,1.07807 ,4.73386 ,46.44863 
17 ,3.5719 ,1.07995 ,4.74755 ,46.58295 
18 ,3.7645 ,1.08186 ,4.71675 ,46.28074 
19 ,3.9725 ,1.08393 ,4.69622 ,46.07927 
20 ,4.1646 ,1.08586 ,4.68253 ,45.94496 
21 ,4.3564 ,1.08777 ,4.65173 ,45.64275 
22 ,4.5488 ,1.08967 ,4.66199 ,45.74349 
23 ,4.7567 ,1.09180 ,4.62093 ,45.34055 
24 ,4.9487 ,1.09371 ,4.61408 ,45.27339 
25 ,5.1248 ,1.09557 ,4.57644 ,44.90403 
26 ,5.3170 ,1.09734 ,4.55933 ,44.73614 
27 ,5.5091 ,1.09930 ,4.56275 ,44.76972 
28 ,5.7330 ,1.10146 ,4.52853 ,44.43394 
29 ,5.9413 ,1.10362 ,4.51142 ,44.26604 
30 ,6.1494 ,1.10566 ,4.49773 ,44.13173 
31 ,6.3572 ,1.10780 ,4.45324 ,43.69521 
32 ,6.5494 ,1.10967 ,4.46009 ,43.76237 
33 ,6.7415 ,1.11165 ,4.42586 ,43.42659 
34 ,6.9336 ,1.11362 ,4.43955 ,43.56090 
35 ,7.1256 ,1.11545 ,4.38822 ,43.05723 
36 ,7.3178 ,1.11739 ,4.37453 ,42.92291 
37 ,7.5255 ,1.11949 ,4.36769 ,42.85576 
38 ,7.7181 ,1.12133 ,4.34031 ,42.58713 
39 ,7.9096 ,1.12328 ,4.33347 ,42.51997 
40 ,8.1022 ,1.12520 ,4.30951 ,42.28492 
41 ,8.2940 ,1.12719 ,4.28213 ,42.01630 
42 ,8.4863 ,1.12910 ,4.27529 ,41.94914 
43 ,8.6623 ,1.13092 ,4.24107 ,41.61336 
44 ,8.8545 ,1.13274 ,4.23080 ,41.51262 
45 ,9.0461 ,1.13465 ,4.23422 ,41.54620 
46 ,9.2541 ,1.13670 ,4.21027 ,41.31115 
47 ,9.4462 ,1.13864 ,4.18631 ,41.07611 
48 ,9.6385 ,1.14060 ,4.15551 ,40.77390 
49 ,9.8466 ,1.14271 ,4.14525 ,40.67317 
50 ,10.0550 ,1.14472 ,4.13498 ,40.57243 
51 ,10.2471 ,1.14667 ,4.12129 ,40.43812 
52 ,10.4552 ,1.14874 ,4.10760 ,40.30380 
53 ,10.6473 ,1.15068 ,4.08707 ,40.10233 
54 ,10.8395 ,1.15259 ,4.06312 ,39.86729 
55 ,11.0473 ,1.15465 ,4.04943 ,39.73297 
56 ,11.2391 ,1.15656 ,4.02547 ,39.49793 
57 ,11.4313 ,1.15855 ,4.01520 ,39.39719 
58 ,11.6391 ,1.16059 ,4.00152 ,39.26288 
59 ,11.8478 ,1.16266 ,3.98098 ,39.06141 
60 ,12.0400 ,1.16460 ,3.95703 ,38.82636 
61 ,12.2478 ,1.16663 ,3.95361 ,38.79278 
62 ,12.4400 ,1.16855 ,3.92623 ,38.52415 
63 ,12.6481 ,1.17067 ,3.89543 ,38.22195 
64 ,12.8561 ,1.17273 ,3.90227 ,38.28911 
65 ,13.0483 ,1.17467 ,3.88516 ,38.12122 
66 ,13.2404 ,1.17657 ,3.85779 ,37.85259 
67 ,13.4321 ,1.17858 ,3.83041 ,37.58396 
68 ,13.6245 ,1.18040 ,3.81672 ,37.44965 
69 ,13.8161 ,1.18233 ,3.80645 ,37.34891 
70 ,14.0086 ,1.18422 ,3.79619 ,37.24818 
71 ,14.2008 ,1.18617 ,3.75512 ,36.84524 
72 ,14.3928 ,1.18811 ,3.77223 ,37.01313 
73 ,14.5844 ,1.19004 ,3.73117 ,36.61019 
74 ,14.8087 ,1.19222 ,3.72090 ,36.50946 
75 ,15.0010 ,1.19413 ,3.70037 ,36.30799 
76 ,15.1931 ,1.19611 ,3.69010 ,36.20725 
77 ,15.3853 ,1.19799 ,3.66614 ,35.97220 
78 ,15.5772 ,1.19989 ,3.66614 ,35.97220 
79 ,15.7693 ,1.20181 ,3.64219 ,35.73716 
80 ,15.9614 ,1.20385 ,3.60797 ,35.40137 
81 ,16.1536 ,1.20570 ,3.61481 ,35.46853 
82 ,16.3457 ,1.20764 ,3.57032 ,35.03201 
83 ,16.5377 ,1.20954 ,3.58059 ,35.13275 
84 ,16.7294 ,1.21143 ,3.55321 ,34.86412 
85 ,16.9216 ,1.21336 ,3.52241 ,34.56192 
86 ,17.1298 ,1.21547 ,3.52241 ,34.56192 
87 ,17.3220 ,1.21737 ,3.49846 ,34.32687 
88 ,17.5140 ,1.21933 ,3.49161 ,34.25971 
89 ,17.7060 ,1.22120 ,3.46766 ,34.02466 
90 ,17.9142 ,1.22327 ,3.46081 ,33.95751 
91 ,18.1063 ,1.22522 ,3.42659 ,33.62172 
92 ,18.2983 ,1.22712 ,3.41290 ,33.48741 
93 ,18.5065 ,1.22911 ,3.40948 ,33.45383 
94 ,18.7144 ,1.23121 ,3.37868 ,33.15163 
95 ,18.9224 ,1.23344 ,3.35815 ,32.95016 
96 ,19.1145 ,1.23534 ,3.36157 ,32.98374 
97 ,19.3227 ,1.23741 ,3.32393 ,32.61437 
98 ,19.5148 ,1.23933 ,3.32393 ,32.61437 
99 ,19.7070 ,1.24121 ,3.28971 ,32.27859 
100 ,19.8991 ,1.24312 ,3.28286 ,32.21143 
101 ,20.0747 ,1.24502 ,3.27602 ,32.14428 
102 ,20.2833 ,1.24688 ,3.23495 ,31.74134 
103 ,20.4912 ,1.24908 ,3.24180 ,31.80849 
104 ,20.6833 ,1.25111 ,3.21784 ,31.57345 
105 ,20.8913 ,1.25299 ,3.19731 ,31.37198 
106 ,21.0835 ,1.25494 ,3.19731 ,31.37198 
107 ,21.2593 ,1.25688 ,3.17677 ,31.17051 
108 ,21.4517 ,1.25867 ,3.16309 ,31.03619 
109 ,21.6439 ,1.26060 ,3.14255 ,30.83472 
110 ,21.8514 ,1.26267 ,3.13913 ,30.80115 
111 ,22.0439 ,1.26455 ,3.09806 ,30.39821 
112 ,22.2356 ,1.26648 ,3.10149 ,30.43178 
113 ,22.4281 ,1.26844 ,3.06726 ,30.09600 
114 ,22.6362 ,1.27049 ,3.06384 ,30.06242 
115 ,22.8442 ,1.27264 ,3.02962 ,29.72664 
116 ,23.0365 ,1.27455 ,3.04331 ,29.86095 
117 ,23.2444 ,1.27656 ,3.01251 ,29.55875 
118 ,23.4366 ,1.27848 ,3.00567 ,29.49159 
119 ,23.6446 ,1.28054 ,2.97487 ,29.18939 
120 ,23.8367 ,1.28246 ,2.96802 ,29.12223 
121 ,24.0450 ,1.28460 ,2.94064 ,28.85360 
122 ,24.2370 ,1.28651 ,2.94064 ,28.85360 
123 ,24.4444 ,1.28857 ,2.92353 ,28.68571 
124 ,24.6371 ,1.29048 ,2.90642 ,28.51782 
125 ,24.8446 ,1.29262 ,2.86878 ,28.14846 
126 ,25.0371 ,1.29446 ,2.87220 ,28.18204 
127 ,25.2293 ,1.29638 ,2.83798 ,27.84625 
128 ,25.4373 ,1.29852 ,2.83798 ,27.84625 
129 ,25.6294 ,1.30039 ,2.82429 ,27.71194 
130 ,25.8376 ,1.30252 ,2.81060 ,27.57763 
131 ,26.0455 ,1.30459 ,2.79007 ,27.37616 
132 ,26.2377 ,1.30649 ,2.78322 ,27.30900 
133 ,26.4295 ,1.30840 ,2.75243 ,27.00680 
134 ,26.6214 ,1.31031 ,2.74900 ,26.97322 
135 ,26.8615 ,1.31267 ,2.71136 ,26.60386 
136 ,27.0699 ,1.31476 ,2.70109 ,26.50312 
137 ,27.2620 ,1.31670 ,2.69767 ,26.46954 
138 ,27.4699 ,1.31881 ,2.66003 ,26.10018 
139 ,27.6622 ,1.32075 ,2.66345 ,26.13376 
140 ,27.8700 ,1.32276 ,2.63265 ,25.83156 
141 ,28.0623 ,1.32469 ,2.63949 ,25.89871 
142 ,28.2545 ,1.32668 ,2.62238 ,25.73082 
143 ,28.4467 ,1.32859 ,2.58816 ,25.39504 
144 ,28.6547 ,1.33068 ,2.58474 ,25.36146 
145 ,28.8463 ,1.33256 ,2.55736 ,25.09283 
146 ,29.0390 ,1.33451 ,2.56763 ,25.19357 
147 ,29.2469 ,1.33658 ,2.52998 ,24.82421 
148 ,29.4391 ,1.33850 ,2.54367 ,24.95852 
149 ,29.6466 ,1.34060 ,2.50945 ,24.62274 
150 ,29.8552 ,1.34276 ,2.49576 ,24.48842 
151 ,30.0472 ,1.34470 ,2.48550 ,24.38769 
152 ,30.2393 ,1.34656 ,2.47181 ,24.25338 
153 ,30.4313 ,1.34837 ,2.44785 ,24.01833 
154 ,30.6235 ,1.35034 ,2.44443 ,23.98475 
155 ,30.8154 ,1.35228 ,2.42390 ,23.78328 
156 ,31.0073 ,1.35419 ,2.41021 ,23.64897 
157 ,31.2151 ,1.35624 ,2.39652 ,23.51465 
158 ,31.4073 ,1.35819 ,2.36230 ,23.17887 
159 ,31.5995 ,1.36003 ,2.37256 ,23.27961 
160 ,31.7917 ,1.36201 ,2.33834 ,22.94382 
161 ,32.0001 ,1.36410 ,2.33834 ,22.94382 
162 ,32.1756 ,1.36598 ,2.31097 ,22.67520 
163 ,32.3682 ,1.36780 ,2.29043 ,22.47373 
164 ,32.5600 ,1.36972 ,2.30070 ,22.57446 
165 ,32.7523 ,1.37160 ,2.26990 ,22.27226 
166 ,32.9443 ,1.37351 ,2.25621 ,22.13794 
167 ,33.1365 ,1.37547 ,2.25621 ,22.13794 
168 ,33.3285 ,1.37736 ,2.22883 ,21.86932 
169 ,33.5204 ,1.37931 ,2.22541 ,21.83574 
170 ,33.7128 ,1.38124 ,2.18435 ,21.43280 
171 ,33.9045 ,1.38318 ,2.19461 ,21.53353 
172 ,34.1127 ,1.38514 ,2.16039 ,21.19775 
173 ,34.3046 ,1.38711 ,2.15697 ,21.16417 
174 ,34.4810 ,1.38905 ,2.14328 ,21.02986 
175 ,34.6892 ,1.39097 ,2.13301 ,20.92912 
176 ,34.8812 ,1.39290 ,2.11590 ,20.76123 
177 ,35.0734 ,1.39485 ,2.09537 ,20.55976 
178 ,35.2653 ,1.39670 ,2.08168 ,20.42545 
179 ,35.4570 ,1.39866 ,2.06457 ,20.25756 
180 ,35.6493 ,1.40059 ,2.04746 ,20.08967 
181 ,35.8575 ,1.40269 ,2.02693 ,19.88820 
182 ,36.0496 ,1.40457 ,2.00982 ,19.72031 
183 ,36.2578 ,1.40664 ,1.99955 ,19.61957 
184 ,36.4496 ,1.40860 ,1.98244 ,19.45168 
185 ,36.6580 ,1.41065 ,1.99270 ,19.55241 
186 ,36.8496 ,1.41259 ,1.96190 ,19.25021 
187 ,37.0423 ,1.41454 ,1.97217 ,19.35094 
188 ,37.2341 ,1.41641 ,1.91399 ,18.78011 
189 ,37.4262 ,1.41830 ,1.94137 ,19.04874 
190 ,37.6339 ,1.42043 ,1.90031 ,18.64580 
191 ,37.8262 ,1.42239 ,1.90373 ,18.67938 
192 ,38.0183 ,1.42427 ,1.89346 ,18.57864 
193 ,38.2106 ,1.42616 ,1.86608 ,18.31002 
194 ,38.4187 ,1.42826 ,1.85240 ,18.17570 
195 ,38.6267 ,1.43034 ,1.85582 ,18.20928 
196 ,38.8349 ,1.43234 ,1.84897 ,18.14213 
197 ,39.0431 ,1.43456 ,1.84555 ,18.10855 
198 ,39.2511 ,1.43660 ,1.82160 ,17.87350 
199 ,39.4432 ,1.43853 ,1.83528 ,18.00781 
200 ,39.6510 ,1.44055 ,1.81133 ,17.77276 
201 ,39.8429 ,1.44250 ,1.81475 ,17.80634 
202 ,40.0356 ,1.44441 ,1.78737 ,17.53772 
203 ,40.2274 ,1.44636 ,1.80791 ,17.73919 
204 ,40.4195 ,1.44827 ,1.78053 ,17.47056 
205 ,40.6437 ,1.45036 ,1.78737 ,17.53772 
206 ,40.8515 ,1.45259 ,1.75315 ,17.20193 
207 ,41.0439 ,1.45454 ,1.75657 ,17.23551 
208 ,41.2519 ,1.45656 ,1.71893 ,16.86615 
209 ,41.4598 ,1.45866 ,1.72920 ,16.96689 
210 ,41.6360 ,1.46054 ,1.69155 ,16.59752 
211 ,41.8281 ,1.46232 ,1.71209 ,16.79899 
212 ,42.0197 ,1.46422 ,1.69155 ,16.59752 
213 ,42.2120 ,1.46616 ,1.66760 ,16.36248 
214 ,42.4042 ,1.46812 ,1.66418 ,16.32890 
215 ,42.6124 ,1.47009 ,1.64364 ,16.12743 
216 ,42.8045 ,1.47215 ,1.62995 ,15.99311 
217 ,43.0282 ,1.47430 ,1.60600 ,15.75807 
218 ,43.2366 ,1.47649 ,1.58547 ,15.55660 
219 ,43.4449 ,1.47853 ,1.59573 ,15.65733 
220 ,43.6369 ,1.48044 ,1.56836 ,15.38871 
221 ,43.8449 ,1.48251 ,1.55467 ,15.25439 
222 ,44.0371 ,1.48443 ,1.52729 ,14.98577 
223 ,44.2286 ,1.48636 ,1.54098 ,15.12008 
224 ,44.4372 ,1.48830 ,1.49991 ,14.71714 
225 ,44.6292 ,1.49035 ,1.49991 ,14.71714 
226 ,44.8372 ,1.49244 ,1.47938 ,14.51567 
227 ,45.0294 ,1.49433 ,1.47596 ,14.48209 
228 ,45.2370 ,1.49640 ,1.44858 ,14.21346 
229 ,45.4295 ,1.49834 ,1.44516 ,14.17989 
230 ,45.6375 ,1.50044 ,1.42120 ,13.94484 
231 ,45.8295 ,1.50233 ,1.42120 ,13.94484 
232 ,46.0376 ,1.50446 ,1.39383 ,13.67621 
233 ,46.2297 ,1.50631 ,1.39725 ,13.70979 
234 ,46.4378 ,1.50838 ,1.35618 ,13.30685 
235 ,46.6298 ,1.51030 ,1.36303 ,13.37401 
236 ,46.8220 ,1.51223 ,1.33223 ,13.07180 
237 ,47.0301 ,1.51424 ,1.32196 ,12.97107 
238 ,47.2380 ,1.51641 ,1.30827 ,12.83675 
239 ,47.4300 ,1.51835 ,1.30827 ,12.83675 
240 ,47.6383 ,1.52043 ,1.28089 ,12.56813 
241 ,47.8465 ,1.52250 ,1.28089 ,12.56813 
242 ,48.0383 ,1.52443 ,1.25009 ,12.26592 
243 ,48.2304 ,1.52632 ,1.26378 ,12.40024 
244 ,48.4224 ,1.52826 ,1.23641 ,12.13161 
245 ,48.6142 ,1.53020 ,1.22272 ,11.99730 
246 ,48.8066 ,1.53208 ,1.21587 ,11.93014 
247 ,48.9989 ,1.53402 ,1.20218 ,11.79583 
248 ,49.1907 ,1.53599 ,1.18507 ,11.62794 
249 ,49.3830 ,1.53791 ,1.16454 ,11.42647 
250 ,49.5907 ,1.53997 ,1.15427 ,11.32573 
251 ,49.7831 ,1.54183 ,1.14058 ,11.19142 
252 ,49.9751 ,1.54378 ,1.11321 ,10.92279 
253 ,50.1673 ,1.54583 ,1.11321 ,10.92279 
254 ,50.3592 ,1.54762 ,1.09952 ,10.78848 
255 ,50.5835 ,1.54976 ,1.11321 ,10.92279 
256 ,50.7751 ,1.55176 ,1.07214 ,10.51985 
257 ,50.9676 ,1.55371 ,1.07214 ,10.51985 
258 ,51.1592 ,1.55562 ,1.04476 ,10.25123 
259 ,51.3680 ,1.55763 ,1.03450 ,10.15049 
260 ,51.5759 ,1.55979 ,1.02423 ,10.04976 
261 ,51.7840 ,1.56174 ,1.01739 ,9.98260 
262 ,51.9761 ,1.56378 ,0.98659 ,9.68039 
263 ,52.1682 ,1.56568 ,0.99343 ,9.74755 
264 ,52.3601 ,1.56759 ,0.96605 ,9.47892 
265 ,52.5524 ,1.56951 ,0.96263 ,9.44535 
266 ,52.7445 ,1.57148 ,0.94552 ,9.27745 
267 ,52.9361 ,1.57336 ,0.94210 ,9.24388 
268 ,53.1285 ,1.57531 ,0.92841 ,9.10956 
269 ,53.3368 ,1.57737 ,0.90446 ,8.87451 
270 ,53.5448 ,1.57935 ,0.92841 ,9.10956 
271 ,53.7687 ,1.58159 ,0.90103 ,8.84094 
272 ,53.9607 ,1.58365 ,0.87023 ,8.53873 
273 ,54.1690 ,1.58569 ,0.87023 ,8.53873 
274 ,54.3931 ,1.58785 ,0.84286 ,8.27011 
275 ,54.5850 ,1.58990 ,0.83601 ,8.20295 
276 ,54.7932 ,1.59188 ,0.83259 ,8.16937 
277 ,54.9850 ,1.59390 ,0.81548 ,8.00148 
278 ,55.1769 ,1.59575 ,0.78126 ,7.66570 
279 ,55.3692 ,1.59769 ,0.79495 ,7.80001 
280 ,55.5775 ,1.59977 ,0.77099 ,7.56496 
281 ,55.7855 ,1.60188 ,0.75046 ,7.36349 
282 ,55.9775 ,1.60379 ,0.73335 ,7.19560 
283 ,56.1699 ,1.60569 ,0.74361 ,7.29633 
284 ,56.3616 ,1.60763 ,0.71624 ,7.02771 
285 ,56.5700 ,1.60968 ,0.71281 ,6.99413 
286 ,56.7619 ,1.61165 ,0.67859 ,6.65835 
287 ,56.9701 ,1.61370 ,0.68201 ,6.69193 
288 ,57.1942 ,1.61585 ,0.66490 ,6.52403 
289 ,57.4021 ,1.61799 ,0.64437 ,6.32256 
290 ,57.5944 ,1.61996 ,0.64779 ,6.35614 
291 ,57.7862 ,1.62187 ,0.63410 ,6.22183 
292 ,57.9784 ,1.62382 ,0.61015 ,5.98678 
293 ,58.1864 ,1.62586 ,0.61015 ,5.98678 
294 ,58.3785 ,1.62778 ,0.59304 ,5.81889 
295 ,58.5702 ,1.62975 ,0.59988 ,5.88605 
296 ,58.7628 ,1.63157 ,0.56908 ,5.58384 
297 ,58.9549 ,1.63356 ,0.56908 ,5.58384 
298 ,59.1470 ,1.63541 ,0.55539 ,5.44953 
299 ,59.3391 ,1.63736 ,0.53144 ,5.21448 
300 ,59.5307 ,1.63942 ,0.53486 ,5.24806 
301 ,59.7231 ,1.64124 ,0.50406 ,4.94585 
302 ,59.9153 ,1.64312 ,0.51433 ,5.04659 
303 ,60.1071 ,1.64504 ,0.49380 ,4.84512 
304 ,60.3155 ,1.64717 ,0.49380 ,4.84512 
305 ,60.5074 ,1.64908 ,0.48353 ,4.74438 
306 ,60.6992 ,1.65093 ,0.46642 ,4.57649 
307 ,60.8916 ,1.65285 ,0.46300 ,4.54291 
308 ,61.0837 ,1.65487 ,0.43904 ,4.30787 
309 ,61.2759 ,1.65677 ,0.44931 ,4.40860 
310 ,61.4839 ,1.65884 ,0.40482 ,3.97208 
311 ,61.6916 ,1.66081 ,0.41509 ,4.07282 
312 ,61.8680 ,1.66281 ,0.38086 ,3.73703 
313 ,62.0599 ,1.66462 ,0.38771 ,3.80419 
314 ,62.2522 ,1.66653 ,0.38771 ,3.80419 
315 ,62.4603 ,1.66858 ,0.36375 ,3.56914 
316 ,62.6524 ,1.67055 ,0.36375 ,3.56914 
317 ,62.8603 ,1.67252 ,0.34322 ,3.36767 
318 ,63.0524 ,1.67451 ,0.33295 ,3.26694 
319 ,63.2606 ,1.67657 ,0.31242 ,3.06547 
320 ,63.4524 ,1.67851 ,0.32269 ,3.16620 
321 ,63.6609 ,1.68056 ,0.30558 ,2.99831 
322 ,63.8526 ,1.68250 ,0.30558 ,2.99831 
323 ,64.0771 ,1.68461 ,0.27478 ,2.69611 
324 ,64.2848 ,1.68680 ,0.26109 ,2.56179 
325 ,64.4771 ,1.68871 ,0.25767 ,2.52822 
326 ,64.6850 ,1.69084 ,0.23371 ,2.29317 
327 ,64.8772 ,1.69269 ,0.23371 ,2.29317 
328 ,65.0534 ,1.69461 ,0.22002 ,2.15885 
329 ,65.2456 ,1.69638 ,0.20976 ,2.05812 
330 ,65.4374 ,1.69833 ,0.21660 ,2.12528 
331 ,65.6296 ,1.70028 ,0.20976 ,2.05812 
332 ,65.8376 ,1.70234 ,0.19264 ,1.89023 
333 ,66.0455 ,1.70444 ,0.16527 ,1.62160 
334 ,66.2374 ,1.70636 ,0.16185 ,1.58802 
335 ,66.4458 ,1.70842 ,0.13447 ,1.31940 
336 ,66.6380 ,1.71035 ,0.15158 ,1.48729 
337 ,66.8462 ,1.71241 ,0.11736 ,1.15151 
338 ,67.0378 ,1.71435 ,0.12762 ,1.25224 
339 ,67.2462 ,1.71630 ,0.10367 ,1.01719 
340 ,67.4382 ,1.71837 ,0.11051 ,1.08435 
341 ,67.6303 ,1.72024 ,0.08656 ,0.84930 
342 ,67.8224 ,1.72213 ,0.07971 ,0.78214 
343 ,68.0145 ,1.72411 ,0.07971 ,0.78214 
344 ,68.2067 ,1.72604 ,0.04891 ,0.47994 
345 ,68.3987 ,1.72795 ,0.04891 ,0.47994 
346 ,68.6068 ,1.73002 ,0.02154 ,0.21131 
347 ,68.8150 ,1.73200 ,0.03180 ,0.31205 
348 ,69.0226 ,1.73421 ,0.01469 ,0.14416 
349 ,69.2151 ,1.73611 ,0.01811 ,0.17773 
350 ,69.3907 ,1.73802 ,-0.01269 ,-0.12447 
351 ,69.5830 ,1.73977 ,-0.02637 ,-0.25878 
352 ,69.7748 ,1.74172 ,0.00100 ,0.00984 
353 ,69.9668 ,1.74362 ,-0.03664 ,-0.35952 
354 ,70.1593 ,1.74555 ,-0.03322 ,-0.32594 
355 ,70.3995 ,1.74792 ,-0.04348 ,-0.42667 
356 ,70.6077 ,1.75007 ,-0.07428 ,-0.72888 
357 ,70.8318 ,1.75220 ,-0.06402 ,-0.62814 
358 ,71.0239 ,1.75423 ,-0.09482 ,-0.93035 
359 ,71.2160 ,1.75609 ,-0.08797 ,-0.86319 
360 ,71.4080 ,1.75805 ,-0.10851 ,-1.06466 
361 ,71.6161 ,1.76000 ,-0.11193 ,-1.09824 
362 ,71.8241 ,1.76219 ,-0.13588 ,-1.33329 
363 ,72.0162 ,1.76408 ,-0.12904 ,-1.26613 
364 ,72.2083 ,1.76600 ,-0.15984 ,-1.56834 
365 ,72.4003 ,1.76793 ,-0.15984 ,-1.56834 
366 ,72.6080 ,1.77004 ,-0.16668 ,-1.63549 
367 ,72.8006 ,1.77197 ,-0.18037 ,-1.76981 
368 ,73.0087 ,1.77402 ,-0.18379 ,-1.80338 
369 ,73.2167 ,1.77612 ,-0.18379 ,-1.80338 
370 ,73.4088 ,1.77799 ,-0.21117 ,-2.07201 
371 ,73.6008 ,1.77994 ,-0.20433 ,-2.00485 
372 ,73.7929 ,1.78189 ,-0.23855 ,-2.34064 
373 ,73.9847 ,1.78373 ,-0.24539 ,-2.40779 
374 ,74.1771 ,1.78567 ,-0.23513 ,-2.30706 
375 ,74.3849 ,1.78778 ,-0.27277 ,-2.67642 
376 ,74.5772 ,1.78969 ,-0.25566 ,-2.50853 
377 ,74.7532 ,1.79155 ,-0.28304 ,-2.77716 
378 ,74.9292 ,1.79333 ,-0.28988 ,-2.84431 
379 ,75.1214 ,1.79514 ,-0.29330 ,-2.87789 
380 ,75.3135 ,1.79705 ,-0.29330 ,-2.87789 
381 ,75.5057 ,1.79896 ,-0.31726 ,-3.11294 
382 ,75.6976 ,1.80096 ,-0.31384 ,-3.07936 
383 ,75.8896 ,1.80282 ,-0.33779 ,-3.31441 
384 ,76.0979 ,1.80483 ,-0.32752 ,-3.21367 
385 ,76.3060 ,1.80698 ,-0.35148 ,-3.44872 
386 ,76.5142 ,1.80906 ,-0.35148 ,-3.44872 
387 ,76.7062 ,1.81100 ,-0.37886 ,-3.71735 
388 ,76.8982 ,1.81288 ,-0.37201 ,-3.65019 
389 ,77.0743 ,1.81479 ,-0.39939 ,-3.91882 
390 ,77.2665 ,1.81655 ,-0.39597 ,-3.88524 
391 ,77.4585 ,1.81853 ,-0.39597 ,-3.88524 
392 ,77.6665 ,1.82056 ,-0.42677 ,-4.18744 
393 ,77.8585 ,1.82248 ,-0.41992 ,-4.12029 
394 ,78.0824 ,1.82464 ,-0.44388 ,-4.35534 
395 ,78.2747 ,1.82673 ,-0.44388 ,-4.35534 
396 ,78.4829 ,1.82877 ,-0.45757 ,-4.48965 
397 ,78.6910 ,1.83082 ,-0.46099 ,-4.52323 
398 ,78.8830 ,1.83269 ,-0.47126 ,-4.62396 
399 ,79.0911 ,1.83486 ,-0.49521 ,-4.85901 
400 ,79.2671 ,1.83670 ,-0.49521 ,-4.85901 
401 ,79.4592 ,1.83849 ,-0.50548 ,-4.95975 
402 ,79.6672 ,1.84057 ,-0.50548 ,-4.95975 
403 ,79.8594 ,1.84250 ,-0.50890 ,-4.99332 
404 ,80.0514 ,1.84444 ,-0.52943 ,-5.19479 
405 ,80.2435 ,1.84637 ,-0.53628 ,-5.26195 
406 ,80.4357 ,1.84828 ,-0.53970 ,-5.29553 
407 ,80.6438 ,1.85034 ,-0.54654 ,-5.36268 
408 ,80.8680 ,1.85239 ,-0.56023 ,-5.49700 
409 ,81.0760 ,1.85470 ,-0.57050 ,-5.59773 
410 ,81.2681 ,1.85659 ,-0.59788 ,-5.86636 
411 ,81.4601 ,1.85849 ,-0.58077 ,-5.69847 
412 ,81.6682 ,1.86056 ,-0.61499 ,-6.03425 
413 ,81.8600 ,1.86252 ,-0.60814 ,-5.96709 
414 ,82.0682 ,1.86458 ,-0.62525 ,-6.13499 
415 ,82.2765 ,1.86666 ,-0.62868 ,-6.16856 
416 ,82.4683 ,1.86854 ,-0.65605 ,-6.43719 
417 ,82.6605 ,1.87051 ,-0.64236 ,-6.30288 
418 ,82.8687 ,1.87261 ,-0.66974 ,-6.57150 
419 ,83.0768 ,1.87465 ,-0.65947 ,-6.47077 
420 ,83.2688 ,1.87653 ,-0.68343 ,-6.70582 
421 ,83.4609 ,1.87848 ,-0.68343 ,-6.70582 
422 ,83.6530 ,1.88044 ,-0.69712 ,-6.84013 
423 ,83.8771 ,1.88254 ,-0.70739 ,-6.94086 
424 ,84.0852 ,1.88474 ,-0.71765 ,-7.04160 
425 ,84.2772 ,1.88673 ,-0.71423 ,-7.00802 
426 ,84.4853 ,1.88882 ,-0.73476 ,-7.20949 
427 ,84.6929 ,1.89080 ,-0.74161 ,-7.27665 
428 ,84.8854 ,1.89275 ,-0.74845 ,-7.34380 
429 ,85.0774 ,1.89478 ,-0.77241 ,-7.57885 
430 ,85.2696 ,1.89659 ,-0.78267 ,-7.67959 
431 ,85.4775 ,1.89873 ,-0.77241 ,-7.57885 
432 ,85.6858 ,1.90067 ,-0.80663 ,-7.91464 
433 ,85.8777 ,1.90281 ,-0.79294 ,-7.78032 
434 ,86.0859 ,1.90476 ,-0.79978 ,-7.84748 
435 ,86.2777 ,1.90669 ,-0.79978 ,-7.84748 
436 ,86.4860 ,1.90874 ,-0.82032 ,-8.04895 
437 ,86.6940 ,1.91080 ,-0.81689 ,-8.01537 
438 ,86.8699 ,1.91266 ,-0.83743 ,-8.21684 
439 ,87.0623 ,1.91451 ,-0.84085 ,-8.25042 
440 ,87.2705 ,1.91651 ,-0.86481 ,-8.48547 
441 ,87.4785 ,1.91874 ,-0.85796 ,-8.41831 
442 ,87.6866 ,1.92068 ,-0.87849 ,-8.61978 
443 ,87.8946 ,1.92279 ,-0.89560 ,-8.78767 
444 ,88.0868 ,1.92480 ,-0.90587 ,-8.88841 
445 ,88.3110 ,1.92686 ,-0.90929 ,-8.92198 
446 ,88.5189 ,1.92903 ,-0.91614 ,-8.98914 
447 ,88.7111 ,1.93098 ,-0.92298 ,-9.05630 
448 ,88.9191 ,1.93298 ,-0.92983 ,-9.12345 
449 ,89.0952 ,1.93492 ,-0.95378 ,-9.35850 
450 ,89.2872 ,1.93670 ,-0.95036 ,-9.32492 
451 ,89.4795 ,1.93875 ,-0.94009 ,-9.22419 
452 ,89.6874 ,1.94075 ,-0.97089 ,-9.52639 
453 ,89.8796 ,1.94267 ,-0.96747 ,-9.49282 
454 ,90.0872 ,1.94473 ,-0.99143 ,-9.72786 
455 ,90.2798 ,1.94668 ,-0.98458 ,-9.66071 
456 ,90.4877 ,1.94874 ,-1.01196 ,-9.92933 
457 ,90.6959 ,1.95082 ,-1.01880 ,-9.99649 
458 ,90.8877 ,1.95273 ,-1.01196 ,-9.92933 
459 ,91.0958 ,1.95479 ,-1.02907 ,-10.09723 
460 ,91.2876 ,1.95671 ,-1.03934 ,-10.19796 
461 ,91.4638 ,1.95862 ,-1.03249 ,-10.13080 
462 ,91.6721 ,1.96050 ,-1.07356 ,-10.53374 
