Data stamp = , 02-05-2022 10:17:42 022

Calibration Values: 
Slope = , 26.54 , g/V 
Offset Voltage at no contact = , -0.501760 , V 

No , Time , Stage Position ,   Mass , Force 
   ,  (s) ,      (mm)      ,   (g)  , (mN)  

1 ,0.0000 ,0.99942 ,5.33958 ,52.39199 
2 ,0.2316 ,0.99952 ,5.33958 ,52.39199 
3 ,0.6002 ,1.00066 ,5.34643 ,52.45915 
4 ,0.8242 ,1.00254 ,5.36354 ,52.62704 
5 ,1.0484 ,1.00458 ,5.34643 ,52.45915 
6 ,1.2563 ,1.00669 ,5.34301 ,52.42557 
7 ,1.4644 ,1.00877 ,5.34643 ,52.45915 
8 ,1.6883 ,1.01090 ,5.29510 ,51.95548 
9 ,1.8806 ,1.01303 ,5.28483 ,51.85474 
10 ,2.0885 ,1.01506 ,5.27456 ,51.75401 
11 ,2.2808 ,1.01697 ,5.25403 ,51.55254 
12 ,2.4884 ,1.01908 ,5.25745 ,51.58611 
13 ,2.6809 ,1.02099 ,5.22665 ,51.28391 
14 ,2.8890 ,1.02303 ,5.19927 ,51.01528 
15 ,3.0810 ,1.02504 ,5.16848 ,50.71308 
16 ,3.2892 ,1.02704 ,5.15821 ,50.61234 
17 ,3.4970 ,1.02912 ,5.13083 ,50.34372 
18 ,3.6895 ,1.03108 ,5.11714 ,50.20940 
19 ,3.9136 ,1.03320 ,5.10345 ,50.07509 
20 ,4.1057 ,1.03523 ,5.08292 ,49.87362 
21 ,4.3142 ,1.03727 ,5.04185 ,49.47068 
22 ,4.5057 ,1.03924 ,5.05212 ,49.57142 
23 ,4.6973 ,1.04115 ,5.01448 ,49.20205 
24 ,4.8900 ,1.04309 ,5.00421 ,49.10132 
25 ,5.0816 ,1.04504 ,4.97341 ,48.79911 
26 ,5.2741 ,1.04690 ,4.94603 ,48.53049 
27 ,5.4822 ,1.04894 ,4.94261 ,48.49691 
28 ,5.6902 ,1.05107 ,4.92208 ,48.29544 
29 ,5.8981 ,1.05310 ,4.90155 ,48.09397 
30 ,6.1061 ,1.05521 ,4.89470 ,48.02681 
31 ,6.2984 ,1.05712 ,4.85706 ,47.65745 
32 ,6.5066 ,1.05922 ,4.85021 ,47.59030 
33 ,6.6985 ,1.06113 ,4.82284 ,47.32167 
34 ,6.9064 ,1.06323 ,4.81941 ,47.28809 
35 ,7.0984 ,1.06511 ,4.77835 ,46.88515 
36 ,7.2907 ,1.06703 ,4.77150 ,46.81800 
37 ,7.4830 ,1.06900 ,4.75439 ,46.65010 
38 ,7.7068 ,1.07116 ,4.74755 ,46.58295 
39 ,7.8988 ,1.07315 ,4.70990 ,46.21359 
40 ,8.1068 ,1.07521 ,4.70648 ,46.18001 
41 ,8.2992 ,1.07712 ,4.67568 ,45.87780 
42 ,8.5072 ,1.07909 ,4.66884 ,45.81065 
43 ,8.6993 ,1.08116 ,4.63462 ,45.47486 
44 ,8.8916 ,1.08308 ,4.62093 ,45.34055 
45 ,9.0830 ,1.08512 ,4.60724 ,45.20624 
46 ,9.2756 ,1.08688 ,4.58328 ,44.97119 
47 ,9.4675 ,1.08885 ,4.59697 ,45.10550 
48 ,9.6758 ,1.09088 ,4.54564 ,44.60183 
49 ,9.8679 ,1.09279 ,4.54906 ,44.63541 
50 ,10.0600 ,1.09471 ,4.51826 ,44.33320 
51 ,10.2841 ,1.09693 ,4.51142 ,44.26604 
52 ,10.4922 ,1.09907 ,4.49431 ,44.09815 
53 ,10.6683 ,1.10094 ,4.46009 ,43.76237 
54 ,10.8603 ,1.10273 ,4.44982 ,43.66163 
55 ,11.0520 ,1.10465 ,4.42586 ,43.42659 
56 ,11.2441 ,1.10653 ,4.42586 ,43.42659 
57 ,11.4363 ,1.10853 ,4.39507 ,43.12438 
58 ,11.6444 ,1.11058 ,4.38138 ,42.99007 
59 ,11.8368 ,1.11251 ,4.35400 ,42.72144 
60 ,12.0288 ,1.11436 ,4.36084 ,42.78860 
61 ,12.2368 ,1.11650 ,4.31636 ,42.35208 
62 ,12.4129 ,1.11834 ,4.32320 ,42.41924 
63 ,12.6051 ,1.12018 ,4.29924 ,42.18419 
64 ,12.7970 ,1.12207 ,4.27529 ,41.94914 
65 ,13.0212 ,1.12420 ,4.27187 ,41.91556 
66 ,13.2292 ,1.12638 ,4.24107 ,41.61336 
67 ,13.4209 ,1.12834 ,4.21711 ,41.37831 
68 ,13.6294 ,1.13033 ,4.21369 ,41.34473 
69 ,13.8374 ,1.13248 ,4.16578 ,40.87464 
70 ,14.0456 ,1.13461 ,4.17605 ,40.97537 
71 ,14.2376 ,1.13651 ,4.14867 ,40.70674 
72 ,14.4298 ,1.13844 ,4.14525 ,40.67317 
73 ,14.6535 ,1.14063 ,4.11445 ,40.37096 
74 ,14.8456 ,1.14271 ,4.08707 ,40.10233 
75 ,15.0377 ,1.14450 ,4.08707 ,40.10233 
76 ,15.2301 ,1.14643 ,4.06996 ,39.93444 
77 ,15.4379 ,1.14848 ,4.03574 ,39.59866 
78 ,15.6299 ,1.15039 ,4.03916 ,39.63224 
79 ,15.8223 ,1.15234 ,4.00836 ,39.33003 
80 ,16.0143 ,1.15427 ,4.00494 ,39.29646 
81 ,16.2225 ,1.15625 ,3.98783 ,39.12856 
82 ,16.4304 ,1.15841 ,3.96045 ,38.85994 
83 ,16.6225 ,1.16035 ,3.94334 ,38.69205 
84 ,16.8147 ,1.16228 ,3.93650 ,38.62489 
85 ,17.0227 ,1.16434 ,3.89543 ,38.22195 
86 ,17.2309 ,1.16631 ,3.90227 ,38.28911 
87 ,17.4389 ,1.16849 ,3.86805 ,37.95332 
88 ,17.6310 ,1.17042 ,3.86121 ,37.88617 
89 ,17.8227 ,1.17231 ,3.83383 ,37.61754 
90 ,18.0148 ,1.17421 ,3.83725 ,37.65112 
91 ,18.1908 ,1.17615 ,3.81672 ,37.44965 
92 ,18.3830 ,1.17789 ,3.78934 ,37.18102 
93 ,18.6075 ,1.18008 ,3.76881 ,36.97955 
94 ,18.7994 ,1.18206 ,3.73801 ,36.67735 
95 ,19.0075 ,1.18412 ,3.74828 ,36.77808 
96 ,19.2158 ,1.18628 ,3.72774 ,36.57661 
97 ,19.4077 ,1.18819 ,3.70379 ,36.34157 
98 ,19.5998 ,1.19008 ,3.67983 ,36.10652 
99 ,19.8079 ,1.19216 ,3.67299 ,36.03936 
100 ,19.9995 ,1.19409 ,3.65588 ,35.87147 
101 ,20.1920 ,1.19600 ,3.64219 ,35.73716 
102 ,20.4001 ,1.19811 ,3.61823 ,35.50211 
103 ,20.5921 ,1.20003 ,3.61481 ,35.46853 
104 ,20.7842 ,1.20196 ,3.57032 ,35.03201 
105 ,20.9924 ,1.20404 ,3.57032 ,35.03201 
106 ,21.2004 ,1.20610 ,3.53952 ,34.72981 
107 ,21.4084 ,1.20821 ,3.53952 ,34.72981 
108 ,21.6003 ,1.21014 ,3.51215 ,34.46118 
109 ,21.8085 ,1.21219 ,3.50530 ,34.39402 
110 ,22.0005 ,1.21410 ,3.48135 ,34.15898 
111 ,22.2089 ,1.21621 ,3.48135 ,34.15898 
112 ,22.4167 ,1.21823 ,3.45397 ,33.89035 
113 ,22.6089 ,1.22018 ,3.44370 ,33.78961 
114 ,22.8169 ,1.22232 ,3.41633 ,33.52099 
115 ,23.0091 ,1.22420 ,3.41290 ,33.48741 
116 ,23.2168 ,1.22627 ,3.38895 ,33.25236 
117 ,23.4413 ,1.22841 ,3.35130 ,32.88300 
118 ,23.6493 ,1.23060 ,3.34788 ,32.84942 
119 ,23.8733 ,1.23270 ,3.32735 ,32.64795 
120 ,24.0655 ,1.23474 ,3.30339 ,32.41290 
121 ,24.2892 ,1.23682 ,3.31024 ,32.48006 
122 ,24.4818 ,1.23891 ,3.26917 ,32.07712 
123 ,24.6895 ,1.24099 ,3.28286 ,32.21143 
124 ,24.8819 ,1.24293 ,3.23495 ,31.74134 
125 ,25.0899 ,1.24496 ,3.22468 ,31.64060 
126 ,25.2821 ,1.24694 ,3.21100 ,31.50629 
127 ,25.4739 ,1.24879 ,3.19388 ,31.33840 
128 ,25.6660 ,1.25071 ,3.18020 ,31.20409 
129 ,25.8580 ,1.25264 ,3.15624 ,30.96904 
130 ,26.0821 ,1.25477 ,3.15282 ,30.93546 
131 ,26.2743 ,1.25685 ,3.14255 ,30.83472 
132 ,26.4820 ,1.25892 ,3.11175 ,30.53252 
133 ,26.6745 ,1.26084 ,3.11860 ,30.59968 
134 ,26.8827 ,1.26287 ,3.07411 ,30.16316 
135 ,27.0908 ,1.26500 ,3.07753 ,30.19674 
136 ,27.2826 ,1.26692 ,3.04673 ,29.89453 
137 ,27.4749 ,1.26883 ,3.03989 ,29.82737 
138 ,27.6668 ,1.27070 ,3.02278 ,29.65948 
139 ,27.8591 ,1.27268 ,2.99198 ,29.35728 
140 ,28.0512 ,1.27462 ,2.99882 ,29.42444 
141 ,28.2591 ,1.27657 ,2.96802 ,29.12223 
142 ,28.4509 ,1.27857 ,2.96118 ,29.05507 
143 ,28.6429 ,1.28052 ,2.93380 ,28.78645 
144 ,28.8510 ,1.28255 ,2.92696 ,28.71929 
145 ,29.0432 ,1.28450 ,2.89958 ,28.45066 
146 ,29.2672 ,1.28676 ,2.89616 ,28.41709 
147 ,29.4593 ,1.28865 ,2.87220 ,28.18204 
148 ,29.6514 ,1.29059 ,2.86193 ,28.08130 
149 ,29.8434 ,1.29247 ,2.83798 ,27.84625 
150 ,30.0356 ,1.29438 ,2.83456 ,27.81268 
151 ,30.2116 ,1.29631 ,2.81745 ,27.64479 
152 ,30.4039 ,1.29811 ,2.81060 ,27.57763 
153 ,30.5958 ,1.30004 ,2.79349 ,27.40974 
154 ,30.7719 ,1.30190 ,2.77296 ,27.20827 
155 ,30.9639 ,1.30370 ,2.74558 ,26.93964 
156 ,31.1399 ,1.30556 ,2.75243 ,27.00680 
157 ,31.3321 ,1.30738 ,2.73874 ,26.87248 
158 ,31.5081 ,1.30926 ,2.71136 ,26.60386 
159 ,31.6843 ,1.31100 ,2.68740 ,26.36881 
160 ,31.8763 ,1.31282 ,2.69425 ,26.43597 
161 ,32.0843 ,1.31483 ,2.67029 ,26.20092 
162 ,32.2765 ,1.31681 ,2.66003 ,26.10018 
163 ,32.4686 ,1.31871 ,2.63949 ,25.89871 
164 ,32.6606 ,1.32066 ,2.62238 ,25.73082 
165 ,32.9010 ,1.32305 ,2.60185 ,25.52935 
166 ,33.1092 ,1.32514 ,2.60185 ,25.52935 
167 ,33.3014 ,1.32706 ,2.57105 ,25.22715 
168 ,33.4930 ,1.32897 ,2.57789 ,25.29430 
169 ,33.6851 ,1.33095 ,2.52656 ,24.79063 
170 ,33.8610 ,1.33283 ,2.54367 ,24.95852 
171 ,34.0697 ,1.33474 ,2.52314 ,24.75705 
172 ,34.3097 ,1.33707 ,2.50261 ,24.55558 
173 ,34.5174 ,1.33920 ,2.49234 ,24.45485 
174 ,34.7100 ,1.34114 ,2.48207 ,24.35411 
175 ,34.9019 ,1.34311 ,2.45470 ,24.08549 
176 ,35.1099 ,1.34513 ,2.45127 ,24.05191 
177 ,35.3021 ,1.34706 ,2.42048 ,23.74970 
178 ,35.4940 ,1.34907 ,2.41363 ,23.68255 
179 ,35.7024 ,1.35095 ,2.38625 ,23.41392 
180 ,35.9104 ,1.35314 ,2.38283 ,23.38034 
181 ,36.1024 ,1.35508 ,2.35888 ,23.14529 
182 ,36.2944 ,1.35698 ,2.36914 ,23.24603 
183 ,36.5023 ,1.35908 ,2.32123 ,22.77593 
184 ,36.6947 ,1.36099 ,2.32808 ,22.84309 
185 ,36.8867 ,1.36287 ,2.31097 ,22.67520 
186 ,37.0948 ,1.36497 ,2.29728 ,22.54088 
187 ,37.2870 ,1.36695 ,2.26990 ,22.27226 
188 ,37.4626 ,1.36879 ,2.27674 ,22.33941 
189 ,37.6551 ,1.37063 ,2.26306 ,22.20510 
190 ,37.8472 ,1.37254 ,2.22541 ,21.83574 
191 ,38.0553 ,1.37458 ,2.23226 ,21.90290 
192 ,38.2791 ,1.37681 ,2.20146 ,21.60069 
193 ,38.4873 ,1.37894 ,2.18777 ,21.46638 
194 ,38.6794 ,1.38086 ,2.17408 ,21.33206 
195 ,38.8874 ,1.38291 ,2.15355 ,21.13059 
196 ,39.0797 ,1.38484 ,2.15012 ,21.09702 
197 ,39.2877 ,1.38694 ,2.11932 ,20.79481 
198 ,39.4799 ,1.38882 ,2.11590 ,20.76123 
199 ,39.6554 ,1.39071 ,2.10564 ,20.66050 
200 ,39.8479 ,1.39248 ,2.08852 ,20.49261 
201 ,40.0400 ,1.39444 ,2.06799 ,20.29114 
202 ,40.2321 ,1.39632 ,2.07826 ,20.39187 
203 ,40.4401 ,1.39841 ,2.05430 ,20.15682 
204 ,40.6323 ,1.40036 ,2.03719 ,19.98893 
205 ,40.8402 ,1.40242 ,1.99955 ,19.61957 
206 ,41.0485 ,1.40447 ,1.99270 ,19.55241 
207 ,41.2406 ,1.40641 ,1.98586 ,19.48526 
208 ,41.4487 ,1.40851 ,1.96190 ,19.25021 
209 ,41.6407 ,1.41040 ,1.96875 ,19.31737 
210 ,41.8324 ,1.41247 ,1.94137 ,19.04874 
211 ,42.0566 ,1.41450 ,1.92768 ,18.91443 
212 ,42.2649 ,1.41669 ,1.91057 ,18.74654 
213 ,42.4890 ,1.41874 ,1.90715 ,18.71296 
214 ,42.6970 ,1.42097 ,1.89688 ,18.61222 
215 ,42.8888 ,1.42290 ,1.86266 ,18.27644 
216 ,43.0812 ,1.42488 ,1.85582 ,18.20928 
217 ,43.2894 ,1.42693 ,1.83528 ,18.00781 
218 ,43.4973 ,1.42900 ,1.82502 ,17.90708 
219 ,43.6893 ,1.43093 ,1.81133 ,17.77276 
220 ,43.8816 ,1.43285 ,1.81475 ,17.80634 
221 ,44.0732 ,1.43485 ,1.77711 ,17.43698 
222 ,44.2655 ,1.43667 ,1.76000 ,17.26909 
223 ,44.4578 ,1.43855 ,1.76684 ,17.33625 
224 ,44.6500 ,1.44050 ,1.75315 ,17.20193 
225 ,44.8578 ,1.44260 ,1.73604 ,17.03404 
226 ,45.0662 ,1.44463 ,1.71551 ,16.83257 
227 ,45.2902 ,1.44678 ,1.70524 ,16.73184 
228 ,45.4982 ,1.44900 ,1.69840 ,16.66468 
229 ,45.6902 ,1.45095 ,1.65391 ,16.22816 
230 ,45.8983 ,1.45296 ,1.66760 ,16.36248 
231 ,46.0906 ,1.45492 ,1.62995 ,15.99311 
232 ,46.2985 ,1.45693 ,1.63680 ,16.06027 
233 ,46.4907 ,1.45888 ,1.60600 ,15.75807 
234 ,46.6827 ,1.46084 ,1.60258 ,15.72449 
235 ,46.8749 ,1.46277 ,1.59916 ,15.69091 
236 ,47.0825 ,1.46483 ,1.56836 ,15.38871 
237 ,47.2907 ,1.46691 ,1.55809 ,15.28797 
238 ,47.4991 ,1.46897 ,1.55124 ,15.22081 
239 ,47.7072 ,1.47110 ,1.52729 ,14.98577 
240 ,47.9152 ,1.47309 ,1.52387 ,14.95219 
241 ,48.1074 ,1.47508 ,1.48965 ,14.61640 
242 ,48.3152 ,1.47716 ,1.49307 ,14.64998 
243 ,48.5072 ,1.47907 ,1.46911 ,14.41493 
244 ,48.6995 ,1.48098 ,1.46911 ,14.41493 
245 ,48.8915 ,1.48295 ,1.45200 ,14.24704 
246 ,49.0997 ,1.48497 ,1.43831 ,14.11273 
247 ,49.3079 ,1.48695 ,1.42120 ,13.94484 
248 ,49.5156 ,1.48913 ,1.41778 ,13.91126 
249 ,49.7080 ,1.49111 ,1.38014 ,13.54190 
250 ,49.9162 ,1.49311 ,1.38356 ,13.57548 
251 ,50.1079 ,1.49510 ,1.35960 ,13.34043 
252 ,50.3002 ,1.49697 ,1.35960 ,13.34043 
253 ,50.4923 ,1.49889 ,1.33565 ,13.10538 
254 ,50.6844 ,1.50079 ,1.32538 ,13.00465 
255 ,50.8762 ,1.50268 ,1.31854 ,12.93749 
256 ,51.1006 ,1.50482 ,1.29458 ,12.70244 
257 ,51.3091 ,1.50710 ,1.27405 ,12.50097 
258 ,51.5167 ,1.50910 ,1.28089 ,12.56813 
259 ,51.6924 ,1.51102 ,1.25694 ,12.33308 
260 ,51.9007 ,1.51288 ,1.25352 ,12.29950 
261 ,52.1091 ,1.51506 ,1.22956 ,12.06445 
262 ,52.3012 ,1.51697 ,1.24325 ,12.19877 
263 ,52.4930 ,1.51892 ,1.20218 ,11.79583 
264 ,52.7012 ,1.52097 ,1.21245 ,11.89656 
265 ,52.8931 ,1.52296 ,1.17823 ,11.56078 
266 ,53.1012 ,1.52495 ,1.18165 ,11.59436 
267 ,53.2934 ,1.52694 ,1.15085 ,11.29215 
268 ,53.5014 ,1.52902 ,1.15427 ,11.32573 
269 ,53.6936 ,1.53090 ,1.12690 ,11.05710 
270 ,53.8854 ,1.53281 ,1.12347 ,11.02353 
271 ,54.0939 ,1.53486 ,1.09267 ,10.72132 
272 ,54.3179 ,1.53711 ,1.09610 ,10.75490 
273 ,54.5101 ,1.53906 ,1.06872 ,10.48627 
274 ,54.7020 ,1.54100 ,1.07556 ,10.55343 
275 ,54.9101 ,1.54306 ,1.04134 ,10.21765 
276 ,55.1021 ,1.54498 ,1.05161 ,10.31838 
277 ,55.3103 ,1.54706 ,1.02423 ,10.04976 
278 ,55.5183 ,1.54912 ,1.02081 ,10.01618 
279 ,55.7105 ,1.55103 ,0.99343 ,9.74755 
280 ,55.9186 ,1.55311 ,0.99001 ,9.71397 
281 ,56.1585 ,1.55534 ,0.97974 ,9.61324 
282 ,56.3669 ,1.55754 ,0.95237 ,9.34461 
283 ,56.5908 ,1.55973 ,0.94552 ,9.27745 
284 ,56.7988 ,1.56196 ,0.94210 ,9.24388 
285 ,56.9910 ,1.56387 ,0.91472 ,8.97525 
286 ,57.1827 ,1.56581 ,0.92157 ,9.04241 
287 ,57.3751 ,1.56770 ,0.88734 ,8.70662 
288 ,57.5671 ,1.56961 ,0.89077 ,8.74020 
289 ,57.7593 ,1.57152 ,0.87366 ,8.57231 
290 ,57.9513 ,1.57346 ,0.84628 ,8.30368 
291 ,58.1435 ,1.57540 ,0.85997 ,8.43800 
292 ,58.3356 ,1.57727 ,0.81890 ,8.03506 
293 ,58.5276 ,1.57925 ,0.81548 ,8.00148 
294 ,58.7358 ,1.58127 ,0.80521 ,7.90074 
295 ,58.9278 ,1.58323 ,0.80179 ,7.86717 
296 ,59.1354 ,1.58527 ,0.78126 ,7.66570 
297 ,59.5678 ,1.58964 ,0.76072 ,7.46423 
298 ,59.7601 ,1.59155 ,0.74019 ,7.26276 
299 ,59.9522 ,1.59349 ,0.72308 ,7.09486 
300 ,60.1442 ,1.59541 ,0.72650 ,7.12844 
301 ,60.3522 ,1.59745 ,0.70597 ,6.92697 
302 ,60.5443 ,1.59935 ,0.70597 ,6.92697 
303 ,60.7360 ,1.60127 ,0.68201 ,6.69193 
304 ,60.9286 ,1.60322 ,0.66833 ,6.55761 
305 ,61.1206 ,1.60518 ,0.65464 ,6.42330 
306 ,61.3285 ,1.60725 ,0.63753 ,6.25541 
307 ,61.5364 ,1.60929 ,0.63753 ,6.25541 
308 ,61.7287 ,1.61127 ,0.62384 ,6.12109 
309 ,61.9367 ,1.61328 ,0.60673 ,5.95320 
310 ,62.1288 ,1.61518 ,0.59646 ,5.85247 
311 ,62.3211 ,1.61716 ,0.59304 ,5.81889 
312 ,62.5130 ,1.61905 ,0.56566 ,5.55026 
313 ,62.7048 ,1.62104 ,0.57935 ,5.68458 
314 ,62.8969 ,1.62287 ,0.54513 ,5.34879 
315 ,63.0893 ,1.62487 ,0.54513 ,5.34879 
316 ,63.2812 ,1.62673 ,0.53486 ,5.24806 
317 ,63.4895 ,1.62888 ,0.52459 ,5.14732 
318 ,63.6652 ,1.63070 ,0.50748 ,4.97943 
319 ,63.8575 ,1.63246 ,0.49722 ,4.87870 
320 ,64.0657 ,1.63453 ,0.49380 ,4.84512 
321 ,64.2577 ,1.63650 ,0.46642 ,4.57649 
322 ,64.4497 ,1.63841 ,0.47668 ,4.67723 
323 ,64.6578 ,1.64049 ,0.43904 ,4.30787 
324 ,64.8497 ,1.64242 ,0.43904 ,4.30787 
325 ,65.0421 ,1.64439 ,0.43220 ,4.24071 
326 ,65.2663 ,1.64648 ,0.42535 ,4.17355 
327 ,65.4744 ,1.64870 ,0.39455 ,3.87135 
328 ,65.6664 ,1.65058 ,0.39797 ,3.90493 
329 ,65.8744 ,1.65266 ,0.37744 ,3.70346 
330 ,66.0665 ,1.65456 ,0.37402 ,3.66988 
331 ,66.2907 ,1.65683 ,0.35691 ,3.50199 
332 ,66.4827 ,1.65876 ,0.35349 ,3.46841 
333 ,66.6909 ,1.66083 ,0.33638 ,3.30052 
334 ,66.8829 ,1.66278 ,0.32611 ,3.19978 
335 ,67.0746 ,1.66469 ,0.31584 ,3.09905 
336 ,67.2669 ,1.66653 ,0.31242 ,3.06547 
337 ,67.4591 ,1.66851 ,0.29189 ,2.86400 
338 ,67.6669 ,1.67059 ,0.29189 ,2.86400 
339 ,67.8592 ,1.67250 ,0.27820 ,2.72969 
340 ,68.0514 ,1.67444 ,0.26451 ,2.59537 
341 ,68.2914 ,1.67660 ,0.24398 ,2.39390 
342 ,68.4836 ,1.67871 ,0.25082 ,2.46106 
343 ,68.6915 ,1.68081 ,0.22002 ,2.15885 
344 ,68.8836 ,1.68273 ,0.21318 ,2.09170 
345 ,69.0756 ,1.68466 ,0.18580 ,1.82307 
346 ,69.2838 ,1.68671 ,0.19607 ,1.92381 
347 ,69.4761 ,1.68865 ,0.17553 ,1.72234 
348 ,69.6840 ,1.69074 ,0.18238 ,1.78949 
349 ,69.8761 ,1.69265 ,0.15842 ,1.55445 
350 ,70.0843 ,1.69477 ,0.15158 ,1.48729 
351 ,70.2761 ,1.69670 ,0.12420 ,1.21866 
352 ,70.4845 ,1.69871 ,0.12762 ,1.25224 
353 ,70.6926 ,1.70081 ,0.12078 ,1.18508 
354 ,70.8842 ,1.70273 ,0.10367 ,1.01719 
355 ,71.0767 ,1.70467 ,0.07971 ,0.78214 
356 ,71.2848 ,1.70673 ,0.09340 ,0.91646 
357 ,71.4606 ,1.70863 ,0.06945 ,0.68141 
358 ,71.6690 ,1.71060 ,0.06945 ,0.68141 
359 ,71.8610 ,1.71254 ,0.05234 ,0.51352 
360 ,72.0531 ,1.71445 ,0.04207 ,0.41278 
361 ,72.2771 ,1.71653 ,0.03180 ,0.31205 
362 ,72.4531 ,1.71855 ,0.01811 ,0.17773 
363 ,72.6613 ,1.72053 ,-0.00242 ,-0.02373 
364 ,72.8534 ,1.72248 ,0.00443 ,0.04342 
365 ,73.0455 ,1.72433 ,-0.00242 ,-0.02373 
366 ,73.2696 ,1.72652 ,-0.01953 ,-0.19163 
367 ,73.4617 ,1.72850 ,-0.03322 ,-0.32594 
368 ,73.6698 ,1.73057 ,-0.02980 ,-0.29236 
369 ,73.8777 ,1.73261 ,-0.06060 ,-0.59457 
370 ,74.0699 ,1.73461 ,-0.07086 ,-0.69530 
371 ,74.2619 ,1.73650 ,-0.08455 ,-0.82961 
372 ,74.4540 ,1.73846 ,-0.09140 ,-0.89677 
373 ,74.6457 ,1.74031 ,-0.08113 ,-0.79604 
374 ,74.8382 ,1.74227 ,-0.12562 ,-1.23255 
375 ,75.0462 ,1.74434 ,-0.11193 ,-1.09824 
376 ,75.2383 ,1.74624 ,-0.13246 ,-1.29971 
377 ,75.4465 ,1.74838 ,-0.13931 ,-1.36687 
378 ,75.6545 ,1.75044 ,-0.15984 ,-1.56834 
379 ,75.8465 ,1.75236 ,-0.15642 ,-1.53476 
380 ,76.0547 ,1.75443 ,-0.18037 ,-1.76981 
381 ,76.2628 ,1.75649 ,-0.17353 ,-1.70265 
382 ,76.4709 ,1.75857 ,-0.18379 ,-1.80338 
383 ,76.6630 ,1.76052 ,-0.21117 ,-2.07201 
384 ,76.8547 ,1.76255 ,-0.20433 ,-2.00485 
385 ,77.0631 ,1.76450 ,-0.22486 ,-2.20632 
386 ,77.2871 ,1.76659 ,-0.23513 ,-2.30706 
387 ,77.4953 ,1.76882 ,-0.24197 ,-2.37422 
388 ,77.7034 ,1.77081 ,-0.24539 ,-2.40779 
389 ,77.9111 ,1.77299 ,-0.25908 ,-2.54211 
390 ,78.1191 ,1.77500 ,-0.28646 ,-2.81073 
391 ,78.3113 ,1.77695 ,-0.28646 ,-2.81073 
392 ,78.5037 ,1.77895 ,-0.30699 ,-3.01220 
393 ,78.7116 ,1.78097 ,-0.29673 ,-2.91147 
394 ,78.9199 ,1.78296 ,-0.31041 ,-3.04578 
395 ,79.0955 ,1.78497 ,-0.31726 ,-3.11294 
396 ,79.2880 ,1.78676 ,-0.31726 ,-3.11294 
397 ,79.4800 ,1.78870 ,-0.35490 ,-3.48230 
398 ,79.6878 ,1.79067 ,-0.33437 ,-3.28083 
399 ,79.8800 ,1.79263 ,-0.37201 ,-3.65019 
400 ,80.0884 ,1.79463 ,-0.35832 ,-3.51588 
401 ,80.3125 ,1.79685 ,-0.39255 ,-3.85166 
402 ,80.5206 ,1.79906 ,-0.40966 ,-4.01955 
403 ,80.7286 ,1.80116 ,-0.39939 ,-3.91882 
404 ,80.9206 ,1.80304 ,-0.42677 ,-4.18744 
405 ,81.1129 ,1.80498 ,-0.41992 ,-4.12029 
406 ,81.3045 ,1.80687 ,-0.42677 ,-4.18744 
407 ,81.4967 ,1.80883 ,-0.44730 ,-4.38891 
408 ,81.7049 ,1.81095 ,-0.45072 ,-4.42249 
409 ,81.8970 ,1.81284 ,-0.46441 ,-4.55681 
410 ,82.1052 ,1.81493 ,-0.47810 ,-4.69112 
411 ,82.2971 ,1.81683 ,-0.47810 ,-4.69112 
412 ,82.4893 ,1.81875 ,-0.48152 ,-4.72470 
413 ,82.6972 ,1.82079 ,-0.50548 ,-4.95975 
414 ,82.8893 ,1.82273 ,-0.48837 ,-4.79185 
415 ,83.0816 ,1.82469 ,-0.52601 ,-5.16121 
416 ,83.3216 ,1.82703 ,-0.53628 ,-5.26195 
417 ,83.5292 ,1.82910 ,-0.51574 ,-5.06048 
418 ,83.7376 ,1.83114 ,-0.54654 ,-5.36268 
419 ,83.9458 ,1.83328 ,-0.55339 ,-5.42984 
420 ,84.1216 ,1.83517 ,-0.57392 ,-5.63131 
421 ,84.3145 ,1.83702 ,-0.57734 ,-5.66489 
422 ,84.5059 ,1.83891 ,-0.58761 ,-5.76562 
423 ,84.7144 ,1.84101 ,-0.59103 ,-5.79920 
424 ,84.9224 ,1.84301 ,-0.60472 ,-5.93352 
425 ,85.1144 ,1.84499 ,-0.61156 ,-6.00067 
426 ,85.3064 ,1.84691 ,-0.61841 ,-6.06783 
427 ,85.5146 ,1.84897 ,-0.63552 ,-6.23572 
428 ,85.7061 ,1.85086 ,-0.62868 ,-6.16856 
429 ,85.8983 ,1.85282 ,-0.65947 ,-6.47077 
430 ,86.0908 ,1.85471 ,-0.65605 ,-6.43719 
431 ,86.3148 ,1.85712 ,-0.65263 ,-6.40361 
432 ,86.5070 ,1.85892 ,-0.65947 ,-6.47077 
433 ,86.7150 ,1.86096 ,-0.68001 ,-6.67224 
434 ,86.9391 ,1.86314 ,-0.70396 ,-6.90729 
435 ,87.1469 ,1.86531 ,-0.70739 ,-6.94086 
436 ,87.3393 ,1.86720 ,-0.71765 ,-7.04160 
437 ,87.5632 ,1.86943 ,-0.72107 ,-7.07518 
438 ,87.7554 ,1.87140 ,-0.73134 ,-7.17591 
439 ,87.9634 ,1.87343 ,-0.74503 ,-7.31023 
440 ,88.1557 ,1.87538 ,-0.75530 ,-7.41096 
441 ,88.3475 ,1.87733 ,-0.75872 ,-7.44454 
442 ,88.5398 ,1.87921 ,-0.77241 ,-7.57885 
443 ,88.7636 ,1.88143 ,-0.77583 ,-7.61243 
444 ,88.9555 ,1.88337 ,-0.79294 ,-7.78032 
445 ,89.1799 ,1.88548 ,-0.79636 ,-7.81390 
446 ,89.3720 ,1.88758 ,-0.80321 ,-7.88106 
447 ,89.5640 ,1.88946 ,-0.82032 ,-8.04895 
448 ,89.7560 ,1.89140 ,-0.83743 ,-8.21684 
449 ,89.9644 ,1.89344 ,-0.83401 ,-8.18326 
450 ,90.1563 ,1.89533 ,-0.84769 ,-8.31758 
451 ,90.3485 ,1.89732 ,-0.84427 ,-8.28400 
452 ,90.5566 ,1.89940 ,-0.85796 ,-8.41831 
453 ,90.7326 ,1.90129 ,-0.86481 ,-8.48547 
454 ,90.9248 ,1.90306 ,-0.86138 ,-8.45189 
455 ,91.1164 ,1.90500 ,-0.87507 ,-8.58620 
456 ,91.3088 ,1.90688 ,-0.88192 ,-8.65336 
457 ,91.5170 ,1.90892 ,-0.90245 ,-8.85483 
458 ,91.7086 ,1.91099 ,-0.91614 ,-8.98914 
459 ,91.9009 ,1.91284 ,-0.91956 ,-9.02272 
460 ,92.1093 ,1.91491 ,-0.92298 ,-9.05630 
461 ,92.3333 ,1.91721 ,-0.92298 ,-9.05630 
462 ,92.5254 ,1.91906 ,-0.92983 ,-9.12345 
463 ,92.7171 ,1.92103 ,-0.94694 ,-9.29135 
