Data stamp = , 02-05-2022 11:04:50 565

Calibration Values: 
Slope = , 26.54 , g/V 
Offset Voltage at no contact = , -0.501760 , V 

No , Time , Stage Position ,   Mass , Force 
   ,  (s) ,      (mm)      ,   (g)  , (mN)  

1 ,0.0000 ,0.99948 ,5.38749 ,52.86209 
2 ,0.2345 ,0.99959 ,5.38407 ,52.82851 
3 ,0.6030 ,1.00069 ,5.37038 ,52.69420 
4 ,0.8271 ,1.00259 ,5.39776 ,52.96282 
5 ,1.0353 ,1.00453 ,5.36696 ,52.66062 
6 ,1.2273 ,1.00646 ,5.38749 ,52.86209 
7 ,1.4515 ,1.00875 ,5.35669 ,52.55988 
8 ,1.6595 ,1.01080 ,5.33274 ,52.32484 
9 ,1.8516 ,1.01274 ,5.33274 ,52.32484 
10 ,2.0596 ,1.01485 ,5.29852 ,51.98905 
11 ,2.2516 ,1.01675 ,5.29167 ,51.92190 
12 ,2.4597 ,1.01873 ,5.25745 ,51.58611 
13 ,2.6514 ,1.02077 ,5.25061 ,51.51896 
14 ,2.8439 ,1.02272 ,5.23007 ,51.31749 
15 ,3.0359 ,1.02459 ,5.20954 ,51.11602 
16 ,3.2279 ,1.02653 ,5.20270 ,51.04886 
17 ,3.4357 ,1.02861 ,5.16163 ,50.64592 
18 ,3.6603 ,1.03084 ,5.14452 ,50.47803 
19 ,3.8683 ,1.03294 ,5.12741 ,50.31014 
20 ,4.0604 ,1.03484 ,5.10003 ,50.04151 
21 ,4.2685 ,1.03695 ,5.09319 ,49.97436 
22 ,4.4605 ,1.03884 ,5.05897 ,49.63857 
23 ,4.6527 ,1.04077 ,5.04870 ,49.53784 
24 ,4.8448 ,1.04269 ,5.03159 ,49.36995 
25 ,5.0525 ,1.04473 ,5.01448 ,49.20205 
26 ,5.2609 ,1.04683 ,4.98368 ,48.89985 
27 ,5.4525 ,1.04878 ,4.97683 ,48.83269 
28 ,5.6450 ,1.05072 ,4.94946 ,48.56407 
29 ,5.8531 ,1.05273 ,4.92550 ,48.32902 
30 ,6.0447 ,1.05470 ,4.92208 ,48.29544 
31 ,6.2373 ,1.05661 ,4.89812 ,48.06039 
32 ,6.4454 ,1.05868 ,4.87759 ,47.85892 
33 ,6.6371 ,1.06056 ,4.86048 ,47.69103 
34 ,6.8295 ,1.06253 ,4.83652 ,47.45598 
35 ,7.0373 ,1.06453 ,4.82284 ,47.32167 
36 ,7.2297 ,1.06655 ,4.79888 ,47.08662 
37 ,7.4374 ,1.06859 ,4.78519 ,46.95231 
38 ,7.6614 ,1.07063 ,4.76466 ,46.75084 
39 ,7.8540 ,1.07278 ,4.74413 ,46.54937 
40 ,8.0616 ,1.07480 ,4.73044 ,46.41506 
41 ,8.2542 ,1.07674 ,4.71333 ,46.24716 
42 ,8.4460 ,1.07868 ,4.69964 ,46.11285 
43 ,8.6383 ,1.08056 ,4.67226 ,45.84422 
44 ,8.8459 ,1.08266 ,4.67568 ,45.87780 
45 ,9.0384 ,1.08458 ,4.63462 ,45.47486 
46 ,9.2461 ,1.08670 ,4.62435 ,45.37413 
47 ,9.4543 ,1.08874 ,4.60382 ,45.17266 
48 ,9.6461 ,1.09066 ,4.60382 ,45.17266 
49 ,9.8384 ,1.09263 ,4.55591 ,44.70256 
50 ,10.0465 ,1.09462 ,4.55933 ,44.73614 
51 ,10.2549 ,1.09675 ,4.52511 ,44.40036 
52 ,10.4790 ,1.09888 ,4.53195 ,44.46751 
53 ,10.6712 ,1.10089 ,4.49089 ,44.06457 
54 ,10.8792 ,1.10301 ,4.47035 ,43.86310 
55 ,11.0873 ,1.10508 ,4.46351 ,43.79595 
56 ,11.2633 ,1.10694 ,4.43271 ,43.49374 
57 ,11.4554 ,1.10873 ,4.41902 ,43.35943 
58 ,11.6474 ,1.11066 ,4.40533 ,43.22512 
59 ,11.8556 ,1.11276 ,4.37453 ,42.92291 
60 ,12.0473 ,1.11464 ,4.38138 ,42.99007 
61 ,12.2556 ,1.11675 ,4.34031 ,42.58713 
62 ,12.4954 ,1.11904 ,4.34031 ,42.58713 
63 ,12.6877 ,1.12105 ,4.31293 ,42.31850 
64 ,12.8959 ,1.12318 ,4.28898 ,42.08345 
65 ,13.0716 ,1.12503 ,4.28556 ,42.04988 
66 ,13.2641 ,1.12681 ,4.26160 ,41.81483 
67 ,13.4562 ,1.12872 ,4.23422 ,41.54620 
68 ,13.6483 ,1.13073 ,4.23080 ,41.51262 
69 ,13.8562 ,1.13274 ,4.20685 ,41.27758 
70 ,14.0483 ,1.13463 ,4.19316 ,41.14326 
71 ,14.2402 ,1.13662 ,4.17262 ,40.94179 
72 ,14.4487 ,1.13869 ,4.16236 ,40.84106 
73 ,14.6565 ,1.14071 ,4.14183 ,40.63959 
74 ,14.8488 ,1.14268 ,4.11787 ,40.40454 
75 ,15.0570 ,1.14475 ,4.09734 ,40.20307 
76 ,15.2489 ,1.14667 ,4.08707 ,40.10233 
77 ,15.4406 ,1.14864 ,4.06996 ,39.93444 
78 ,15.6812 ,1.15089 ,4.05627 ,39.80013 
79 ,15.9051 ,1.15319 ,4.03916 ,39.63224 
80 ,16.0970 ,1.15511 ,4.01863 ,39.43077 
81 ,16.2893 ,1.15712 ,3.99809 ,39.22930 
82 ,16.4811 ,1.15899 ,3.98098 ,39.06141 
83 ,16.6735 ,1.16091 ,3.95018 ,38.75920 
84 ,16.8814 ,1.16301 ,3.94676 ,38.72562 
85 ,17.0895 ,1.16495 ,3.92623 ,38.52415 
86 ,17.2977 ,1.16709 ,3.90912 ,38.35626 
87 ,17.4897 ,1.16906 ,3.89543 ,38.22195 
88 ,17.6980 ,1.17116 ,3.86805 ,37.95332 
89 ,17.9061 ,1.17326 ,3.87147 ,37.98690 
90 ,18.0977 ,1.17515 ,3.82699 ,37.55038 
91 ,18.2903 ,1.17714 ,3.82356 ,37.51681 
92 ,18.4981 ,1.17906 ,3.80645 ,37.34891 
93 ,18.6899 ,1.18106 ,3.77908 ,37.08029 
94 ,18.8822 ,1.18305 ,3.77565 ,37.04671 
95 ,19.0901 ,1.18510 ,3.75854 ,36.87882 
96 ,19.2824 ,1.18696 ,3.75512 ,36.84524 
97 ,19.5228 ,1.18925 ,3.73117 ,36.61019 
98 ,19.7465 ,1.19148 ,3.69352 ,36.24083 
99 ,19.9708 ,1.19377 ,3.66957 ,36.00578 
100 ,20.1790 ,1.19600 ,3.65246 ,35.83789 
101 ,20.3868 ,1.19801 ,3.65246 ,35.83789 
102 ,20.5791 ,1.19993 ,3.62166 ,35.53569 
103 ,20.7872 ,1.20200 ,3.61481 ,35.46853 
104 ,20.9952 ,1.20416 ,3.58059 ,35.13275 
105 ,21.2032 ,1.20622 ,3.59086 ,35.23348 
106 ,21.3956 ,1.20812 ,3.56006 ,34.93128 
107 ,21.6034 ,1.21022 ,3.55663 ,34.89770 
108 ,21.7956 ,1.21207 ,3.53952 ,34.72981 
109 ,21.9872 ,1.21401 ,3.50188 ,34.36045 
110 ,22.1797 ,1.21595 ,3.50188 ,34.36045 
111 ,22.3715 ,1.21788 ,3.47108 ,34.05824 
112 ,22.5636 ,1.21977 ,3.47450 ,34.09182 
113 ,22.7558 ,1.22172 ,3.44028 ,33.75604 
114 ,22.9481 ,1.22365 ,3.43686 ,33.72246 
115 ,23.1560 ,1.22572 ,3.41633 ,33.52099 
116 ,23.3482 ,1.22763 ,3.40606 ,33.42025 
117 ,23.5405 ,1.22957 ,3.38895 ,33.25236 
118 ,23.7484 ,1.23162 ,3.36499 ,33.01731 
119 ,23.9405 ,1.23359 ,3.36842 ,33.05089 
120 ,24.1321 ,1.23547 ,3.32735 ,32.64795 
121 ,24.3246 ,1.23738 ,3.31708 ,32.54722 
122 ,24.5485 ,1.23953 ,3.28971 ,32.27859 
123 ,24.7568 ,1.24169 ,3.29313 ,32.31217 
124 ,24.9488 ,1.24362 ,3.27259 ,32.11070 
125 ,25.1568 ,1.24573 ,3.25891 ,31.97639 
126 ,25.3491 ,1.24764 ,3.22468 ,31.64060 
127 ,25.5572 ,1.24972 ,3.22126 ,31.60702 
128 ,25.7492 ,1.25162 ,3.19046 ,31.30482 
129 ,25.9573 ,1.25369 ,3.19046 ,31.30482 
130 ,26.1494 ,1.25560 ,3.15624 ,30.96904 
131 ,26.3411 ,1.25755 ,3.15282 ,30.93546 
132 ,26.5496 ,1.25953 ,3.12202 ,30.63325 
133 ,26.7417 ,1.26157 ,3.12544 ,30.66683 
134 ,26.9497 ,1.26367 ,3.08780 ,30.29747 
135 ,27.1415 ,1.26560 ,3.10149 ,30.43178 
136 ,27.3497 ,1.26761 ,3.06384 ,30.06242 
137 ,27.5575 ,1.26972 ,3.05700 ,29.99527 
138 ,27.7498 ,1.27164 ,3.02620 ,29.69306 
139 ,27.9577 ,1.27367 ,3.02620 ,29.69306 
140 ,28.1498 ,1.27565 ,2.99198 ,29.35728 
141 ,28.3424 ,1.27758 ,2.99882 ,29.42444 
142 ,28.5338 ,1.27962 ,2.96118 ,29.05507 
143 ,28.7263 ,1.28137 ,2.96118 ,29.05507 
144 ,28.9183 ,1.28335 ,2.95776 ,29.02150 
145 ,29.1267 ,1.28539 ,2.92011 ,28.65213 
146 ,29.3187 ,1.28734 ,2.91327 ,28.58498 
147 ,29.5264 ,1.28941 ,2.89616 ,28.41709 
148 ,29.7190 ,1.29131 ,2.89273 ,28.38351 
149 ,29.9268 ,1.29338 ,2.85509 ,28.01415 
150 ,30.1351 ,1.29549 ,2.83456 ,27.81268 
151 ,30.3431 ,1.29757 ,2.83114 ,27.77910 
152 ,30.5351 ,1.29947 ,2.81060 ,27.57763 
153 ,30.7271 ,1.30136 ,2.79007 ,27.37616 
154 ,30.9514 ,1.30364 ,2.77296 ,27.20827 
155 ,31.1594 ,1.30571 ,2.77296 ,27.20827 
156 ,31.3516 ,1.30762 ,2.74558 ,26.93964 
157 ,31.5596 ,1.30973 ,2.73531 ,26.83891 
158 ,31.7513 ,1.31164 ,2.70794 ,26.57028 
159 ,31.9437 ,1.31361 ,2.71478 ,26.63744 
160 ,32.1519 ,1.31565 ,2.68056 ,26.30165 
161 ,32.3599 ,1.31773 ,2.67714 ,26.26807 
162 ,32.5520 ,1.31967 ,2.65660 ,26.06661 
163 ,32.7439 ,1.32154 ,2.63607 ,25.86514 
164 ,32.9363 ,1.32348 ,2.63265 ,25.83156 
165 ,33.1440 ,1.32557 ,2.60185 ,25.52935 
166 ,33.3362 ,1.32750 ,2.59501 ,25.46220 
167 ,33.5124 ,1.32935 ,2.57447 ,25.26073 
168 ,33.7045 ,1.33119 ,2.56421 ,25.15999 
169 ,33.8964 ,1.33312 ,2.56763 ,25.19357 
170 ,34.1047 ,1.33518 ,2.53341 ,24.85779 
171 ,34.3129 ,1.33726 ,2.51972 ,24.72347 
172 ,34.5209 ,1.33930 ,2.51287 ,24.65632 
173 ,34.7124 ,1.34123 ,2.48207 ,24.35411 
174 ,34.9049 ,1.34314 ,2.47523 ,24.28696 
175 ,35.0809 ,1.34505 ,2.46154 ,24.15264 
176 ,35.2731 ,1.34683 ,2.43759 ,23.91759 
177 ,35.4810 ,1.34892 ,2.43416 ,23.88402 
178 ,35.6732 ,1.35086 ,2.41021 ,23.64897 
179 ,35.8651 ,1.35274 ,2.39652 ,23.51465 
180 ,36.0573 ,1.35465 ,2.39652 ,23.51465 
181 ,36.2333 ,1.35656 ,2.35203 ,23.07814 
182 ,36.4258 ,1.35838 ,2.36914 ,23.24603 
183 ,36.6494 ,1.36047 ,2.35888 ,23.14529 
184 ,36.8576 ,1.36265 ,2.33492 ,22.91024 
185 ,37.0500 ,1.36459 ,2.30754 ,22.64162 
186 ,37.2415 ,1.36666 ,2.30754 ,22.64162 
187 ,37.4341 ,1.36844 ,2.29385 ,22.50731 
188 ,37.6257 ,1.37032 ,2.25963 ,22.17152 
189 ,37.8185 ,1.37227 ,2.25963 ,22.17152 
190 ,38.0101 ,1.37423 ,2.23568 ,21.93647 
191 ,38.2022 ,1.37609 ,2.23226 ,21.90290 
192 ,38.3783 ,1.37799 ,2.21172 ,21.70143 
193 ,38.5700 ,1.37978 ,2.19461 ,21.53353 
194 ,38.7625 ,1.38169 ,2.18435 ,21.43280 
195 ,38.9541 ,1.38366 ,2.17408 ,21.33206 
196 ,39.1468 ,1.38558 ,2.14670 ,21.06344 
197 ,39.3545 ,1.38761 ,2.15012 ,21.09702 
198 ,39.5466 ,1.38960 ,2.12275 ,20.82839 
199 ,39.7388 ,1.39147 ,2.11248 ,20.72766 
200 ,39.9468 ,1.39350 ,2.08852 ,20.49261 
201 ,40.1552 ,1.39557 ,2.09195 ,20.52619 
202 ,40.3631 ,1.39775 ,2.06457 ,20.25756 
203 ,40.5550 ,1.39975 ,2.05430 ,20.15682 
204 ,40.7473 ,1.40151 ,2.03719 ,19.98893 
205 ,40.9395 ,1.40348 ,2.02693 ,19.88820 
206 ,41.1315 ,1.40540 ,2.00297 ,19.65315 
207 ,41.3397 ,1.40747 ,1.99955 ,19.61957 
208 ,41.5317 ,1.40938 ,1.98244 ,19.45168 
209 ,41.7557 ,1.41161 ,1.97559 ,19.38452 
210 ,41.9639 ,1.41374 ,1.95164 ,19.14948 
211 ,42.1717 ,1.41569 ,1.93453 ,18.98158 
212 ,42.3800 ,1.41782 ,1.93111 ,18.94801 
213 ,42.5720 ,1.41978 ,1.90373 ,18.67938 
214 ,42.7641 ,1.42169 ,1.88662 ,18.51149 
215 ,42.9562 ,1.42362 ,1.88662 ,18.51149 
216 ,43.1483 ,1.42558 ,1.84897 ,18.14213 
217 ,43.3561 ,1.42765 ,1.86608 ,18.31002 
218 ,43.5485 ,1.42954 ,1.83528 ,18.00781 
219 ,43.7563 ,1.43163 ,1.84213 ,18.07497 
220 ,43.9645 ,1.43370 ,1.80106 ,17.67203 
221 ,44.1725 ,1.43579 ,1.79764 ,17.63845 
222 ,44.3646 ,1.43769 ,1.77369 ,17.40340 
223 ,44.5569 ,1.43976 ,1.76000 ,17.26909 
224 ,44.7488 ,1.44155 ,1.74289 ,17.10120 
225 ,44.9411 ,1.44349 ,1.74289 ,17.10120 
226 ,45.1331 ,1.44540 ,1.72578 ,16.93331 
227 ,45.3413 ,1.44746 ,1.70524 ,16.73184 
228 ,45.5492 ,1.44950 ,1.69840 ,16.66468 
229 ,45.7415 ,1.45154 ,1.67786 ,16.46321 
230 ,45.9492 ,1.45358 ,1.66418 ,16.32890 
231 ,46.1576 ,1.45562 ,1.65733 ,16.26174 
232 ,46.3655 ,1.45770 ,1.63338 ,16.02669 
233 ,46.5737 ,1.45982 ,1.62995 ,15.99311 
234 ,46.7658 ,1.46172 ,1.59916 ,15.69091 
235 ,46.9738 ,1.46384 ,1.61627 ,15.85880 
236 ,47.1658 ,1.46570 ,1.57520 ,15.45586 
237 ,47.3580 ,1.46763 ,1.58204 ,15.52302 
238 ,47.5658 ,1.46973 ,1.55124 ,15.22081 
239 ,47.7582 ,1.47162 ,1.55809 ,15.28797 
240 ,47.9499 ,1.47353 ,1.52729 ,14.98577 
241 ,48.1739 ,1.47569 ,1.52387 ,14.95219 
242 ,48.3820 ,1.47780 ,1.49307 ,14.64998 
243 ,48.6062 ,1.47999 ,1.48965 ,14.61640 
244 ,48.8306 ,1.48236 ,1.46227 ,14.34778 
245 ,49.0388 ,1.48445 ,1.45885 ,14.31420 
246 ,49.2304 ,1.48636 ,1.45200 ,14.24704 
247 ,49.4231 ,1.48831 ,1.43831 ,14.11273 
248 ,49.6151 ,1.49018 ,1.43147 ,14.04557 
249 ,49.8068 ,1.49213 ,1.39040 ,13.64263 
250 ,50.0313 ,1.49427 ,1.40409 ,13.77695 
251 ,50.2550 ,1.49657 ,1.39040 ,13.64263 
252 ,50.4473 ,1.49848 ,1.36303 ,13.37401 
253 ,50.6555 ,1.50063 ,1.36303 ,13.37401 
254 ,50.8475 ,1.50251 ,1.31512 ,12.90391 
255 ,51.0397 ,1.50445 ,1.32196 ,12.97107 
256 ,51.2476 ,1.50647 ,1.30827 ,12.83675 
257 ,51.4393 ,1.50844 ,1.29800 ,12.73602 
258 ,51.6318 ,1.51036 ,1.28089 ,12.56813 
259 ,51.8242 ,1.51226 ,1.25009 ,12.26592 
260 ,52.0158 ,1.51423 ,1.26720 ,12.43381 
261 ,52.2241 ,1.51627 ,1.23983 ,12.16519 
262 ,52.4322 ,1.51823 ,1.24325 ,12.19877 
263 ,52.6244 ,1.52036 ,1.21587 ,11.93014 
264 ,52.8321 ,1.52223 ,1.21245 ,11.89656 
265 ,53.0246 ,1.52430 ,1.17823 ,11.56078 
266 ,53.2165 ,1.52621 ,1.18507 ,11.62794 
267 ,53.4245 ,1.52829 ,1.16112 ,11.39289 
268 ,53.6163 ,1.53020 ,1.16454 ,11.42647 
269 ,53.8406 ,1.53228 ,1.13032 ,11.09068 
270 ,54.0488 ,1.53454 ,1.11663 ,10.95637 
271 ,54.2565 ,1.53658 ,1.12005 ,10.98995 
272 ,54.4489 ,1.53848 ,1.10979 ,10.88921 
273 ,54.6730 ,1.54055 ,1.07556 ,10.55343 
274 ,54.8651 ,1.54269 ,1.06530 ,10.45270 
275 ,55.0733 ,1.54475 ,1.06872 ,10.48627 
276 ,55.2813 ,1.54683 ,1.03450 ,10.15049 
277 ,55.4895 ,1.54892 ,1.03792 ,10.18407 
278 ,55.6975 ,1.55097 ,1.02423 ,10.04976 
279 ,55.8894 ,1.55291 ,1.01054 ,9.91544 
280 ,56.0816 ,1.55485 ,0.97974 ,9.61324 
281 ,56.2738 ,1.55674 ,0.99343 ,9.74755 
282 ,56.4979 ,1.55893 ,0.95579 ,9.37819 
283 ,56.6899 ,1.56093 ,0.96263 ,9.44535 
284 ,56.8816 ,1.56282 ,0.92157 ,9.04241 
285 ,57.0898 ,1.56485 ,0.92841 ,9.10956 
286 ,57.2982 ,1.56700 ,0.92499 ,9.07598 
287 ,57.4900 ,1.56893 ,0.91130 ,8.94167 
288 ,57.7304 ,1.57136 ,0.89419 ,8.77378 
289 ,57.9384 ,1.57340 ,0.86681 ,8.50515 
290 ,58.1625 ,1.57550 ,0.87708 ,8.60589 
291 ,58.3705 ,1.57779 ,0.85997 ,8.43800 
292 ,58.5787 ,1.57980 ,0.84628 ,8.30368 
293 ,58.7707 ,1.58174 ,0.81548 ,8.00148 
294 ,58.9628 ,1.58362 ,0.79495 ,7.80001 
295 ,59.1549 ,1.58553 ,0.80521 ,7.90074 
296 ,59.3629 ,1.58763 ,0.77784 ,7.63212 
297 ,59.5710 ,1.58973 ,0.79152 ,7.76643 
298 ,59.7630 ,1.59165 ,0.76757 ,7.53138 
299 ,59.9552 ,1.59353 ,0.75046 ,7.36349 
300 ,60.1471 ,1.59548 ,0.74704 ,7.32991 
301 ,60.3715 ,1.59760 ,0.72308 ,7.09486 
302 ,60.5792 ,1.59980 ,0.69913 ,6.85982 
303 ,60.7714 ,1.60174 ,0.69228 ,6.79266 
304 ,60.9633 ,1.60378 ,0.67859 ,6.65835 
305 ,61.1558 ,1.60556 ,0.67175 ,6.59119 
306 ,61.3638 ,1.60763 ,0.65464 ,6.42330 
307 ,61.5559 ,1.60959 ,0.65806 ,6.45688 
308 ,61.7640 ,1.61163 ,0.63068 ,6.18825 
309 ,61.9559 ,1.61360 ,0.64095 ,6.28899 
310 ,62.1642 ,1.61569 ,0.59988 ,5.88605 
311 ,62.3559 ,1.61754 ,0.60330 ,5.91962 
312 ,62.5483 ,1.61950 ,0.59304 ,5.81889 
313 ,62.7564 ,1.62157 ,0.57251 ,5.61742 
314 ,62.9645 ,1.62364 ,0.56566 ,5.55026 
315 ,63.1724 ,1.62573 ,0.55197 ,5.41595 
316 ,63.3807 ,1.62778 ,0.53144 ,5.21448 
317 ,63.5884 ,1.62994 ,0.55197 ,5.41595 
318 ,63.7808 ,1.63184 ,0.50748 ,4.97943 
319 ,63.9889 ,1.63389 ,0.50748 ,4.97943 
320 ,64.1810 ,1.63582 ,0.47668 ,4.67723 
321 ,64.3730 ,1.63774 ,0.48695 ,4.77796 
322 ,64.5647 ,1.63960 ,0.47326 ,4.64365 
323 ,64.7730 ,1.64170 ,0.45615 ,4.47576 
324 ,64.9813 ,1.64379 ,0.44246 ,4.34144 
325 ,65.1732 ,1.64576 ,0.43904 ,4.30787 
326 ,65.3812 ,1.64783 ,0.40824 ,4.00566 
327 ,65.5732 ,1.64972 ,0.41166 ,4.03924 
328 ,65.7654 ,1.65160 ,0.41509 ,4.07282 
329 ,65.9734 ,1.65371 ,0.37744 ,3.70346 
330 ,66.1657 ,1.65561 ,0.40140 ,3.93850 
331 ,66.3739 ,1.65774 ,0.37060 ,3.63630 
332 ,66.5658 ,1.65975 ,0.35691 ,3.50199 
333 ,66.7576 ,1.66154 ,0.33638 ,3.30052 
334 ,66.9502 ,1.66352 ,0.34664 ,3.40125 
335 ,67.1580 ,1.66556 ,0.32269 ,3.16620 
336 ,67.3503 ,1.66749 ,0.32611 ,3.19978 
337 ,67.5583 ,1.66947 ,0.30900 ,3.03189 
338 ,67.7505 ,1.67151 ,0.28504 ,2.79684 
339 ,67.9584 ,1.67358 ,0.27478 ,2.69611 
340 ,68.1507 ,1.67546 ,0.27478 ,2.69611 
341 ,68.3426 ,1.67741 ,0.25082 ,2.46106 
342 ,68.5350 ,1.67931 ,0.24740 ,2.42748 
343 ,68.7268 ,1.68126 ,0.25082 ,2.46106 
344 ,68.9345 ,1.68330 ,0.22002 ,2.15885 
345 ,69.1270 ,1.68524 ,0.23371 ,2.29317 
346 ,69.3667 ,1.68751 ,0.19949 ,1.95738 
347 ,69.5588 ,1.68956 ,0.17896 ,1.75592 
348 ,69.7508 ,1.69145 ,0.18238 ,1.78949 
349 ,69.9435 ,1.69343 ,0.17211 ,1.68876 
350 ,70.1673 ,1.69562 ,0.17211 ,1.68876 
351 ,70.3754 ,1.69773 ,0.13447 ,1.31940 
352 ,70.5675 ,1.69966 ,0.14816 ,1.45371 
353 ,70.7755 ,1.70171 ,0.12078 ,1.18508 
354 ,70.9677 ,1.70365 ,0.11736 ,1.15151 
355 ,71.1756 ,1.70569 ,0.08998 ,0.88288 
356 ,71.3678 ,1.70763 ,0.09682 ,0.95004 
357 ,71.5759 ,1.70968 ,0.07287 ,0.71499 
358 ,71.7680 ,1.71161 ,0.07629 ,0.74857 
359 ,71.9760 ,1.71374 ,0.04891 ,0.47994 
360 ,72.1841 ,1.71567 ,0.07287 ,0.71499 
361 ,72.3924 ,1.71783 ,0.03522 ,0.34563 
362 ,72.6003 ,1.71997 ,0.02154 ,0.21131 
363 ,72.7926 ,1.72185 ,0.00443 ,0.04342 
364 ,73.0007 ,1.72400 ,0.01469 ,0.14416 
365 ,73.1927 ,1.72586 ,-0.00926 ,-0.09089 
366 ,73.4007 ,1.72798 ,-0.00926 ,-0.09089 
367 ,73.6087 ,1.73006 ,-0.02295 ,-0.22520 
368 ,73.8010 ,1.73194 ,-0.05033 ,-0.49383 
369 ,73.9928 ,1.73398 ,-0.05033 ,-0.49383 
370 ,74.1851 ,1.73577 ,-0.03664 ,-0.35952 
371 ,74.3928 ,1.73787 ,-0.07428 ,-0.72888 
372 ,74.5852 ,1.73981 ,-0.06744 ,-0.66172 
373 ,74.7773 ,1.74169 ,-0.09482 ,-0.93035 
374 ,74.9694 ,1.74367 ,-0.08797 ,-0.86319 
375 ,75.1935 ,1.74580 ,-0.11535 ,-1.13182 
376 ,75.3855 ,1.74778 ,-0.10851 ,-1.06466 
377 ,75.5773 ,1.74983 ,-0.14615 ,-1.43402 
378 ,75.7697 ,1.75163 ,-0.14273 ,-1.40045 
379 ,75.9618 ,1.75354 ,-0.14957 ,-1.46760 
380 ,76.1699 ,1.75563 ,-0.15984 ,-1.56834 
381 ,76.3778 ,1.75773 ,-0.18037 ,-1.76981 
382 ,76.5697 ,1.75962 ,-0.18379 ,-1.80338 
383 ,76.7620 ,1.76162 ,-0.18379 ,-1.80338 
384 ,76.9699 ,1.76366 ,-0.20090 ,-1.97128 
385 ,77.1620 ,1.76561 ,-0.21459 ,-2.10559 
386 ,77.3544 ,1.76755 ,-0.22486 ,-2.20632 
387 ,77.5624 ,1.76943 ,-0.23513 ,-2.30706 
388 ,77.7705 ,1.77164 ,-0.23855 ,-2.34064 
389 ,77.9625 ,1.77357 ,-0.25224 ,-2.47495 
390 ,78.1706 ,1.77555 ,-0.27277 ,-2.67642 
391 ,78.3627 ,1.77761 ,-0.26935 ,-2.64284 
392 ,78.5705 ,1.77965 ,-0.28988 ,-2.84431 
393 ,78.7946 ,1.78188 ,-0.29330 ,-2.87789 
394 ,78.9868 ,1.78384 ,-0.28988 ,-2.84431 
395 ,79.1952 ,1.78589 ,-0.31041 ,-3.04578 
396 ,79.4028 ,1.78794 ,-0.31384 ,-3.07936 
397 ,79.5954 ,1.78985 ,-0.33779 ,-3.31441 
398 ,79.7874 ,1.79180 ,-0.33095 ,-3.24725 
399 ,79.9793 ,1.79373 ,-0.35490 ,-3.48230 
400 ,80.1712 ,1.79575 ,-0.37201 ,-3.65019 
401 ,80.3795 ,1.79768 ,-0.37201 ,-3.65019 
402 ,80.5876 ,1.79978 ,-0.38570 ,-3.78450 
403 ,80.7798 ,1.80185 ,-0.39255 ,-3.85166 
404 ,80.9715 ,1.80365 ,-0.40281 ,-3.95240 
405 ,81.1639 ,1.80559 ,-0.40281 ,-3.95240 
406 ,81.3720 ,1.80765 ,-0.42677 ,-4.18744 
407 ,81.5801 ,1.80970 ,-0.41308 ,-4.05313 
408 ,81.7722 ,1.81165 ,-0.45072 ,-4.42249 
409 ,81.9804 ,1.81374 ,-0.44046 ,-4.32176 
410 ,82.1722 ,1.81572 ,-0.46783 ,-4.59038 
411 ,82.3645 ,1.81760 ,-0.45414 ,-4.45607 
412 ,82.5564 ,1.81951 ,-0.47810 ,-4.69112 
413 ,82.7646 ,1.82161 ,-0.48837 ,-4.79185 
414 ,82.9567 ,1.82349 ,-0.49863 ,-4.89259 
415 ,83.1484 ,1.82543 ,-0.50206 ,-4.92617 
416 ,83.3570 ,1.82748 ,-0.51232 ,-5.02690 
417 ,83.5649 ,1.82955 ,-0.51232 ,-5.02690 
418 ,83.7891 ,1.83183 ,-0.53970 ,-5.29553 
419 ,83.9971 ,1.83394 ,-0.53970 ,-5.29553 
420 ,84.2053 ,1.83592 ,-0.55681 ,-5.46342 
421 ,84.4134 ,1.83804 ,-0.55681 ,-5.46342 
422 ,84.6214 ,1.84012 ,-0.56365 ,-5.53058 
423 ,84.8134 ,1.84210 ,-0.58761 ,-5.76562 
424 ,85.0055 ,1.84392 ,-0.60130 ,-5.89994 
425 ,85.1975 ,1.84583 ,-0.60130 ,-5.89994 
426 ,85.3897 ,1.84782 ,-0.62525 ,-6.13499 
427 ,85.5819 ,1.84974 ,-0.62183 ,-6.10141 
428 ,85.7740 ,1.85164 ,-0.64236 ,-6.30288 
429 ,85.9820 ,1.85372 ,-0.63894 ,-6.26930 
430 ,86.1901 ,1.85582 ,-0.65947 ,-6.47077 
431 ,86.3977 ,1.85786 ,-0.65947 ,-6.47077 
432 ,86.6059 ,1.85991 ,-0.67659 ,-6.63866 
433 ,86.8141 ,1.86210 ,-0.68001 ,-6.67224 
434 ,87.0224 ,1.86411 ,-0.69027 ,-6.77297 
435 ,87.2145 ,1.86605 ,-0.69712 ,-6.84013 
436 ,87.4062 ,1.86799 ,-0.70054 ,-6.87371 
437 ,87.6305 ,1.87016 ,-0.72107 ,-7.07518 
438 ,87.8386 ,1.87216 ,-0.71081 ,-6.97444 
439 ,88.0308 ,1.87421 ,-0.75187 ,-7.37738 
440 ,88.2388 ,1.87627 ,-0.73476 ,-7.20949 
441 ,88.4309 ,1.87821 ,-0.75187 ,-7.37738 
442 ,88.6226 ,1.88010 ,-0.76556 ,-7.51170 
443 ,88.8312 ,1.88217 ,-0.77583 ,-7.61243 
444 ,89.0228 ,1.88423 ,-0.76898 ,-7.54527 
445 ,89.2153 ,1.88605 ,-0.78267 ,-7.67959 
446 ,89.4233 ,1.88812 ,-0.78610 ,-7.71317 
447 ,89.6154 ,1.89009 ,-0.81005 ,-7.94821 
448 ,89.7915 ,1.89189 ,-0.82374 ,-8.08253 
449 ,89.9835 ,1.89370 ,-0.80663 ,-7.91464 
450 ,90.1755 ,1.89562 ,-0.82032 ,-8.04895 
451 ,90.3672 ,1.89756 ,-0.85454 ,-8.38473 
452 ,90.5595 ,1.89953 ,-0.83743 ,-8.21684 
453 ,90.7519 ,1.90143 ,-0.87165 ,-8.55262 
454 ,90.9440 ,1.90335 ,-0.87849 ,-8.61978 
455 ,91.1521 ,1.90543 ,-0.87849 ,-8.61978 
456 ,91.3444 ,1.90734 ,-0.87165 ,-8.55262 
457 ,91.5523 ,1.90940 ,-0.89903 ,-8.82125 
458 ,91.7444 ,1.91135 ,-0.88534 ,-8.68694 
459 ,91.9524 ,1.91339 ,-0.90245 ,-8.85483 
460 ,92.1445 ,1.91533 ,-0.92298 ,-9.05630 
461 ,92.3525 ,1.91743 ,-0.92640 ,-9.08988 
462 ,92.5446 ,1.91932 ,-0.94009 ,-9.22419 
463 ,92.7526 ,1.92141 ,-0.92983 ,-9.12345 
