Data stamp = , 01-05-2022 01:47:31 856

Calibration Values: 
Slope = , 26.54 , g/V 
Offset Voltage at no contact = , -0.501760 , V 

No , Time , Stage Position ,   Mass , Force 
   ,  (s) ,      (mm)      ,   (g)  , (mN)  

1 ,0.0000 ,0.99942 ,5.40118 ,52.99640 
2 ,0.2139 ,0.99949 ,5.39776 ,52.96282 
3 ,0.7584 ,1.00159 ,5.39776 ,52.96282 
4 ,0.9824 ,1.00392 ,5.37723 ,52.76135 
5 ,1.1907 ,1.00601 ,5.38749 ,52.86209 
6 ,1.3827 ,1.00793 ,5.38065 ,52.79493 
7 ,1.5747 ,1.00984 ,5.37723 ,52.76135 
8 ,1.7669 ,1.01178 ,5.33616 ,52.35841 
9 ,1.9590 ,1.01372 ,5.32589 ,52.25768 
10 ,2.1670 ,1.01583 ,5.29852 ,51.98905 
11 ,2.3913 ,1.01788 ,5.29167 ,51.92190 
12 ,2.5994 ,1.02016 ,5.26772 ,51.68685 
13 ,2.7909 ,1.02205 ,5.25403 ,51.55254 
14 ,2.9995 ,1.02399 ,5.21981 ,51.21675 
15 ,3.2076 ,1.02619 ,5.20270 ,51.04886 
16 ,3.4156 ,1.02831 ,5.19243 ,50.94813 
17 ,3.6236 ,1.03033 ,5.15479 ,50.57876 
18 ,3.8154 ,1.03227 ,5.15479 ,50.57876 
19 ,4.0078 ,1.03419 ,5.11372 ,50.17583 
20 ,4.2000 ,1.03612 ,5.10688 ,50.10867 
21 ,4.3918 ,1.03806 ,5.10003 ,50.04151 
22 ,4.6000 ,1.04007 ,5.06923 ,49.73931 
23 ,4.7922 ,1.04205 ,5.05897 ,49.63857 
24 ,4.9999 ,1.04412 ,5.03843 ,49.43710 
25 ,5.1922 ,1.04602 ,5.02132 ,49.26921 
26 ,5.6245 ,1.04915 ,4.99737 ,49.03416 
27 ,5.8485 ,1.05250 ,4.95288 ,48.59764 
28 ,6.0404 ,1.05453 ,4.92208 ,48.29544 
29 ,6.2328 ,1.05645 ,4.92208 ,48.29544 
30 ,6.4408 ,1.05859 ,4.88786 ,47.95966 
31 ,6.6489 ,1.06061 ,4.88101 ,47.89250 
32 ,6.8410 ,1.06251 ,4.84337 ,47.52314 
33 ,7.0334 ,1.06444 ,4.84337 ,47.52314 
34 ,7.2091 ,1.06633 ,4.80573 ,47.15378 
35 ,7.4015 ,1.06810 ,4.78861 ,46.98589 
36 ,7.5930 ,1.07005 ,4.79546 ,47.05304 
37 ,7.7854 ,1.07193 ,4.75097 ,46.61653 
38 ,7.9776 ,1.07394 ,4.74413 ,46.54937 
39 ,8.1856 ,1.07603 ,4.72702 ,46.38148 
40 ,8.4257 ,1.07823 ,4.71333 ,46.24716 
41 ,8.6338 ,1.08043 ,4.69964 ,46.11285 
42 ,8.8259 ,1.08241 ,4.66199 ,45.74349 
43 ,9.0338 ,1.08444 ,4.65857 ,45.70991 
44 ,9.2260 ,1.08637 ,4.62777 ,45.40771 
45 ,9.4179 ,1.08828 ,4.61751 ,45.30697 
46 ,9.6102 ,1.09019 ,4.60724 ,45.20624 
47 ,9.8023 ,1.09213 ,4.58671 ,45.00477 
48 ,9.9943 ,1.09403 ,4.56617 ,44.80330 
49 ,10.2029 ,1.09613 ,4.53195 ,44.46751 
50 ,10.3944 ,1.09805 ,4.54222 ,44.56825 
51 ,10.5865 ,1.09997 ,4.51484 ,44.29962 
52 ,10.8106 ,1.10216 ,4.49089 ,44.06457 
53 ,11.0026 ,1.10410 ,4.46693 ,43.82953 
54 ,11.1947 ,1.10604 ,4.46009 ,43.76237 
55 ,11.3866 ,1.10798 ,4.44298 ,43.59448 
56 ,11.5785 ,1.10990 ,4.42244 ,43.39301 
57 ,11.7711 ,1.11178 ,4.41902 ,43.35943 
58 ,11.9791 ,1.11382 ,4.39164 ,43.09080 
59 ,12.2033 ,1.11605 ,4.37111 ,42.88933 
60 ,12.4111 ,1.11821 ,4.36427 ,42.82218 
61 ,12.6029 ,1.12016 ,4.33004 ,42.48639 
62 ,12.7952 ,1.12203 ,4.33347 ,42.51997 
63 ,13.0195 ,1.12433 ,4.30267 ,42.21777 
64 ,13.2276 ,1.12634 ,4.28556 ,42.04988 
65 ,13.4195 ,1.12831 ,4.25476 ,41.74767 
66 ,13.6117 ,1.13017 ,4.25818 ,41.78125 
67 ,13.8036 ,1.13210 ,4.22053 ,41.41189 
68 ,13.9959 ,1.13408 ,4.23080 ,41.51262 
69 ,14.1878 ,1.13602 ,4.19658 ,41.17684 
70 ,14.3800 ,1.13793 ,4.17605 ,40.97537 
71 ,14.6040 ,1.14003 ,4.16920 ,40.90821 
72 ,14.8116 ,1.14216 ,4.15551 ,40.77390 
73 ,15.0040 ,1.14414 ,4.11787 ,40.40454 
74 ,15.2124 ,1.14619 ,4.12129 ,40.43812 
75 ,15.4044 ,1.14815 ,4.08023 ,40.03518 
76 ,15.5963 ,1.15006 ,4.08023 ,40.03518 
77 ,15.8044 ,1.15199 ,4.06312 ,39.86729 
78 ,15.9966 ,1.15403 ,4.04258 ,39.66582 
79 ,16.2047 ,1.15606 ,4.00836 ,39.33003 
80 ,16.3969 ,1.15809 ,4.00836 ,39.33003 
81 ,16.6048 ,1.16019 ,3.99125 ,39.16214 
82 ,16.7970 ,1.16204 ,3.97414 ,38.99425 
83 ,16.9886 ,1.16400 ,3.97756 ,39.02783 
84 ,17.1812 ,1.16591 ,3.93650 ,38.62489 
85 ,17.3733 ,1.16781 ,3.93992 ,38.65847 
86 ,17.5813 ,1.16989 ,3.89543 ,38.22195 
87 ,17.7732 ,1.17182 ,3.90227 ,38.28911 
88 ,17.9653 ,1.17376 ,3.87147 ,37.98690 
89 ,18.1574 ,1.17562 ,3.88174 ,38.08764 
90 ,18.3654 ,1.17760 ,3.85094 ,37.78543 
91 ,18.5576 ,1.17967 ,3.82699 ,37.55038 
92 ,18.7497 ,1.18160 ,3.83041 ,37.58396 
93 ,18.9575 ,1.18367 ,3.79276 ,37.21460 
94 ,19.1655 ,1.18572 ,3.76196 ,36.91240 
95 ,19.3579 ,1.18767 ,3.76539 ,36.94597 
96 ,19.5660 ,1.18974 ,3.73801 ,36.67735 
97 ,19.7582 ,1.19164 ,3.73117 ,36.61019 
98 ,19.9501 ,1.19356 ,3.73117 ,36.61019 
99 ,20.1582 ,1.19552 ,3.67983 ,36.10652 
100 ,20.3660 ,1.19770 ,3.67641 ,36.07294 
101 ,20.5742 ,1.19979 ,3.66272 ,35.93863 
102 ,20.7825 ,1.20187 ,3.63534 ,35.67000 
103 ,20.9745 ,1.20380 ,3.63534 ,35.67000 
104 ,21.1667 ,1.20573 ,3.60454 ,35.36779 
105 ,21.3584 ,1.20767 ,3.58743 ,35.19990 
106 ,21.5669 ,1.20973 ,3.57375 ,35.06559 
107 ,21.7749 ,1.21181 ,3.56348 ,34.96485 
108 ,21.9831 ,1.21390 ,3.51899 ,34.52834 
109 ,22.1589 ,1.21578 ,3.53952 ,34.72981 
110 ,22.3511 ,1.21751 ,3.51899 ,34.52834 
111 ,22.5267 ,1.21942 ,3.47792 ,34.12540 
112 ,22.7193 ,1.22126 ,3.47792 ,34.12540 
113 ,22.9274 ,1.22327 ,3.46766 ,34.02466 
114 ,23.1191 ,1.22524 ,3.44028 ,33.75604 
115 ,23.3111 ,1.22725 ,3.44028 ,33.75604 
116 ,23.5036 ,1.22904 ,3.41290 ,33.48741 
117 ,23.6959 ,1.23107 ,3.40948 ,33.45383 
118 ,23.9040 ,1.23305 ,3.37526 ,33.11805 
119 ,24.1119 ,1.23515 ,3.38553 ,33.21878 
120 ,24.3036 ,1.23704 ,3.34104 ,32.78227 
121 ,24.4962 ,1.23898 ,3.33762 ,32.74869 
122 ,24.7038 ,1.24102 ,3.31024 ,32.48006 
123 ,24.8965 ,1.24303 ,3.30682 ,32.44648 
124 ,25.0884 ,1.24497 ,3.30339 ,32.41290 
125 ,25.2966 ,1.24704 ,3.27602 ,32.14428 
126 ,25.4885 ,1.24892 ,3.25206 ,31.90923 
127 ,25.6805 ,1.25085 ,3.24180 ,31.80849 
128 ,25.8722 ,1.25274 ,3.22811 ,31.67418 
129 ,26.0808 ,1.25487 ,3.19731 ,31.37198 
130 ,26.2727 ,1.25678 ,3.20415 ,31.43913 
131 ,26.4970 ,1.25895 ,3.19046 ,31.30482 
132 ,26.7048 ,1.26105 ,3.15282 ,30.93546 
133 ,26.8806 ,1.26296 ,3.13571 ,30.76757 
134 ,27.0729 ,1.26477 ,3.12886 ,30.70041 
135 ,27.2973 ,1.26688 ,3.10149 ,30.43178 
136 ,27.5053 ,1.26905 ,3.08095 ,30.23031 
137 ,27.6973 ,1.27102 ,3.07753 ,30.19674 
138 ,27.8896 ,1.27294 ,3.07411 ,30.16316 
139 ,28.0810 ,1.27484 ,3.03989 ,29.82737 
140 ,28.2572 ,1.27672 ,3.04331 ,29.86095 
141 ,28.4493 ,1.27848 ,3.02620 ,29.69306 
142 ,28.6417 ,1.28046 ,2.98855 ,29.32370 
143 ,28.8656 ,1.28261 ,2.99198 ,29.35728 
144 ,29.0735 ,1.28476 ,2.96118 ,29.05507 
145 ,29.2658 ,1.28675 ,2.95091 ,28.95434 
146 ,29.4741 ,1.28873 ,2.94064 ,28.85360 
147 ,29.6983 ,1.29090 ,2.90642 ,28.51782 
148 ,29.9062 ,1.29304 ,2.89616 ,28.41709 
149 ,30.0983 ,1.29504 ,2.86878 ,28.14846 
150 ,30.3063 ,1.29711 ,2.86193 ,28.08130 
151 ,30.4985 ,1.29909 ,2.86536 ,28.11488 
152 ,30.6906 ,1.30096 ,2.83456 ,27.81268 
153 ,30.8827 ,1.30282 ,2.81060 ,27.57763 
154 ,31.1069 ,1.30498 ,2.81060 ,27.57763 
155 ,31.2985 ,1.30701 ,2.77980 ,27.27542 
156 ,31.4911 ,1.30891 ,2.78322 ,27.30900 
157 ,31.6826 ,1.31082 ,2.75243 ,27.00680 
158 ,31.8751 ,1.31270 ,2.74900 ,26.97322 
159 ,32.0828 ,1.31480 ,2.71136 ,26.60386 
160 ,32.2753 ,1.31677 ,2.71820 ,26.67101 
161 ,32.4833 ,1.31891 ,2.69767 ,26.46954 
162 ,32.6911 ,1.32092 ,2.68398 ,26.33523 
163 ,32.8832 ,1.32279 ,2.65318 ,26.03303 
164 ,33.0757 ,1.32476 ,2.64976 ,25.99945 
165 ,33.2678 ,1.32677 ,2.63607 ,25.86514 
166 ,33.4593 ,1.32861 ,2.60185 ,25.52935 
167 ,33.6521 ,1.33050 ,2.60869 ,25.59651 
168 ,33.8600 ,1.33260 ,2.58132 ,25.32788 
169 ,34.0681 ,1.33473 ,2.56763 ,25.19357 
170 ,34.2601 ,1.33665 ,2.54710 ,24.99210 
171 ,34.4518 ,1.33853 ,2.54025 ,24.92494 
172 ,34.6442 ,1.34047 ,2.52656 ,24.79063 
173 ,34.8844 ,1.34282 ,2.50603 ,24.58916 
174 ,35.0765 ,1.34480 ,2.49576 ,24.48842 
175 ,35.2686 ,1.34672 ,2.49234 ,24.45485 
176 ,35.4766 ,1.34866 ,2.45812 ,24.11906 
177 ,35.6686 ,1.35066 ,2.45127 ,24.05191 
178 ,35.8609 ,1.35260 ,2.42732 ,23.81686 
179 ,36.0529 ,1.35455 ,2.43074 ,23.85044 
180 ,36.2449 ,1.35643 ,2.40336 ,23.58181 
181 ,36.4371 ,1.35838 ,2.37941 ,23.34676 
182 ,36.6447 ,1.36044 ,2.36572 ,23.21245 
183 ,36.8211 ,1.36233 ,2.37256 ,23.27961 
184 ,37.0136 ,1.36414 ,2.35545 ,23.11171 
185 ,37.2055 ,1.36607 ,2.32465 ,22.80951 
186 ,37.3814 ,1.36799 ,2.33834 ,22.94382 
187 ,37.5735 ,1.36971 ,2.31097 ,22.67520 
188 ,37.7812 ,1.37181 ,2.28701 ,22.44015 
189 ,37.9733 ,1.37372 ,2.26990 ,22.27226 
190 ,38.1657 ,1.37563 ,2.25963 ,22.17152 
191 ,38.3414 ,1.37755 ,2.24252 ,22.00363 
192 ,38.5337 ,1.37929 ,2.23226 ,21.90290 
193 ,38.7421 ,1.38140 ,2.20146 ,21.60069 
194 ,38.9180 ,1.38331 ,2.20830 ,21.66785 
195 ,39.1099 ,1.38509 ,2.19461 ,21.53353 
196 ,39.3183 ,1.38705 ,2.16723 ,21.26491 
197 ,39.5261 ,1.38923 ,2.15355 ,21.13059 
198 ,39.7184 ,1.39121 ,2.14670 ,21.06344 
199 ,39.9260 ,1.39322 ,2.10906 ,20.69408 
200 ,40.1185 ,1.39522 ,2.11932 ,20.79481 
201 ,40.3266 ,1.39721 ,2.09537 ,20.55976 
202 ,40.5187 ,1.39917 ,2.09537 ,20.55976 
203 ,40.7269 ,1.40122 ,2.06115 ,20.22398 
204 ,40.9185 ,1.40315 ,2.05773 ,20.19040 
205 ,41.1109 ,1.40514 ,2.02693 ,19.88820 
206 ,41.3030 ,1.40698 ,2.01324 ,19.75388 
207 ,41.5273 ,1.40924 ,1.99955 ,19.61957 
208 ,41.7351 ,1.41132 ,2.00639 ,19.68673 
209 ,41.9269 ,1.41330 ,1.97217 ,19.35094 
210 ,42.1189 ,1.41511 ,1.96875 ,19.31737 
211 ,42.3114 ,1.41715 ,1.95506 ,19.18305 
212 ,42.5193 ,1.41916 ,1.93111 ,18.94801 
213 ,42.7112 ,1.42103 ,1.91057 ,18.74654 
214 ,42.9035 ,1.42306 ,1.89688 ,18.61222 
215 ,43.0961 ,1.42494 ,1.90715 ,18.71296 
216 ,43.2876 ,1.42686 ,1.87977 ,18.44433 
217 ,43.4960 ,1.42883 ,1.86951 ,18.34360 
218 ,43.6882 ,1.43090 ,1.83528 ,18.00781 
219 ,43.8963 ,1.43297 ,1.84213 ,18.07497 
220 ,44.1043 ,1.43502 ,1.80791 ,17.73919 
221 ,44.2959 ,1.43695 ,1.81475 ,17.80634 
222 ,44.4884 ,1.43888 ,1.78053 ,17.47056 
223 ,44.6805 ,1.44081 ,1.78737 ,17.53772 
224 ,44.8722 ,1.44267 ,1.77026 ,17.36983 
225 ,45.0807 ,1.44467 ,1.75657 ,17.23551 
226 ,45.2887 ,1.44686 ,1.73604 ,17.03404 
227 ,45.4808 ,1.44872 ,1.71893 ,16.86615 
228 ,45.6729 ,1.45069 ,1.70182 ,16.69826 
229 ,45.8809 ,1.45276 ,1.68813 ,16.56395 
230 ,46.0728 ,1.45463 ,1.66760 ,16.36248 
231 ,46.2646 ,1.45655 ,1.65733 ,16.26174 
232 ,46.4567 ,1.45853 ,1.64364 ,16.12743 
233 ,46.6648 ,1.46057 ,1.63338 ,16.02669 
234 ,46.9054 ,1.46302 ,1.61627 ,15.85880 
235 ,47.1132 ,1.46511 ,1.60258 ,15.72449 
236 ,47.3213 ,1.46713 ,1.59231 ,15.62375 
237 ,47.5135 ,1.46907 ,1.57178 ,15.42228 
238 ,47.7214 ,1.47118 ,1.56836 ,15.38871 
239 ,47.9300 ,1.47314 ,1.56151 ,15.32155 
240 ,48.1217 ,1.47521 ,1.54098 ,15.12008 
241 ,48.3300 ,1.47726 ,1.51360 ,14.85145 
242 ,48.5381 ,1.47932 ,1.52045 ,14.91861 
243 ,48.7301 ,1.48123 ,1.48280 ,14.54925 
244 ,48.9220 ,1.48314 ,1.47596 ,14.48209 
245 ,49.1143 ,1.48506 ,1.46227 ,14.34778 
246 ,49.3224 ,1.48717 ,1.45542 ,14.28062 
247 ,49.5145 ,1.48907 ,1.45200 ,14.24704 
248 ,49.7066 ,1.49104 ,1.40751 ,13.81053 
249 ,49.9143 ,1.49313 ,1.40751 ,13.81053 
250 ,50.1225 ,1.49519 ,1.40751 ,13.81053 
251 ,50.3625 ,1.49735 ,1.36987 ,13.44116 
252 ,50.5548 ,1.49945 ,1.36987 ,13.44116 
253 ,50.7470 ,1.50143 ,1.35276 ,13.27327 
254 ,50.9546 ,1.50344 ,1.34591 ,13.20612 
255 ,51.1471 ,1.50541 ,1.31169 ,12.87033 
256 ,51.3391 ,1.50732 ,1.32196 ,12.97107 
257 ,51.5313 ,1.50926 ,1.29116 ,12.66886 
258 ,51.7233 ,1.51116 ,1.29116 ,12.66886 
259 ,51.9152 ,1.51310 ,1.29458 ,12.70244 
260 ,52.0915 ,1.51497 ,1.25694 ,12.33308 
261 ,52.2835 ,1.51678 ,1.26378 ,12.40024 
262 ,52.4756 ,1.51867 ,1.23641 ,12.13161 
263 ,52.6677 ,1.52062 ,1.21587 ,11.93014 
264 ,52.8596 ,1.52252 ,1.22272 ,11.99730 
265 ,53.0518 ,1.52444 ,1.18507 ,11.62794 
266 ,53.2599 ,1.52643 ,1.18850 ,11.66151 
267 ,53.4680 ,1.52860 ,1.16112 ,11.39289 
268 ,53.6760 ,1.53071 ,1.17138 ,11.49362 
269 ,53.8681 ,1.53265 ,1.13716 ,11.15784 
270 ,54.0601 ,1.53453 ,1.14401 ,11.22500 
271 ,54.2518 ,1.53644 ,1.11663 ,10.95637 
272 ,54.4444 ,1.53839 ,1.09267 ,10.72132 
273 ,54.6525 ,1.54052 ,1.08583 ,10.65416 
274 ,54.8445 ,1.54236 ,1.08241 ,10.62059 
275 ,55.0527 ,1.54441 ,1.04476 ,10.25123 
276 ,55.2444 ,1.54642 ,1.04476 ,10.25123 
277 ,55.4366 ,1.54833 ,1.04819 ,10.28480 
278 ,55.6450 ,1.55036 ,1.03108 ,10.11691 
279 ,55.8371 ,1.55228 ,1.01739 ,9.98260 
280 ,56.0449 ,1.55440 ,0.99001 ,9.71397 
281 ,56.2530 ,1.55645 ,0.97974 ,9.61324 
282 ,56.4448 ,1.55833 ,0.97290 ,9.54608 
283 ,56.6374 ,1.56031 ,0.96605 ,9.47892 
284 ,56.8454 ,1.56235 ,0.93525 ,9.17672 
285 ,57.0535 ,1.56434 ,0.94894 ,9.31103 
286 ,57.2296 ,1.56633 ,0.92841 ,9.10956 
287 ,57.4217 ,1.56813 ,0.92499 ,9.07598 
288 ,57.6297 ,1.57021 ,0.88392 ,8.67305 
289 ,57.8378 ,1.57232 ,0.88734 ,8.70662 
290 ,58.0300 ,1.57422 ,0.85312 ,8.37084 
291 ,58.2537 ,1.57638 ,0.87366 ,8.57231 
292 ,58.4620 ,1.57852 ,0.85312 ,8.37084 
293 ,58.6540 ,1.58043 ,0.82917 ,8.13579 
294 ,58.8462 ,1.58232 ,0.80863 ,7.93432 
295 ,59.0383 ,1.58432 ,0.80863 ,7.93432 
296 ,59.2459 ,1.58633 ,0.78810 ,7.73285 
297 ,59.4384 ,1.58833 ,0.79495 ,7.80001 
298 ,59.6462 ,1.59035 ,0.76415 ,7.49780 
299 ,59.8385 ,1.59232 ,0.77784 ,7.63212 
300 ,60.0465 ,1.59429 ,0.73677 ,7.22918 
301 ,60.2384 ,1.59627 ,0.73335 ,7.19560 
302 ,60.4468 ,1.59831 ,0.71624 ,7.02771 
303 ,60.6548 ,1.60047 ,0.68544 ,6.72550 
304 ,60.8469 ,1.60236 ,0.68886 ,6.75908 
305 ,61.0551 ,1.60438 ,0.67517 ,6.62477 
306 ,61.2630 ,1.60650 ,0.67175 ,6.59119 
307 ,61.4552 ,1.60846 ,0.65464 ,6.42330 
308 ,61.6630 ,1.61051 ,0.64779 ,6.35614 
309 ,61.8549 ,1.61245 ,0.62384 ,6.12109 
310 ,62.0474 ,1.61437 ,0.62384 ,6.12109 
311 ,62.2554 ,1.61646 ,0.58962 ,5.78531 
312 ,62.4477 ,1.61841 ,0.57251 ,5.61742 
313 ,62.6396 ,1.62029 ,0.59646 ,5.85247 
314 ,62.8318 ,1.62217 ,0.55539 ,5.44953 
315 ,63.0236 ,1.62410 ,0.57935 ,5.68458 
316 ,63.2160 ,1.62603 ,0.55539 ,5.44953 
317 ,63.4238 ,1.62808 ,0.53828 ,5.28164 
318 ,63.6322 ,1.63023 ,0.51775 ,5.08017 
319 ,63.8242 ,1.63219 ,0.51433 ,5.04659 
320 ,64.0319 ,1.63417 ,0.49037 ,4.81154 
321 ,64.2243 ,1.63615 ,0.48353 ,4.74438 
322 ,64.4325 ,1.63818 ,0.46300 ,4.54291 
323 ,64.6243 ,1.64013 ,0.46300 ,4.54291 
324 ,64.8166 ,1.64202 ,0.44588 ,4.37502 
325 ,65.0087 ,1.64396 ,0.45273 ,4.44218 
326 ,65.2008 ,1.64589 ,0.43220 ,4.24071 
327 ,65.3926 ,1.64777 ,0.41166 ,4.03924 
328 ,65.5849 ,1.64969 ,0.41851 ,4.10640 
329 ,65.7771 ,1.65169 ,0.41509 ,4.07282 
330 ,65.9851 ,1.65371 ,0.39455 ,3.87135 
331 ,66.1770 ,1.65570 ,0.36718 ,3.60272 
332 ,66.3692 ,1.65763 ,0.36375 ,3.56914 
333 ,66.5774 ,1.65957 ,0.32953 ,3.23336 
334 ,66.7693 ,1.66157 ,0.33638 ,3.30052 
335 ,66.9615 ,1.66352 ,0.31926 ,3.13263 
336 ,67.1696 ,1.66545 ,0.30215 ,2.96473 
337 ,67.3777 ,1.66768 ,0.29189 ,2.86400 
338 ,67.5854 ,1.66973 ,0.29531 ,2.89758 
339 ,67.7779 ,1.67166 ,0.26793 ,2.62895 
340 ,67.9696 ,1.67358 ,0.26109 ,2.56179 
341 ,68.1619 ,1.67552 ,0.25767 ,2.52822 
342 ,68.3695 ,1.67749 ,0.24055 ,2.36032 
343 ,68.5777 ,1.67960 ,0.23029 ,2.25959 
344 ,68.7698 ,1.68154 ,0.21318 ,2.09170 
345 ,68.9618 ,1.68346 ,0.22687 ,2.22601 
346 ,69.1540 ,1.68536 ,0.17553 ,1.72234 
347 ,69.3461 ,1.68731 ,0.18580 ,1.82307 
348 ,69.5381 ,1.68919 ,0.18238 ,1.78949 
349 ,69.7303 ,1.69113 ,0.15842 ,1.55445 
350 ,69.9223 ,1.69308 ,0.17211 ,1.68876 
351 ,70.1143 ,1.69502 ,0.15500 ,1.52087 
352 ,70.3065 ,1.69687 ,0.13789 ,1.35298 
353 ,70.4985 ,1.69884 ,0.12762 ,1.25224 
354 ,70.6906 ,1.70082 ,0.10709 ,1.05077 
355 ,70.8665 ,1.70266 ,0.10367 ,1.01719 
356 ,71.0588 ,1.70444 ,0.09340 ,0.91646 
357 ,71.2508 ,1.70635 ,0.07629 ,0.74857 
358 ,71.4428 ,1.70827 ,0.08998 ,0.88288 
359 ,71.6350 ,1.71024 ,0.05234 ,0.51352 
360 ,71.8430 ,1.71223 ,0.05918 ,0.58067 
361 ,72.0352 ,1.71419 ,0.03180 ,0.31205 
362 ,72.2272 ,1.71613 ,0.03522 ,0.34563 
363 ,72.4193 ,1.71804 ,0.02154 ,0.21131 
364 ,72.6115 ,1.71995 ,0.00100 ,0.00984 
365 ,72.8036 ,1.72193 ,0.00443 ,0.04342 
366 ,72.9959 ,1.72388 ,-0.01611 ,-0.15805 
367 ,73.2041 ,1.72591 ,-0.01269 ,-0.12447 
368 ,73.3960 ,1.72785 ,-0.02980 ,-0.29236 
369 ,73.5881 ,1.72975 ,-0.03664 ,-0.35952 
370 ,73.7802 ,1.73166 ,-0.05717 ,-0.56099 
371 ,73.9724 ,1.73356 ,-0.07428 ,-0.72888 
372 ,74.1806 ,1.73566 ,-0.07771 ,-0.76246 
373 ,74.3725 ,1.73757 ,-0.08797 ,-0.86319 
374 ,74.5645 ,1.73945 ,-0.07771 ,-0.76246 
375 ,74.7567 ,1.74143 ,-0.10166 ,-0.99751 
376 ,74.9483 ,1.74328 ,-0.10851 ,-1.06466 
377 ,75.1408 ,1.74525 ,-0.11535 ,-1.13182 
378 ,75.3165 ,1.74711 ,-0.14957 ,-1.46760 
379 ,75.5090 ,1.74895 ,-0.13588 ,-1.33329 
380 ,75.7172 ,1.75099 ,-0.15642 ,-1.53476 
381 ,75.9092 ,1.75296 ,-0.16326 ,-1.60191 
382 ,76.1012 ,1.75484 ,-0.18037 ,-1.76981 
383 ,76.2934 ,1.75679 ,-0.19748 ,-1.93770 
384 ,76.4855 ,1.75867 ,-0.18037 ,-1.76981 
385 ,76.6936 ,1.76077 ,-0.21117 ,-2.07201 
386 ,76.8854 ,1.76270 ,-0.20775 ,-2.03843 
387 ,77.0933 ,1.76477 ,-0.22828 ,-2.23990 
388 ,77.2858 ,1.76676 ,-0.22144 ,-2.17275 
389 ,77.4937 ,1.76882 ,-0.26250 ,-2.57569 
390 ,77.7020 ,1.77086 ,-0.25566 ,-2.50853 
391 ,77.9101 ,1.77281 ,-0.26593 ,-2.60926 
392 ,78.1179 ,1.77495 ,-0.27619 ,-2.71000 
393 ,78.3263 ,1.77710 ,-0.27961 ,-2.74358 
394 ,78.5183 ,1.77902 ,-0.30357 ,-2.97863 
395 ,78.7102 ,1.78094 ,-0.29673 ,-2.91147 
396 ,78.9026 ,1.78284 ,-0.31726 ,-3.11294 
397 ,79.0945 ,1.78478 ,-0.33779 ,-3.31441 
398 ,79.3022 ,1.78680 ,-0.33779 ,-3.31441 
399 ,79.4946 ,1.78883 ,-0.35490 ,-3.48230 
400 ,79.7027 ,1.79083 ,-0.34806 ,-3.41514 
401 ,79.8949 ,1.79275 ,-0.38228 ,-3.75093 
402 ,80.0869 ,1.79470 ,-0.36517 ,-3.58303 
403 ,80.2950 ,1.79670 ,-0.38912 ,-3.81808 
404 ,80.4869 ,1.79876 ,-0.38912 ,-3.81808 
405 ,80.6950 ,1.80080 ,-0.41308 ,-4.05313 
406 ,80.9031 ,1.80282 ,-0.40623 ,-3.98597 
407 ,81.0952 ,1.80477 ,-0.43361 ,-4.25460 
408 ,81.2873 ,1.80668 ,-0.42335 ,-4.15387 
409 ,81.4790 ,1.80861 ,-0.45072 ,-4.42249 
410 ,81.6715 ,1.81056 ,-0.45414 ,-4.45607 
411 ,81.8634 ,1.81243 ,-0.44730 ,-4.38891 
412 ,82.0557 ,1.81438 ,-0.48152 ,-4.72470 
413 ,82.2475 ,1.81630 ,-0.47810 ,-4.69112 
414 ,82.4399 ,1.81824 ,-0.48837 ,-4.79185 
415 ,82.6639 ,1.82043 ,-0.49179 ,-4.82543 
416 ,82.8720 ,1.82253 ,-0.52601 ,-5.16121 
417 ,83.0802 ,1.82452 ,-0.50548 ,-4.95975 
418 ,83.2723 ,1.82652 ,-0.53285 ,-5.22837 
419 ,83.4643 ,1.82840 ,-0.52601 ,-5.16121 
420 ,83.6560 ,1.83034 ,-0.54997 ,-5.39626 
421 ,83.8485 ,1.83232 ,-0.55339 ,-5.42984 
422 ,84.0565 ,1.83441 ,-0.56365 ,-5.53058 
423 ,84.2489 ,1.83630 ,-0.58077 ,-5.69847 
424 ,84.4728 ,1.83846 ,-0.59445 ,-5.83278 
425 ,84.6808 ,1.84065 ,-0.58761 ,-5.76562 
426 ,84.9050 ,1.84272 ,-0.60130 ,-5.89994 
427 ,85.1128 ,1.84496 ,-0.61156 ,-6.00067 
428 ,85.3050 ,1.84681 ,-0.62183 ,-6.10141 
429 ,85.4972 ,1.84876 ,-0.63210 ,-6.20214 
430 ,85.7051 ,1.85078 ,-0.64236 ,-6.30288 
431 ,85.9130 ,1.85289 ,-0.65947 ,-6.47077 
432 ,86.1052 ,1.85484 ,-0.63894 ,-6.26930 
433 ,86.3134 ,1.85697 ,-0.68001 ,-6.67224 
434 ,86.5695 ,1.85935 ,-0.68685 ,-6.73940 
435 ,86.7776 ,1.86159 ,-0.69370 ,-6.80655 
436 ,86.9697 ,1.86350 ,-0.69712 ,-6.84013 
437 ,87.1778 ,1.86560 ,-0.72107 ,-7.07518 
438 ,87.3858 ,1.86764 ,-0.71765 ,-7.04160 
439 ,87.5780 ,1.86961 ,-0.72450 ,-7.10876 
440 ,87.7860 ,1.87169 ,-0.72450 ,-7.10876 
441 ,87.9938 ,1.87367 ,-0.75187 ,-7.37738 
442 ,88.2018 ,1.87577 ,-0.75530 ,-7.41096 
443 ,88.3778 ,1.87767 ,-0.77583 ,-7.61243 
444 ,88.5703 ,1.87946 ,-0.77241 ,-7.57885 
445 ,88.7624 ,1.88138 ,-0.76214 ,-7.47812 
446 ,88.9544 ,1.88335 ,-0.80321 ,-7.88106 
447 ,89.1626 ,1.88541 ,-0.79636 ,-7.81390 
448 ,89.3701 ,1.88748 ,-0.81689 ,-8.01537 
449 ,89.5944 ,1.88969 ,-0.82716 ,-8.11611 
450 ,89.7868 ,1.89159 ,-0.82032 ,-8.04895 
451 ,89.9948 ,1.89376 ,-0.84085 ,-8.25042 
452 ,90.1863 ,1.89583 ,-0.85112 ,-8.35115 
453 ,90.3791 ,1.89758 ,-0.85112 ,-8.35115 
454 ,90.5871 ,1.89963 ,-0.85112 ,-8.35115 
455 ,90.7790 ,1.90156 ,-0.88192 ,-8.65336 
456 ,90.9873 ,1.90367 ,-0.87849 ,-8.61978 
457 ,91.1794 ,1.90562 ,-0.87507 ,-8.58620 
458 ,91.3874 ,1.90765 ,-0.89560 ,-8.78767 
459 ,91.5954 ,1.90969 ,-0.91956 ,-9.02272 
460 ,91.7876 ,1.91164 ,-0.90587 ,-8.88841 
461 ,91.9956 ,1.91367 ,-0.94351 ,-9.25777 
462 ,92.2197 ,1.91584 ,-0.92640 ,-9.08988 
463 ,92.4114 ,1.91788 ,-0.95378 ,-9.35850 
