Data stamp = , 02-05-2022 03:48:44 470

Calibration Values: 
Slope = , 26.54 , g/V 
Offset Voltage at no contact = , -0.501760 , V 

No , Time , Stage Position ,   Mass , Force 
   ,  (s) ,      (mm)      ,   (g)  , (mN)  

1 ,0.0000 ,0.99948 ,5.36696 ,52.66062 
2 ,0.2304 ,0.99958 ,5.35327 ,52.52631 
3 ,0.5986 ,1.00066 ,5.35327 ,52.52631 
4 ,0.8068 ,1.00240 ,5.36012 ,52.59346 
5 ,1.0149 ,1.00427 ,5.35327 ,52.52631 
6 ,1.2070 ,1.00627 ,5.34301 ,52.42557 
7 ,1.3990 ,1.00815 ,5.33958 ,52.39199 
8 ,1.6229 ,1.01039 ,5.31221 ,52.12337 
9 ,1.8310 ,1.01242 ,5.31905 ,52.19052 
10 ,2.0235 ,1.01446 ,5.27456 ,51.75401 
11 ,2.2316 ,1.01657 ,5.26087 ,51.61969 
12 ,2.4397 ,1.01853 ,5.24034 ,51.41822 
13 ,2.6474 ,1.02071 ,5.21639 ,51.18317 
14 ,2.8396 ,1.02264 ,5.20270 ,51.04886 
15 ,3.0477 ,1.02471 ,5.17532 ,50.78023 
16 ,3.2399 ,1.02660 ,5.16163 ,50.64592 
17 ,3.4318 ,1.02855 ,5.15136 ,50.54519 
18 ,3.6240 ,1.03043 ,5.12056 ,50.24298 
19 ,3.8316 ,1.03249 ,5.11030 ,50.14225 
20 ,4.0242 ,1.03441 ,5.08292 ,49.87362 
21 ,4.2161 ,1.03638 ,5.08292 ,49.87362 
22 ,4.4084 ,1.03829 ,5.04528 ,49.50426 
23 ,4.6000 ,1.04027 ,5.03843 ,49.43710 
24 ,4.7926 ,1.04214 ,5.01790 ,49.23563 
25 ,4.9844 ,1.04403 ,4.98368 ,48.89985 
26 ,5.2087 ,1.04619 ,4.96999 ,48.76554 
27 ,5.4008 ,1.04820 ,4.95972 ,48.66480 
28 ,5.5929 ,1.05013 ,4.94261 ,48.49691 
29 ,5.8007 ,1.05221 ,4.91866 ,48.26186 
30 ,5.9925 ,1.05410 ,4.90497 ,48.12755 
31 ,6.1849 ,1.05603 ,4.86732 ,47.75819 
32 ,6.3932 ,1.05813 ,4.87075 ,47.79177 
33 ,6.6007 ,1.06023 ,4.84679 ,47.55672 
34 ,6.7934 ,1.06214 ,4.82968 ,47.38883 
35 ,6.9855 ,1.06409 ,4.79204 ,47.01946 
36 ,7.1774 ,1.06598 ,4.79204 ,47.01946 
37 ,7.3695 ,1.06794 ,4.75097 ,46.61653 
38 ,7.5772 ,1.06993 ,4.75782 ,46.68368 
39 ,7.7697 ,1.07190 ,4.73728 ,46.48221 
40 ,7.9777 ,1.07399 ,4.72702 ,46.38148 
41 ,8.1694 ,1.07588 ,4.68595 ,45.97854 
42 ,8.3620 ,1.07785 ,4.67226 ,45.84422 
43 ,8.5700 ,1.07992 ,4.65173 ,45.64275 
44 ,8.7619 ,1.08180 ,4.63119 ,45.44128 
45 ,8.9543 ,1.08375 ,4.63119 ,45.44128 
46 ,9.1463 ,1.08572 ,4.59697 ,45.10550 
47 ,9.3539 ,1.08773 ,4.59013 ,45.03835 
48 ,9.5463 ,1.08963 ,4.55933 ,44.73614 
49 ,9.7546 ,1.09174 ,4.55591 ,44.70256 
50 ,9.9464 ,1.09365 ,4.51826 ,44.33320 
51 ,10.1706 ,1.09575 ,4.52853 ,44.43394 
52 ,10.3941 ,1.09805 ,4.49773 ,44.13173 
53 ,10.5864 ,1.10003 ,4.47035 ,43.86310 
54 ,10.7787 ,1.10191 ,4.47378 ,43.89668 
55 ,10.9870 ,1.10404 ,4.42586 ,43.42659 
56 ,11.1627 ,1.10595 ,4.42244 ,43.39301 
57 ,11.3549 ,1.10768 ,4.41560 ,43.32585 
58 ,11.5470 ,1.10965 ,4.38822 ,43.05723 
59 ,11.7390 ,1.11163 ,4.38138 ,42.99007 
60 ,11.9311 ,1.11350 ,4.36084 ,42.78860 
61 ,12.1393 ,1.11558 ,4.34716 ,42.65429 
62 ,12.3474 ,1.11758 ,4.31293 ,42.31850 
63 ,12.5551 ,1.11961 ,4.29924 ,42.18419 
64 ,12.7477 ,1.12163 ,4.27529 ,41.94914 
65 ,12.9717 ,1.12386 ,4.25476 ,41.74767 
66 ,13.1638 ,1.12580 ,4.23422 ,41.54620 
67 ,13.3558 ,1.12774 ,4.24107 ,41.61336 
68 ,13.5481 ,1.12965 ,4.19316 ,41.14326 
69 ,13.7561 ,1.13175 ,4.19316 ,41.14326 
70 ,13.9639 ,1.13380 ,4.16578 ,40.87464 
71 ,14.1722 ,1.13590 ,4.16236 ,40.84106 
72 ,14.3642 ,1.13781 ,4.13156 ,40.53885 
73 ,14.5723 ,1.13990 ,4.13156 ,40.53885 
74 ,14.7639 ,1.14178 ,4.10076 ,40.23665 
75 ,14.9726 ,1.14392 ,4.09391 ,40.16949 
76 ,15.1807 ,1.14599 ,4.06654 ,39.90087 
77 ,15.3723 ,1.14790 ,4.05969 ,39.83371 
78 ,15.5642 ,1.14978 ,4.03574 ,39.59866 
79 ,15.7565 ,1.15172 ,4.02889 ,39.53150 
80 ,15.9485 ,1.15367 ,4.00152 ,39.26288 
81 ,16.1568 ,1.15562 ,3.99125 ,39.16214 
82 ,16.3648 ,1.15777 ,3.96387 ,38.89352 
83 ,16.5570 ,1.15969 ,3.97414 ,38.99425 
84 ,16.7494 ,1.16169 ,3.91938 ,38.45700 
85 ,16.9569 ,1.16373 ,3.91938 ,38.45700 
86 ,17.1655 ,1.16572 ,3.89885 ,38.25553 
87 ,17.3574 ,1.16771 ,3.89543 ,38.22195 
88 ,17.5654 ,1.16981 ,3.84752 ,37.75185 
89 ,17.7732 ,1.17192 ,3.83383 ,37.61754 
90 ,17.9819 ,1.17399 ,3.81672 ,37.44965 
91 ,18.1899 ,1.17600 ,3.80987 ,37.38249 
92 ,18.3980 ,1.17811 ,3.78934 ,37.18102 
93 ,18.6060 ,1.18020 ,3.76881 ,36.97955 
94 ,18.7981 ,1.18217 ,3.76539 ,36.94597 
95 ,18.9902 ,1.18403 ,3.73459 ,36.64377 
96 ,19.1658 ,1.18591 ,3.73459 ,36.64377 
97 ,19.3585 ,1.18773 ,3.70037 ,36.30799 
98 ,19.5663 ,1.18980 ,3.66957 ,36.00578 
99 ,19.7585 ,1.19171 ,3.68325 ,36.14010 
100 ,19.9666 ,1.19380 ,3.64903 ,35.80431 
101 ,20.1588 ,1.19571 ,3.64561 ,35.77073 
102 ,20.3667 ,1.19783 ,3.60797 ,35.40137 
103 ,20.5747 ,1.19989 ,3.60797 ,35.40137 
104 ,20.7668 ,1.20180 ,3.57375 ,35.06559 
105 ,20.9594 ,1.20372 ,3.57717 ,35.09917 
106 ,21.1347 ,1.20562 ,3.55321 ,34.86412 
107 ,21.3427 ,1.20750 ,3.52926 ,34.62907 
108 ,21.5512 ,1.20963 ,3.51215 ,34.46118 
109 ,21.8073 ,1.21210 ,3.50530 ,34.39402 
110 ,22.0154 ,1.21432 ,3.48477 ,34.19255 
111 ,22.2236 ,1.21642 ,3.46766 ,34.02466 
112 ,22.4631 ,1.21859 ,3.43686 ,33.72246 
113 ,22.6557 ,1.22072 ,3.43344 ,33.68888 
114 ,22.8638 ,1.22261 ,3.40606 ,33.42025 
115 ,23.0719 ,1.22487 ,3.39579 ,33.31952 
116 ,23.2640 ,1.22680 ,3.35130 ,32.88300 
117 ,23.4719 ,1.22885 ,3.36157 ,32.98374 
118 ,23.6639 ,1.23076 ,3.33762 ,32.74869 
119 ,23.8562 ,1.23268 ,3.33419 ,32.71511 
120 ,24.0482 ,1.23462 ,3.29655 ,32.34575 
121 ,24.2403 ,1.23652 ,3.29655 ,32.34575 
122 ,24.4324 ,1.23847 ,3.27944 ,32.17786 
123 ,24.6242 ,1.24032 ,3.24522 ,31.84207 
124 ,24.8167 ,1.24229 ,3.24522 ,31.84207 
125 ,25.0246 ,1.24436 ,3.21100 ,31.50629 
126 ,25.2169 ,1.24627 ,3.23153 ,31.70776 
127 ,25.4246 ,1.24840 ,3.18020 ,31.20409 
128 ,25.6170 ,1.25028 ,3.18704 ,31.27124 
129 ,25.8089 ,1.25224 ,3.15966 ,31.00262 
130 ,26.0012 ,1.25420 ,3.14940 ,30.90188 
131 ,26.2090 ,1.25625 ,3.12544 ,30.66683 
132 ,26.4173 ,1.25829 ,3.12202 ,30.63325 
133 ,26.6090 ,1.26026 ,3.08438 ,30.26389 
134 ,26.8331 ,1.26226 ,3.07411 ,30.16316 
135 ,27.0416 ,1.26440 ,3.04673 ,29.89453 
136 ,27.2495 ,1.26667 ,3.04673 ,29.89453 
137 ,27.4576 ,1.26861 ,3.03647 ,29.79380 
138 ,27.6653 ,1.27073 ,2.99882 ,29.42444 
139 ,27.8579 ,1.27265 ,3.01251 ,29.55875 
140 ,28.0500 ,1.27463 ,2.96460 ,29.08865 
141 ,28.2581 ,1.27673 ,2.97487 ,29.18939 
142 ,28.4503 ,1.27861 ,2.93722 ,28.82003 
143 ,28.6744 ,1.28078 ,2.93380 ,28.78645 
144 ,28.8663 ,1.28278 ,2.90300 ,28.48424 
145 ,29.0741 ,1.28482 ,2.89273 ,28.38351 
146 ,29.2665 ,1.28677 ,2.87905 ,28.24919 
147 ,29.4589 ,1.28871 ,2.87220 ,28.18204 
148 ,29.6507 ,1.29062 ,2.85509 ,28.01415 
149 ,29.8745 ,1.29279 ,2.84482 ,27.91341 
150 ,30.0665 ,1.29475 ,2.81402 ,27.61121 
151 ,30.2591 ,1.29673 ,2.81402 ,27.61121 
152 ,30.4670 ,1.29880 ,2.77296 ,27.20827 
153 ,30.6593 ,1.30074 ,2.77980 ,27.27542 
154 ,30.8511 ,1.30268 ,2.74900 ,26.97322 
155 ,31.0594 ,1.30470 ,2.74216 ,26.90606 
156 ,31.2509 ,1.30660 ,2.73189 ,26.80533 
157 ,31.4434 ,1.30851 ,2.71136 ,26.60386 
158 ,31.6515 ,1.31065 ,2.68740 ,26.36881 
159 ,31.8436 ,1.31250 ,2.67029 ,26.20092 
160 ,32.0516 ,1.31463 ,2.65318 ,26.03303 
161 ,32.2437 ,1.31654 ,2.64292 ,25.93229 
162 ,32.4358 ,1.31851 ,2.63949 ,25.89871 
163 ,32.6438 ,1.32053 ,2.60869 ,25.59651 
164 ,32.8359 ,1.32251 ,2.61212 ,25.63009 
165 ,33.0277 ,1.32436 ,2.57105 ,25.22715 
166 ,33.2362 ,1.32636 ,2.57789 ,25.29430 
167 ,33.4443 ,1.32850 ,2.55394 ,25.05926 
168 ,33.6363 ,1.33043 ,2.54367 ,24.95852 
169 ,33.8445 ,1.33256 ,2.52314 ,24.75705 
170 ,34.0685 ,1.33477 ,2.49234 ,24.45485 
171 ,34.2764 ,1.33686 ,2.48207 ,24.35411 
172 ,34.4842 ,1.33888 ,2.46839 ,24.21980 
173 ,34.6768 ,1.34088 ,2.45812 ,24.11906 
174 ,34.9009 ,1.34311 ,2.44101 ,23.95117 
175 ,35.0928 ,1.34503 ,2.42732 ,23.81686 
176 ,35.3171 ,1.34715 ,2.41363 ,23.68255 
177 ,35.5093 ,1.34917 ,2.38968 ,23.44750 
178 ,35.7492 ,1.35142 ,2.37599 ,23.31318 
179 ,35.9575 ,1.35369 ,2.36572 ,23.21245 
180 ,36.1493 ,1.35561 ,2.33492 ,22.91024 
181 ,36.3575 ,1.35768 ,2.33492 ,22.91024 
182 ,36.5654 ,1.35974 ,2.31439 ,22.70877 
183 ,36.7735 ,1.36177 ,2.30754 ,22.64162 
184 ,36.9656 ,1.36375 ,2.27332 ,22.30584 
185 ,37.1578 ,1.36566 ,2.28017 ,22.37299 
186 ,37.3499 ,1.36761 ,2.24252 ,22.00363 
187 ,37.5579 ,1.36967 ,2.24594 ,22.03721 
188 ,37.7656 ,1.37162 ,2.22199 ,21.80216 
189 ,37.9581 ,1.37366 ,2.22541 ,21.83574 
190 ,38.1659 ,1.37569 ,2.19119 ,21.49996 
191 ,38.3584 ,1.37768 ,2.18092 ,21.39922 
192 ,38.5501 ,1.37961 ,2.15355 ,21.13059 
193 ,38.7424 ,1.38149 ,2.15355 ,21.13059 
194 ,38.9824 ,1.38389 ,2.12959 ,20.89555 
195 ,39.2065 ,1.38611 ,2.09537 ,20.55976 
196 ,39.3987 ,1.38806 ,2.11932 ,20.79481 
197 ,39.6063 ,1.39014 ,2.07484 ,20.35829 
198 ,39.7988 ,1.39202 ,2.06115 ,20.22398 
199 ,39.9906 ,1.39393 ,2.05773 ,20.19040 
200 ,40.1830 ,1.39590 ,2.05430 ,20.15682 
201 ,40.3911 ,1.39797 ,2.02008 ,19.82104 
202 ,40.5832 ,1.39988 ,2.01666 ,19.78746 
203 ,40.8074 ,1.40205 ,1.98586 ,19.48526 
204 ,40.9993 ,1.40402 ,1.98586 ,19.48526 
205 ,41.1753 ,1.40597 ,1.96190 ,19.25021 
206 ,41.3674 ,1.40777 ,1.94822 ,19.11590 
207 ,41.5435 ,1.40963 ,1.96190 ,19.25021 
208 ,41.7351 ,1.41140 ,1.93111 ,18.94801 
209 ,41.9598 ,1.41368 ,1.93111 ,18.94801 
210 ,42.1516 ,1.41559 ,1.89346 ,18.57864 
211 ,42.3602 ,1.41771 ,1.89004 ,18.54507 
212 ,42.5677 ,1.41972 ,1.86951 ,18.34360 
213 ,42.7602 ,1.42163 ,1.86266 ,18.27644 
214 ,42.9681 ,1.42374 ,1.83871 ,18.04139 
215 ,43.1761 ,1.42578 ,1.84213 ,18.07497 
216 ,43.3519 ,1.42768 ,1.80106 ,17.67203 
217 ,43.5443 ,1.42948 ,1.79764 ,17.63845 
218 ,43.7203 ,1.43139 ,1.78395 ,17.50414 
219 ,43.9126 ,1.43320 ,1.76342 ,17.30267 
220 ,44.1046 ,1.43512 ,1.76342 ,17.30267 
221 ,44.3128 ,1.43719 ,1.74631 ,17.13478 
222 ,44.5208 ,1.43934 ,1.74631 ,17.13478 
223 ,44.7129 ,1.44116 ,1.70866 ,16.76542 
224 ,44.9369 ,1.44327 ,1.71209 ,16.79899 
225 ,45.1446 ,1.44550 ,1.68129 ,16.49679 
226 ,45.3372 ,1.44744 ,1.67786 ,16.46321 
227 ,45.5286 ,1.44945 ,1.66418 ,16.32890 
228 ,45.7210 ,1.45129 ,1.65391 ,16.22816 
229 ,45.9295 ,1.45324 ,1.62995 ,15.99311 
230 ,46.1215 ,1.45528 ,1.62311 ,15.92596 
231 ,46.3452 ,1.45737 ,1.59231 ,15.62375 
232 ,46.5377 ,1.45941 ,1.60600 ,15.75807 
233 ,46.7453 ,1.46145 ,1.56151 ,15.32155 
234 ,46.9538 ,1.46360 ,1.55124 ,15.22081 
235 ,47.1459 ,1.46553 ,1.54098 ,15.12008 
236 ,47.3538 ,1.46751 ,1.53413 ,15.05292 
237 ,47.5460 ,1.46948 ,1.51360 ,14.85145 
238 ,47.7538 ,1.47152 ,1.50333 ,14.75072 
239 ,47.9460 ,1.47347 ,1.48622 ,14.58283 
240 ,48.1382 ,1.47541 ,1.48280 ,14.54925 
241 ,48.3463 ,1.47744 ,1.46569 ,14.38136 
242 ,48.5704 ,1.47973 ,1.43489 ,14.07915 
243 ,48.7781 ,1.48180 ,1.43831 ,14.11273 
244 ,48.9703 ,1.48375 ,1.41094 ,13.84410 
245 ,49.1784 ,1.48586 ,1.40751 ,13.81053 
246 ,49.3866 ,1.48784 ,1.39040 ,13.64263 
247 ,49.5788 ,1.48980 ,1.39040 ,13.64263 
248 ,49.7705 ,1.49174 ,1.37329 ,13.47474 
249 ,49.9631 ,1.49366 ,1.35960 ,13.34043 
250 ,50.1709 ,1.49574 ,1.34249 ,13.17254 
251 ,50.3630 ,1.49778 ,1.33565 ,13.10538 
252 ,50.5549 ,1.49958 ,1.31512 ,12.90391 
253 ,50.7633 ,1.50169 ,1.31169 ,12.87033 
254 ,50.9551 ,1.50357 ,1.30143 ,12.76960 
255 ,51.1635 ,1.50560 ,1.28774 ,12.63528 
256 ,51.3714 ,1.50775 ,1.26036 ,12.36666 
257 ,51.5635 ,1.50966 ,1.26036 ,12.36666 
258 ,51.7714 ,1.51162 ,1.24667 ,12.23235 
259 ,51.9637 ,1.51369 ,1.23641 ,12.13161 
260 ,52.1553 ,1.51554 ,1.20561 ,11.82941 
261 ,52.3479 ,1.51752 ,1.18507 ,11.62794 
262 ,52.5400 ,1.51941 ,1.19534 ,11.72867 
263 ,52.7321 ,1.52137 ,1.17138 ,11.49362 
264 ,52.9402 ,1.52345 ,1.16454 ,11.42647 
265 ,53.1323 ,1.52535 ,1.13374 ,11.12426 
266 ,53.3404 ,1.52740 ,1.14058 ,11.19142 
267 ,53.5485 ,1.52950 ,1.11663 ,10.95637 
268 ,53.7724 ,1.53157 ,1.12005 ,10.98995 
269 ,53.9804 ,1.53380 ,1.10979 ,10.88921 
270 ,54.1725 ,1.53574 ,1.08583 ,10.65416 
271 ,54.3646 ,1.53765 ,1.06530 ,10.45270 
272 ,54.5570 ,1.53959 ,1.06872 ,10.48627 
273 ,54.7489 ,1.54154 ,1.03792 ,10.18407 
274 ,54.9568 ,1.54352 ,1.02423 ,10.04976 
275 ,55.1649 ,1.54565 ,1.01739 ,9.98260 
276 ,55.3573 ,1.54760 ,0.99685 ,9.78113 
277 ,55.5651 ,1.54966 ,0.98317 ,9.64682 
278 ,55.7731 ,1.55174 ,0.96948 ,9.51250 
279 ,55.9653 ,1.55367 ,0.95921 ,9.41177 
280 ,56.1576 ,1.55553 ,0.96263 ,9.44535 
281 ,56.3497 ,1.55754 ,0.93183 ,9.14314 
282 ,56.5576 ,1.55958 ,0.93868 ,9.21030 
283 ,56.7498 ,1.56151 ,0.91130 ,8.94167 
284 ,56.9900 ,1.56390 ,0.89419 ,8.77378 
285 ,57.1980 ,1.56603 ,0.89761 ,8.80736 
286 ,57.3739 ,1.56788 ,0.86681 ,8.50515 
287 ,57.5817 ,1.56977 ,0.87023 ,8.53873 
288 ,57.7739 ,1.57177 ,0.85312 ,8.37084 
289 ,57.9662 ,1.57364 ,0.83601 ,8.20295 
290 ,58.1586 ,1.57560 ,0.84286 ,8.27011 
291 ,58.3660 ,1.57760 ,0.81206 ,7.96790 
292 ,58.5585 ,1.57957 ,0.81548 ,8.00148 
293 ,58.7505 ,1.58151 ,0.78468 ,7.69927 
294 ,58.9428 ,1.58346 ,0.78126 ,7.66570 
295 ,59.1347 ,1.58537 ,0.76415 ,7.49780 
296 ,59.3429 ,1.58745 ,0.77441 ,7.59854 
297 ,59.5510 ,1.58948 ,0.73677 ,7.22918 
298 ,59.7427 ,1.59156 ,0.72992 ,7.16202 
299 ,59.9832 ,1.59382 ,0.72992 ,7.16202 
300 ,60.1909 ,1.59585 ,0.69228 ,6.79266 
301 ,60.3832 ,1.59783 ,0.69228 ,6.79266 
302 ,60.5753 ,1.59976 ,0.69570 ,6.82624 
303 ,60.7672 ,1.60165 ,0.67175 ,6.59119 
304 ,60.9435 ,1.60353 ,0.66833 ,6.55761 
305 ,61.1356 ,1.60537 ,0.65464 ,6.42330 
306 ,61.3435 ,1.60739 ,0.63068 ,6.18825 
307 ,61.5357 ,1.60936 ,0.62384 ,6.12109 
308 ,61.7276 ,1.61130 ,0.60330 ,5.91962 
309 ,61.9199 ,1.61321 ,0.61357 ,6.02036 
310 ,62.1441 ,1.61531 ,0.57935 ,5.68458 
311 ,62.3522 ,1.61755 ,0.56224 ,5.51668 
312 ,62.5438 ,1.61943 ,0.56908 ,5.58384 
313 ,62.7521 ,1.62152 ,0.54171 ,5.31522 
314 ,62.9444 ,1.62343 ,0.53144 ,5.21448 
315 ,63.1360 ,1.62538 ,0.52802 ,5.18090 
316 ,63.3607 ,1.62745 ,0.51091 ,5.01301 
317 ,63.5685 ,1.62968 ,0.49722 ,4.87870 
318 ,63.7609 ,1.63160 ,0.49722 ,4.87870 
319 ,63.9685 ,1.63366 ,0.47668 ,4.67723 
320 ,64.1604 ,1.63558 ,0.47668 ,4.67723 
321 ,64.3689 ,1.63764 ,0.44246 ,4.34144 
322 ,64.5771 ,1.63972 ,0.45273 ,4.44218 
323 ,64.7690 ,1.64172 ,0.42535 ,4.17355 
324 ,64.9613 ,1.64364 ,0.42193 ,4.13997 
325 ,65.1692 ,1.64567 ,0.39455 ,3.87135 
326 ,65.3616 ,1.64761 ,0.41166 ,4.03924 
327 ,65.5693 ,1.64966 ,0.37060 ,3.63630 
328 ,65.7617 ,1.65154 ,0.37744 ,3.70346 
329 ,65.9535 ,1.65354 ,0.36375 ,3.56914 
330 ,66.1455 ,1.65536 ,0.35349 ,3.46841 
331 ,66.3376 ,1.65737 ,0.36033 ,3.53557 
332 ,66.5459 ,1.65938 ,0.33980 ,3.33410 
333 ,66.7537 ,1.66153 ,0.31584 ,3.09905 
334 ,66.9460 ,1.66346 ,0.31242 ,3.06547 
335 ,67.1542 ,1.66549 ,0.30900 ,3.03189 
336 ,67.3460 ,1.66740 ,0.27820 ,2.72969 
337 ,67.5383 ,1.66932 ,0.29189 ,2.86400 
338 ,67.7302 ,1.67126 ,0.27135 ,2.66253 
339 ,67.9224 ,1.67320 ,0.27135 ,2.66253 
340 ,68.1305 ,1.67527 ,0.24055 ,2.36032 
341 ,68.3386 ,1.67721 ,0.23371 ,2.29317 
342 ,68.5462 ,1.67943 ,0.21660 ,2.12528 
343 ,68.7388 ,1.68135 ,0.23371 ,2.29317 
344 ,68.9630 ,1.68348 ,0.19949 ,1.95738 
345 ,69.1710 ,1.68565 ,0.18238 ,1.78949 
346 ,69.3630 ,1.68754 ,0.17553 ,1.72234 
347 ,69.5550 ,1.68950 ,0.17553 ,1.72234 
348 ,69.7471 ,1.69141 ,0.15158 ,1.48729 
349 ,69.9393 ,1.69333 ,0.16185 ,1.58802 
350 ,70.1473 ,1.69536 ,0.12420 ,1.21866 
351 ,70.3391 ,1.69738 ,0.13789 ,1.35298 
352 ,70.5315 ,1.69926 ,0.11051 ,1.08435 
353 ,70.7232 ,1.70119 ,0.11393 ,1.11793 
354 ,70.9156 ,1.70311 ,0.09682 ,0.95004 
355 ,71.1238 ,1.70519 ,0.07287 ,0.71499 
356 ,71.3157 ,1.70709 ,0.07287 ,0.71499 
357 ,71.5079 ,1.70906 ,0.06260 ,0.61425 
358 ,71.7001 ,1.71098 ,0.05918 ,0.58067 
359 ,71.9241 ,1.71309 ,0.03522 ,0.34563 
360 ,72.1162 ,1.71508 ,0.04891 ,0.47994 
361 ,72.3244 ,1.71715 ,0.01811 ,0.17773 
362 ,72.5321 ,1.71927 ,0.01811 ,0.17773 
363 ,72.7245 ,1.72120 ,-0.00584 ,-0.05731 
364 ,72.9161 ,1.72309 ,0.00443 ,0.04342 
365 ,73.1404 ,1.72519 ,-0.01953 ,-0.19163 
366 ,73.3327 ,1.72726 ,-0.04006 ,-0.39310 
367 ,73.5409 ,1.72929 ,-0.04006 ,-0.39310 
368 ,73.7330 ,1.73127 ,-0.04691 ,-0.46025 
369 ,73.9409 ,1.73340 ,-0.06744 ,-0.66172 
370 ,74.1491 ,1.73540 ,-0.07428 ,-0.72888 
371 ,74.3571 ,1.73744 ,-0.07771 ,-0.76246 
372 ,74.5649 ,1.73958 ,-0.10166 ,-0.99751 
373 ,74.7731 ,1.74155 ,-0.09140 ,-0.89677 
374 ,74.9814 ,1.74363 ,-0.12562 ,-1.23255 
375 ,75.1731 ,1.74566 ,-0.12219 ,-1.19898 
376 ,75.3652 ,1.74754 ,-0.14273 ,-1.40045 
377 ,75.5572 ,1.74952 ,-0.14273 ,-1.40045 
378 ,75.7493 ,1.75146 ,-0.15984 ,-1.56834 
379 ,75.9415 ,1.75332 ,-0.18379 ,-1.80338 
380 ,76.1339 ,1.75525 ,-0.16326 ,-1.60191 
381 ,76.3419 ,1.75730 ,-0.19064 ,-1.87054 
382 ,76.5500 ,1.75946 ,-0.21117 ,-2.07201 
383 ,76.7421 ,1.76135 ,-0.20433 ,-2.00485 
384 ,76.9343 ,1.76328 ,-0.21459 ,-2.10559 
385 ,77.1422 ,1.76536 ,-0.23513 ,-2.30706 
386 ,77.3338 ,1.76724 ,-0.23855 ,-2.34064 
387 ,77.5264 ,1.76921 ,-0.25566 ,-2.50853 
388 ,77.7186 ,1.77109 ,-0.24539 ,-2.40779 
389 ,77.9265 ,1.77319 ,-0.27619 ,-2.71000 
390 ,78.1186 ,1.77507 ,-0.25566 ,-2.50853 
391 ,78.3107 ,1.77702 ,-0.29330 ,-2.87789 
392 ,78.5189 ,1.77911 ,-0.29330 ,-2.87789 
393 ,78.7269 ,1.78116 ,-0.31726 ,-3.11294 
394 ,78.9190 ,1.78307 ,-0.29330 ,-2.87789 
395 ,79.1111 ,1.78503 ,-0.32068 ,-3.14652 
396 ,79.3191 ,1.78711 ,-0.32752 ,-3.21367 
397 ,79.5108 ,1.78902 ,-0.34806 ,-3.41514 
398 ,79.7193 ,1.79099 ,-0.35832 ,-3.51588 
399 ,79.9115 ,1.79307 ,-0.36517 ,-3.58303 
400 ,80.1036 ,1.79497 ,-0.37201 ,-3.65019 
401 ,80.3116 ,1.79702 ,-0.38570 ,-3.78450 
402 ,80.5037 ,1.79894 ,-0.41308 ,-4.05313 
403 ,80.7276 ,1.80116 ,-0.40623 ,-3.98597 
404 ,80.9197 ,1.80311 ,-0.39597 ,-3.88524 
405 ,81.1278 ,1.80517 ,-0.43703 ,-4.28818 
406 ,81.3200 ,1.80714 ,-0.42677 ,-4.18744 
407 ,81.5115 ,1.80912 ,-0.45414 ,-4.45607 
408 ,81.7196 ,1.81106 ,-0.43703 ,-4.28818 
409 ,81.9117 ,1.81307 ,-0.46783 ,-4.59038 
410 ,82.1203 ,1.81505 ,-0.46783 ,-4.59038 
411 ,82.3441 ,1.81731 ,-0.48152 ,-4.72470 
412 ,82.5361 ,1.81925 ,-0.48152 ,-4.72470 
413 ,82.7283 ,1.82122 ,-0.51232 ,-5.02690 
414 ,82.9685 ,1.82356 ,-0.51917 ,-5.09406 
415 ,83.1765 ,1.82566 ,-0.50890 ,-4.99332 
416 ,83.3848 ,1.82770 ,-0.53970 ,-5.29553 
417 ,83.5769 ,1.82966 ,-0.52601 ,-5.16121 
418 ,83.7687 ,1.83159 ,-0.55681 ,-5.46342 
419 ,83.9610 ,1.83347 ,-0.56365 ,-5.53058 
420 ,84.1532 ,1.83541 ,-0.57392 ,-5.63131 
421 ,84.3452 ,1.83735 ,-0.58077 ,-5.69847 
422 ,84.5533 ,1.83944 ,-0.58077 ,-5.69847 
423 ,84.7453 ,1.84133 ,-0.61156 ,-6.00067 
424 ,84.9370 ,1.84339 ,-0.60130 ,-5.89994 
425 ,85.1296 ,1.84525 ,-0.62525 ,-6.13499 
426 ,85.3377 ,1.84722 ,-0.60472 ,-5.93352 
427 ,85.5297 ,1.84922 ,-0.64579 ,-6.33646 
428 ,85.7378 ,1.85131 ,-0.61499 ,-6.03425 
429 ,85.9299 ,1.85319 ,-0.64236 ,-6.30288 
430 ,86.1217 ,1.85521 ,-0.64579 ,-6.33646 
431 ,86.3141 ,1.85703 ,-0.66290 ,-6.50435 
432 ,86.5060 ,1.85892 ,-0.68001 ,-6.67224 
433 ,86.7142 ,1.86101 ,-0.66290 ,-6.50435 
434 ,87.0659 ,1.86381 ,-0.70396 ,-6.90729 
435 ,87.2583 ,1.86646 ,-0.70054 ,-6.87371 
436 ,87.4663 ,1.86856 ,-0.71423 ,-7.00802 
437 ,87.6743 ,1.87058 ,-0.71765 ,-7.04160 
438 ,87.8826 ,1.87271 ,-0.73818 ,-7.24307 
439 ,88.0747 ,1.87459 ,-0.73476 ,-7.20949 
440 ,88.2663 ,1.87650 ,-0.76214 ,-7.47812 
441 ,88.4590 ,1.87847 ,-0.75530 ,-7.41096 
442 ,88.6510 ,1.88041 ,-0.78267 ,-7.67959 
443 ,88.8590 ,1.88246 ,-0.77583 ,-7.61243 
444 ,89.0671 ,1.88444 ,-0.78952 ,-7.74674 
445 ,89.2593 ,1.88651 ,-0.78952 ,-7.74674 
446 ,89.4672 ,1.88854 ,-0.82374 ,-8.08253 
447 ,89.6752 ,1.89060 ,-0.81005 ,-7.94821 
448 ,89.8673 ,1.89252 ,-0.83743 ,-8.21684 
449 ,90.0596 ,1.89449 ,-0.83401 ,-8.18326 
450 ,90.2515 ,1.89641 ,-0.85454 ,-8.38473 
451 ,90.4432 ,1.89834 ,-0.85796 ,-8.41831 
452 ,90.6354 ,1.90027 ,-0.85454 ,-8.38473 
453 ,90.8278 ,1.90217 ,-0.89218 ,-8.75409 
454 ,91.0199 ,1.90411 ,-0.87507 ,-8.58620 
455 ,91.2280 ,1.90610 ,-0.89903 ,-8.82125 
456 ,91.4200 ,1.90804 ,-0.87507 ,-8.58620 
457 ,91.6119 ,1.90998 ,-0.89903 ,-8.82125 
458 ,91.8201 ,1.91211 ,-0.89218 ,-8.75409 
459 ,92.0122 ,1.91393 ,-0.91956 ,-9.02272 
460 ,92.2042 ,1.91588 ,-0.92640 ,-9.08988 
461 ,92.4124 ,1.91798 ,-0.94351 ,-9.25777 
462 ,92.6041 ,1.91988 ,-0.95378 ,-9.35850 
463 ,92.7969 ,1.92183 ,-0.94694 ,-9.29135 
