Data stamp = , 02-05-2022 04:00:31 595

Calibration Values: 
Slope = , 26.54 , g/V 
Offset Voltage at no contact = , -0.501760 , V 

No , Time , Stage Position ,   Mass , Force 
   ,  (s) ,      (mm)      ,   (g)  , (mN)  

1 ,0.0000 ,0.99950 ,5.38749 ,52.86209 
2 ,0.2036 ,0.99952 ,5.40460 ,53.02998 
3 ,0.7482 ,1.00166 ,5.38065 ,52.79493 
4 ,0.9723 ,1.00388 ,5.38065 ,52.79493 
5 ,1.1804 ,1.00596 ,5.40118 ,52.99640 
6 ,1.3726 ,1.00799 ,5.37038 ,52.69420 
7 ,1.5806 ,1.01003 ,5.34985 ,52.49273 
8 ,1.8047 ,1.01210 ,5.32932 ,52.29126 
9 ,1.9966 ,1.01425 ,5.29852 ,51.98905 
10 ,2.2047 ,1.01634 ,5.30536 ,52.05621 
11 ,2.3969 ,1.01819 ,5.27456 ,51.75401 
12 ,2.5886 ,1.02014 ,5.25403 ,51.55254 
13 ,2.7810 ,1.02207 ,5.22323 ,51.25033 
14 ,2.9732 ,1.02398 ,5.20612 ,51.08244 
15 ,3.1812 ,1.02610 ,5.20954 ,51.11602 
16 ,3.3729 ,1.02803 ,5.16505 ,50.67950 
17 ,3.5653 ,1.02992 ,5.15479 ,50.57876 
18 ,3.7893 ,1.03210 ,5.13425 ,50.37729 
19 ,3.9816 ,1.03409 ,5.10003 ,50.04151 
20 ,4.1736 ,1.03603 ,5.09319 ,49.97436 
21 ,4.3657 ,1.03791 ,5.07950 ,49.84004 
22 ,4.5578 ,1.03981 ,5.05212 ,49.57142 
23 ,4.7495 ,1.04176 ,5.03159 ,49.36995 
24 ,4.9420 ,1.04370 ,5.02474 ,49.30279 
25 ,5.1340 ,1.04561 ,4.99737 ,49.03416 
26 ,5.3261 ,1.04747 ,4.99052 ,48.96701 
27 ,5.5342 ,1.04954 ,4.94946 ,48.56407 
28 ,5.7580 ,1.05170 ,4.94946 ,48.56407 
29 ,5.9664 ,1.05393 ,4.92550 ,48.32902 
30 ,6.1582 ,1.05587 ,4.88444 ,47.92608 
31 ,6.3666 ,1.05782 ,4.88101 ,47.89250 
32 ,6.5744 ,1.05998 ,4.85706 ,47.65745 
33 ,6.7665 ,1.06186 ,4.85364 ,47.62387 
34 ,6.9587 ,1.06383 ,4.82284 ,47.32167 
35 ,7.1507 ,1.06576 ,4.80573 ,47.15378 
36 ,7.3587 ,1.06773 ,4.79888 ,47.08662 
37 ,7.5669 ,1.06988 ,4.78519 ,46.95231 
38 ,7.7585 ,1.07180 ,4.74755 ,46.58295 
39 ,7.9512 ,1.07377 ,4.73386 ,46.44863 
40 ,8.1591 ,1.07584 ,4.70990 ,46.21359 
41 ,8.3673 ,1.07780 ,4.69964 ,46.11285 
42 ,8.5753 ,1.07999 ,4.67226 ,45.84422 
43 ,8.7993 ,1.08212 ,4.66199 ,45.74349 
44 ,8.9916 ,1.08417 ,4.64146 ,45.54202 
45 ,9.2156 ,1.08633 ,4.60382 ,45.17266 
46 ,9.4077 ,1.08834 ,4.61751 ,45.30697 
47 ,9.6157 ,1.09035 ,4.58328 ,44.97119 
48 ,9.8076 ,1.09228 ,4.56275 ,44.76972 
49 ,9.9837 ,1.09419 ,4.54906 ,44.63541 
50 ,10.1920 ,1.09601 ,4.51826 ,44.33320 
51 ,10.3840 ,1.09811 ,4.51826 ,44.33320 
52 ,10.6080 ,1.10019 ,4.48404 ,43.99742 
53 ,10.8000 ,1.10222 ,4.47035 ,43.86310 
54 ,10.9920 ,1.10413 ,4.45666 ,43.72879 
55 ,11.1842 ,1.10610 ,4.44982 ,43.66163 
56 ,11.3924 ,1.10817 ,4.41902 ,43.35943 
57 ,11.5843 ,1.11009 ,4.41560 ,43.32585 
58 ,11.7762 ,1.11197 ,4.38822 ,43.05723 
59 ,11.9682 ,1.11386 ,4.37795 ,42.95649 
60 ,12.1607 ,1.11580 ,4.36427 ,42.82218 
61 ,12.3686 ,1.11793 ,4.34716 ,42.65429 
62 ,12.5610 ,1.11981 ,4.31293 ,42.31850 
63 ,12.7689 ,1.12178 ,4.29240 ,42.11703 
64 ,12.9611 ,1.12380 ,4.29240 ,42.11703 
65 ,13.1527 ,1.12576 ,4.26160 ,41.81483 
66 ,13.3452 ,1.12771 ,4.24791 ,41.68051 
67 ,13.5535 ,1.12977 ,4.22738 ,41.47905 
68 ,13.7773 ,1.13187 ,4.22396 ,41.44547 
69 ,13.9854 ,1.13408 ,4.19316 ,41.14326 
70 ,14.1933 ,1.13614 ,4.16236 ,40.84106 
71 ,14.4016 ,1.13821 ,4.15551 ,40.77390 
72 ,14.6097 ,1.14030 ,4.14525 ,40.67317 
73 ,14.8177 ,1.14243 ,4.11103 ,40.33738 
74 ,15.0094 ,1.14425 ,4.11103 ,40.33738 
75 ,15.2019 ,1.14624 ,4.08365 ,40.06876 
76 ,15.4098 ,1.14825 ,4.06312 ,39.86729 
77 ,15.6021 ,1.15023 ,4.05285 ,39.76655 
78 ,15.7939 ,1.15215 ,4.02547 ,39.49793 
79 ,15.9862 ,1.15403 ,4.02889 ,39.53150 
80 ,16.1781 ,1.15597 ,3.99125 ,39.16214 
81 ,16.3860 ,1.15800 ,3.99125 ,39.16214 
82 ,16.5784 ,1.16001 ,3.94334 ,38.69205 
83 ,16.8182 ,1.16224 ,3.95361 ,38.79278 
84 ,17.0107 ,1.16435 ,3.93650 ,38.62489 
85 ,17.2027 ,1.16622 ,3.91596 ,38.42342 
86 ,17.3949 ,1.16816 ,3.88858 ,38.15479 
87 ,17.5869 ,1.17007 ,3.88516 ,38.12122 
88 ,17.7791 ,1.17196 ,3.85436 ,37.81901 
89 ,17.9711 ,1.17392 ,3.85094 ,37.78543 
90 ,18.1633 ,1.17584 ,3.82356 ,37.51681 
91 ,18.3873 ,1.17794 ,3.81672 ,37.44965 
92 ,18.5950 ,1.18012 ,3.78250 ,37.11387 
93 ,18.8034 ,1.18214 ,3.77908 ,37.08029 
94 ,19.0115 ,1.18432 ,3.75854 ,36.87882 
95 ,19.2036 ,1.18629 ,3.72774 ,36.57661 
96 ,19.3957 ,1.18816 ,3.72774 ,36.57661 
97 ,19.5879 ,1.19005 ,3.71748 ,36.47588 
98 ,20.0841 ,1.19355 ,3.67983 ,36.10652 
99 ,20.2761 ,1.19697 ,3.64219 ,35.73716 
100 ,20.4681 ,1.19884 ,3.62508 ,35.56926 
101 ,20.6602 ,1.20084 ,3.61139 ,35.43495 
102 ,20.8362 ,1.20267 ,3.60112 ,35.33422 
103 ,21.0444 ,1.20466 ,3.57717 ,35.09917 
104 ,21.2360 ,1.20658 ,3.55663 ,34.89770 
105 ,21.4281 ,1.20846 ,3.56006 ,34.93128 
106 ,21.6200 ,1.21038 ,3.52584 ,34.59549 
107 ,21.8122 ,1.21232 ,3.51215 ,34.46118 
108 ,22.0203 ,1.21433 ,3.50530 ,34.39402 
109 ,22.1964 ,1.21626 ,3.48477 ,34.19255 
110 ,22.4045 ,1.21818 ,3.47108 ,34.05824 
111 ,22.6289 ,1.22035 ,3.44370 ,33.78961 
112 ,22.8369 ,1.22257 ,3.43344 ,33.68888 
113 ,23.0126 ,1.22439 ,3.42659 ,33.62172 
114 ,23.2050 ,1.22624 ,3.40948 ,33.45383 
115 ,23.4133 ,1.22834 ,3.38210 ,33.18520 
116 ,23.6054 ,1.23026 ,3.35815 ,32.95016 
117 ,23.7973 ,1.23216 ,3.34104 ,32.78227 
118 ,23.9896 ,1.23410 ,3.34104 ,32.78227 
119 ,24.1974 ,1.23611 ,3.31024 ,32.48006 
120 ,24.4376 ,1.23853 ,3.27602 ,32.14428 
121 ,24.6459 ,1.24066 ,3.28286 ,32.21143 
122 ,24.8376 ,1.24260 ,3.25548 ,31.94281 
123 ,25.0459 ,1.24462 ,3.25548 ,31.94281 
124 ,25.2379 ,1.24655 ,3.20073 ,31.40555 
125 ,25.4300 ,1.24844 ,3.22468 ,31.64060 
126 ,25.6220 ,1.25044 ,3.19388 ,31.33840 
127 ,25.8300 ,1.25252 ,3.19388 ,31.33840 
128 ,26.0062 ,1.25434 ,3.15282 ,30.93546 
129 ,26.1983 ,1.25617 ,3.13229 ,30.73399 
130 ,26.3905 ,1.25807 ,3.13913 ,30.80115 
131 ,26.5985 ,1.26012 ,3.10491 ,30.46536 
132 ,26.7905 ,1.26207 ,3.11860 ,30.59968 
133 ,26.9986 ,1.26417 ,3.07753 ,30.19674 
134 ,27.2068 ,1.26621 ,3.07753 ,30.19674 
135 ,27.3984 ,1.26815 ,3.02962 ,29.72664 
136 ,27.5911 ,1.27010 ,3.03989 ,29.82737 
137 ,27.7829 ,1.27201 ,3.01935 ,29.62590 
138 ,27.9751 ,1.27392 ,2.99540 ,29.39086 
139 ,28.1667 ,1.27587 ,2.99540 ,29.39086 
140 ,28.3590 ,1.27775 ,2.97487 ,29.18939 
141 ,28.5508 ,1.27969 ,2.96460 ,29.08865 
142 ,28.7429 ,1.28159 ,2.94407 ,28.88718 
143 ,28.9351 ,1.28351 ,2.92696 ,28.71929 
144 ,29.1275 ,1.28542 ,2.91669 ,28.61856 
145 ,29.3355 ,1.28755 ,2.88931 ,28.34993 
146 ,29.5273 ,1.28941 ,2.88931 ,28.34993 
147 ,29.7196 ,1.29139 ,2.85851 ,28.04772 
148 ,29.9278 ,1.29339 ,2.86193 ,28.08130 
149 ,30.1200 ,1.29540 ,2.83114 ,27.77910 
150 ,30.3281 ,1.29737 ,2.82429 ,27.71194 
151 ,30.5201 ,1.29940 ,2.80718 ,27.54405 
152 ,30.7281 ,1.30141 ,2.79349 ,27.40974 
153 ,30.9042 ,1.30329 ,2.76954 ,27.17469 
154 ,31.0962 ,1.30510 ,2.73874 ,26.87248 
155 ,31.2885 ,1.30700 ,2.75243 ,27.00680 
156 ,31.4805 ,1.30893 ,2.72163 ,26.70459 
157 ,31.6727 ,1.31087 ,2.71136 ,26.60386 
158 ,31.8647 ,1.31275 ,2.70452 ,26.53670 
159 ,32.0570 ,1.31470 ,2.67372 ,26.23450 
160 ,32.2489 ,1.31664 ,2.68398 ,26.33523 
161 ,32.4411 ,1.31858 ,2.63949 ,25.89871 
162 ,32.6491 ,1.32062 ,2.63949 ,25.89871 
163 ,32.8568 ,1.32270 ,2.61554 ,25.66367 
164 ,33.0491 ,1.32464 ,2.61896 ,25.69724 
165 ,33.2413 ,1.32654 ,2.57447 ,25.26073 
166 ,33.4654 ,1.32882 ,2.57789 ,25.29430 
167 ,33.6735 ,1.33088 ,2.55052 ,25.02568 
168 ,33.8655 ,1.33279 ,2.55052 ,25.02568 
169 ,34.0575 ,1.33473 ,2.51287 ,24.65632 
170 ,34.2657 ,1.33683 ,2.51972 ,24.72347 
171 ,34.4580 ,1.33871 ,2.48550 ,24.38769 
172 ,34.6818 ,1.34094 ,2.48207 ,24.35411 
173 ,34.8739 ,1.34285 ,2.45812 ,24.11906 
174 ,35.0656 ,1.34476 ,2.46154 ,24.15264 
175 ,35.2580 ,1.34667 ,2.42048 ,23.74970 
176 ,35.4502 ,1.34862 ,2.43074 ,23.85044 
177 ,35.6583 ,1.35070 ,2.40336 ,23.58181 
178 ,35.8502 ,1.35263 ,2.40679 ,23.61539 
179 ,36.0422 ,1.35452 ,2.37599 ,23.31318 
180 ,36.2343 ,1.35646 ,2.36230 ,23.17887 
181 ,36.4427 ,1.35856 ,2.34861 ,23.04456 
182 ,36.6347 ,1.36050 ,2.33834 ,22.94382 
183 ,36.8427 ,1.36258 ,2.32465 ,22.80951 
184 ,37.0346 ,1.36451 ,2.30754 ,22.64162 
185 ,37.2265 ,1.36639 ,2.30070 ,22.57446 
186 ,37.4189 ,1.36832 ,2.26990 ,22.27226 
187 ,37.6268 ,1.37039 ,2.26306 ,22.20510 
188 ,37.8029 ,1.37225 ,2.23568 ,21.93647 
189 ,37.9953 ,1.37408 ,2.22883 ,21.86932 
190 ,38.1870 ,1.37598 ,2.23910 ,21.97005 
191 ,38.3794 ,1.37793 ,2.20488 ,21.63427 
192 ,38.5713 ,1.37982 ,2.20146 ,21.60069 
193 ,38.7636 ,1.38175 ,2.18092 ,21.39922 
194 ,38.9558 ,1.38366 ,2.15012 ,21.09702 
195 ,39.1474 ,1.38560 ,2.15355 ,21.13059 
196 ,39.3398 ,1.38752 ,2.12617 ,20.86197 
197 ,39.5639 ,1.38959 ,2.12959 ,20.89555 
198 ,39.7716 ,1.39182 ,2.09879 ,20.59334 
199 ,39.9636 ,1.39383 ,2.08168 ,20.42545 
200 ,40.1556 ,1.39571 ,2.08510 ,20.45903 
201 ,40.3484 ,1.39767 ,2.06457 ,20.25756 
202 ,40.5722 ,1.39978 ,2.03719 ,19.98893 
203 ,40.7642 ,1.40175 ,2.04061 ,20.02251 
204 ,40.9566 ,1.40364 ,1.99613 ,19.58599 
205 ,41.1646 ,1.40581 ,2.00639 ,19.68673 
206 ,41.3727 ,1.40782 ,1.98244 ,19.45168 
207 ,41.5803 ,1.40991 ,1.96533 ,19.28379 
208 ,41.7729 ,1.41183 ,1.96875 ,19.31737 
209 ,41.9809 ,1.41393 ,1.93453 ,18.98158 
210 ,42.1729 ,1.41587 ,1.92768 ,18.91443 
211 ,42.3651 ,1.41775 ,1.92768 ,18.91443 
212 ,42.5732 ,1.41983 ,1.89004 ,18.54507 
213 ,42.7652 ,1.42176 ,1.88662 ,18.51149 
214 ,42.9733 ,1.42370 ,1.86266 ,18.27644 
215 ,43.1814 ,1.42591 ,1.86266 ,18.27644 
216 ,43.3735 ,1.42787 ,1.84897 ,18.14213 
217 ,43.5815 ,1.42991 ,1.83186 ,17.97423 
218 ,43.7733 ,1.43182 ,1.81475 ,17.80634 
219 ,43.9655 ,1.43378 ,1.80791 ,17.73919 
220 ,44.1739 ,1.43587 ,1.78737 ,17.53772 
221 ,44.3657 ,1.43781 ,1.77026 ,17.36983 
222 ,44.5901 ,1.43988 ,1.74289 ,17.10120 
223 ,44.7822 ,1.44196 ,1.72578 ,16.93331 
224 ,44.9741 ,1.44390 ,1.72920 ,16.96689 
225 ,45.1663 ,1.44578 ,1.72920 ,16.96689 
226 ,45.3581 ,1.44769 ,1.69840 ,16.66468 
227 ,45.5505 ,1.44964 ,1.69155 ,16.59752 
228 ,45.7425 ,1.45152 ,1.67444 ,16.42963 
229 ,45.9344 ,1.45340 ,1.66075 ,16.29532 
230 ,46.1585 ,1.45556 ,1.66418 ,16.32890 
231 ,46.3667 ,1.45773 ,1.63680 ,16.06027 
232 ,46.5589 ,1.45973 ,1.62311 ,15.92596 
233 ,46.7827 ,1.46187 ,1.59916 ,15.69091 
234 ,46.9751 ,1.46384 ,1.58547 ,15.55660 
235 ,47.1830 ,1.46591 ,1.58204 ,15.52302 
236 ,47.3751 ,1.46782 ,1.55124 ,15.22081 
237 ,47.5670 ,1.46974 ,1.55124 ,15.22081 
238 ,47.7594 ,1.47174 ,1.52729 ,14.98577 
239 ,47.9672 ,1.47369 ,1.52729 ,14.98577 
240 ,48.1751 ,1.47585 ,1.49991 ,14.71714 
241 ,48.3996 ,1.47798 ,1.49649 ,14.68356 
242 ,48.6075 ,1.48016 ,1.47596 ,14.48209 
243 ,48.7994 ,1.48207 ,1.45885 ,14.31420 
244 ,48.9915 ,1.48401 ,1.44858 ,14.21346 
245 ,49.1996 ,1.48596 ,1.45200 ,14.24704 
246 ,49.3915 ,1.48809 ,1.42805 ,14.01199 
247 ,49.5839 ,1.48991 ,1.42462 ,13.97842 
248 ,49.7918 ,1.49200 ,1.39383 ,13.67621 
249 ,49.9842 ,1.49395 ,1.39725 ,13.70979 
250 ,50.1921 ,1.49604 ,1.36645 ,13.40759 
251 ,50.3998 ,1.49808 ,1.35960 ,13.34043 
252 ,50.5924 ,1.50006 ,1.33565 ,13.10538 
253 ,50.8004 ,1.50211 ,1.32880 ,13.03822 
254 ,50.9925 ,1.50399 ,1.31854 ,12.93749 
255 ,51.1847 ,1.50593 ,1.31169 ,12.87033 
256 ,51.3927 ,1.50800 ,1.28089 ,12.56813 
257 ,51.5848 ,1.51004 ,1.28089 ,12.56813 
258 ,51.7769 ,1.51181 ,1.25694 ,12.33308 
259 ,51.9686 ,1.51377 ,1.25009 ,12.26592 
260 ,52.1768 ,1.51586 ,1.23298 ,12.09803 
261 ,52.3687 ,1.51777 ,1.23641 ,12.13161 
262 ,52.5611 ,1.51966 ,1.22272 ,11.99730 
263 ,52.7531 ,1.52159 ,1.19534 ,11.72867 
264 ,52.9452 ,1.52354 ,1.20218 ,11.79583 
265 ,53.1692 ,1.52571 ,1.17823 ,11.56078 
266 ,53.3935 ,1.52784 ,1.15085 ,11.29215 
267 ,53.5855 ,1.52989 ,1.16112 ,11.39289 
268 ,53.7776 ,1.53183 ,1.12347 ,11.02353 
269 ,53.9697 ,1.53373 ,1.11321 ,10.92279 
270 ,54.1617 ,1.53570 ,1.11321 ,10.92279 
271 ,54.3542 ,1.53760 ,1.09267 ,10.72132 
272 ,54.5619 ,1.53966 ,1.09952 ,10.78848 
273 ,54.7541 ,1.54160 ,1.07214 ,10.51985 
274 ,54.9460 ,1.54357 ,1.06872 ,10.48627 
275 ,55.1382 ,1.54545 ,1.04134 ,10.21765 
276 ,55.3302 ,1.54733 ,1.03450 ,10.15049 
277 ,55.5222 ,1.54924 ,1.02423 ,10.04976 
278 ,55.7144 ,1.55122 ,0.99685 ,9.78113 
279 ,55.9221 ,1.55323 ,1.00370 ,9.84829 
280 ,56.1146 ,1.55523 ,0.97632 ,9.57966 
281 ,56.3226 ,1.55731 ,0.97290 ,9.54608 
282 ,56.5148 ,1.55922 ,0.94210 ,9.24388 
283 ,56.7224 ,1.56126 ,0.94552 ,9.27745 
284 ,56.9149 ,1.56320 ,0.92157 ,9.04241 
285 ,57.1066 ,1.56512 ,0.93183 ,9.14314 
286 ,57.2990 ,1.56705 ,0.90788 ,8.90809 
287 ,57.4909 ,1.56896 ,0.89419 ,8.77378 
288 ,57.6991 ,1.57098 ,0.88050 ,8.63947 
289 ,57.8910 ,1.57294 ,0.85997 ,8.43800 
290 ,58.0990 ,1.57493 ,0.86681 ,8.50515 
291 ,58.3233 ,1.57715 ,0.85654 ,8.40442 
292 ,58.5316 ,1.57938 ,0.82232 ,8.06864 
293 ,58.7555 ,1.58145 ,0.82575 ,8.10221 
294 ,58.9478 ,1.58356 ,0.80863 ,7.93432 
295 ,59.1560 ,1.58559 ,0.78126 ,7.66570 
296 ,59.3478 ,1.58757 ,0.78126 ,7.66570 
297 ,59.5721 ,1.58967 ,0.75730 ,7.43065 
298 ,59.7641 ,1.59169 ,0.76072 ,7.46423 
299 ,59.9563 ,1.59359 ,0.72992 ,7.16202 
300 ,60.1482 ,1.59553 ,0.72650 ,7.12844 
301 ,60.3558 ,1.59755 ,0.70597 ,6.92697 
302 ,60.5482 ,1.59954 ,0.71281 ,6.99413 
303 ,60.7405 ,1.60145 ,0.69913 ,6.85982 
304 ,60.9483 ,1.60352 ,0.67859 ,6.65835 
305 ,61.1406 ,1.60545 ,0.67175 ,6.59119 
306 ,61.3485 ,1.60754 ,0.65464 ,6.42330 
307 ,61.5569 ,1.60961 ,0.64095 ,6.28899 
308 ,61.7642 ,1.61168 ,0.62726 ,6.15467 
309 ,61.9890 ,1.61385 ,0.60673 ,5.95320 
310 ,62.1811 ,1.61583 ,0.59988 ,5.88605 
311 ,62.3730 ,1.61776 ,0.58962 ,5.78531 
312 ,62.5811 ,1.61983 ,0.58962 ,5.78531 
313 ,62.7733 ,1.62175 ,0.56566 ,5.55026 
314 ,62.9652 ,1.62367 ,0.56566 ,5.55026 
315 ,63.1575 ,1.62557 ,0.54513 ,5.34879 
316 ,63.3656 ,1.62770 ,0.54171 ,5.31522 
317 ,63.5577 ,1.62958 ,0.51775 ,5.08017 
318 ,63.7496 ,1.63156 ,0.50406 ,4.94585 
319 ,63.9578 ,1.63356 ,0.50406 ,4.94585 
320 ,64.1500 ,1.63554 ,0.47326 ,4.64365 
321 ,64.3419 ,1.63748 ,0.48011 ,4.71081 
322 ,64.5339 ,1.63933 ,0.45957 ,4.50934 
323 ,64.7256 ,1.64130 ,0.46642 ,4.57649 
324 ,64.9499 ,1.64355 ,0.44246 ,4.34144 
325 ,65.1583 ,1.64558 ,0.43220 ,4.24071 
326 ,65.3504 ,1.64755 ,0.41166 ,4.03924 
327 ,65.5424 ,1.64949 ,0.42193 ,4.13997 
328 ,65.7506 ,1.65151 ,0.38086 ,3.73703 
329 ,65.9421 ,1.65350 ,0.39797 ,3.90493 
330 ,66.1505 ,1.65551 ,0.37060 ,3.63630 
331 ,66.3426 ,1.65743 ,0.37402 ,3.66988 
332 ,66.5346 ,1.65934 ,0.33980 ,3.33410 
333 ,66.7268 ,1.66123 ,0.34664 ,3.40125 
334 ,66.9184 ,1.66317 ,0.33295 ,3.26694 
335 ,67.1108 ,1.66516 ,0.32269 ,3.16620 
336 ,67.3190 ,1.66723 ,0.30900 ,3.03189 
337 ,67.5111 ,1.66915 ,0.29189 ,2.86400 
338 ,67.7191 ,1.67116 ,0.27820 ,2.72969 
339 ,68.0069 ,1.67362 ,0.27135 ,2.66253 
340 ,68.1993 ,1.67600 ,0.26109 ,2.56179 
341 ,68.3914 ,1.67792 ,0.23713 ,2.32675 
342 ,68.5835 ,1.67983 ,0.24398 ,2.39390 
343 ,68.7753 ,1.68177 ,0.21318 ,2.09170 
344 ,68.9677 ,1.68367 ,0.22344 ,2.19243 
345 ,69.1592 ,1.68559 ,0.20291 ,1.99096 
346 ,69.3515 ,1.68751 ,0.17896 ,1.75592 
347 ,69.5440 ,1.68942 ,0.18922 ,1.85665 
348 ,69.7521 ,1.69149 ,0.16869 ,1.65518 
349 ,69.9440 ,1.69342 ,0.16527 ,1.62160 
350 ,70.1361 ,1.69534 ,0.14816 ,1.45371 
351 ,70.3121 ,1.69721 ,0.13789 ,1.35298 
352 ,70.5200 ,1.69907 ,0.13105 ,1.28582 
353 ,70.7119 ,1.70111 ,0.10367 ,1.01719 
354 ,70.9045 ,1.70304 ,0.10709 ,1.05077 
355 ,71.0966 ,1.70498 ,0.09682 ,0.95004 
356 ,71.2881 ,1.70689 ,0.09682 ,0.95004 
357 ,71.5127 ,1.70896 ,0.05234 ,0.51352 
358 ,71.7043 ,1.71116 ,0.07287 ,0.71499 
359 ,71.8967 ,1.71296 ,0.04549 ,0.44636 
360 ,72.1049 ,1.71503 ,0.04891 ,0.47994 
361 ,72.2971 ,1.71693 ,0.01811 ,0.17773 
362 ,72.5049 ,1.71904 ,0.02496 ,0.24489 
363 ,72.7132 ,1.72108 ,0.01469 ,0.14416 
364 ,72.9051 ,1.72302 ,0.00443 ,0.04342 
365 ,73.0972 ,1.72497 ,-0.01953 ,-0.19163 
366 ,73.3209 ,1.72712 ,-0.02295 ,-0.22520 
367 ,73.5130 ,1.72908 ,-0.04006 ,-0.39310 
368 ,73.7052 ,1.73108 ,-0.02637 ,-0.25878 
369 ,73.9454 ,1.73322 ,-0.05375 ,-0.52741 
370 ,74.1538 ,1.73553 ,-0.07086 ,-0.69530 
371 ,74.3457 ,1.73742 ,-0.07771 ,-0.76246 
372 ,74.5378 ,1.73937 ,-0.09140 ,-0.89677 
373 ,74.7298 ,1.74130 ,-0.08455 ,-0.82961 
374 ,74.9218 ,1.74316 ,-0.09140 ,-0.89677 
375 ,75.1301 ,1.74532 ,-0.11877 ,-1.16540 
376 ,75.3221 ,1.74719 ,-0.10851 ,-1.06466 
377 ,75.5143 ,1.74908 ,-0.15299 ,-1.50118 
378 ,75.7060 ,1.75106 ,-0.13588 ,-1.33329 
379 ,75.9144 ,1.75310 ,-0.17011 ,-1.66907 
380 ,76.1225 ,1.75517 ,-0.14957 ,-1.46760 
381 ,76.3305 ,1.75726 ,-0.17695 ,-1.73623 
382 ,76.5386 ,1.75934 ,-0.19064 ,-1.87054 
383 ,76.7626 ,1.76146 ,-0.18379 ,-1.80338 
384 ,77.0027 ,1.76389 ,-0.20433 ,-2.00485 
385 ,77.2109 ,1.76609 ,-0.22486 ,-2.20632 
386 ,77.4030 ,1.76796 ,-0.21459 ,-2.10559 
387 ,77.6110 ,1.77010 ,-0.24539 ,-2.40779 
388 ,77.8030 ,1.77198 ,-0.24539 ,-2.40779 
389 ,77.9947 ,1.77386 ,-0.26593 ,-2.60926 
390 ,78.1871 ,1.77581 ,-0.25908 ,-2.54211 
391 ,78.3794 ,1.77781 ,-0.27277 ,-2.67642 
392 ,78.5715 ,1.77968 ,-0.29673 ,-2.91147 
393 ,78.7635 ,1.78159 ,-0.27961 ,-2.74358 
394 ,78.9556 ,1.78348 ,-0.29330 ,-2.87789 
395 ,79.1476 ,1.78545 ,-0.31726 ,-3.11294 
396 ,79.3396 ,1.78734 ,-0.31726 ,-3.11294 
397 ,79.5476 ,1.78946 ,-0.33095 ,-3.24725 
398 ,79.7397 ,1.79132 ,-0.34121 ,-3.34799 
399 ,79.9321 ,1.79333 ,-0.34464 ,-3.38156 
400 ,80.1397 ,1.79530 ,-0.35490 ,-3.48230 
401 ,80.3322 ,1.79733 ,-0.37886 ,-3.71735 
402 ,80.5402 ,1.79938 ,-0.36517 ,-3.58303 
403 ,80.7644 ,1.80160 ,-0.38912 ,-3.81808 
404 ,80.9724 ,1.80371 ,-0.40623 ,-3.98597 
405 ,81.1645 ,1.80556 ,-0.40623 ,-3.98597 
406 ,81.3565 ,1.80749 ,-0.41650 ,-4.08671 
407 ,81.5485 ,1.80942 ,-0.42677 ,-4.18744 
408 ,81.7407 ,1.81135 ,-0.43703 ,-4.28818 
409 ,81.9328 ,1.81330 ,-0.46441 ,-4.55681 
410 ,82.1249 ,1.81517 ,-0.46099 ,-4.52323 
411 ,82.3325 ,1.81722 ,-0.48494 ,-4.75828 
412 ,82.5410 ,1.81928 ,-0.46783 ,-4.59038 
413 ,82.7491 ,1.82146 ,-0.49179 ,-4.82543 
414 ,82.9411 ,1.82337 ,-0.47810 ,-4.69112 
415 ,83.1493 ,1.82544 ,-0.50548 ,-4.95975 
416 ,83.3572 ,1.82750 ,-0.51574 ,-5.06048 
417 ,83.5495 ,1.82947 ,-0.53628 ,-5.26195 
418 ,83.7736 ,1.83156 ,-0.53285 ,-5.22837 
419 ,83.9656 ,1.83359 ,-0.53970 ,-5.29553 
420 ,84.1577 ,1.83547 ,-0.54654 ,-5.36268 
421 ,84.3499 ,1.83747 ,-0.57050 ,-5.59773 
422 ,84.5575 ,1.83948 ,-0.57392 ,-5.63131 
423 ,84.7500 ,1.84146 ,-0.58761 ,-5.76562 
424 ,84.9587 ,1.84356 ,-0.59103 ,-5.79920 
425 ,85.1497 ,1.84546 ,-0.60130 ,-5.89994 
426 ,85.3418 ,1.84735 ,-0.60130 ,-5.89994 
427 ,85.5340 ,1.84933 ,-0.62525 ,-6.13499 
428 ,85.7261 ,1.85117 ,-0.63552 ,-6.23572 
429 ,85.9182 ,1.85311 ,-0.61841 ,-6.06783 
430 ,86.1265 ,1.85519 ,-0.65263 ,-6.40361 
431 ,86.3345 ,1.85729 ,-0.65605 ,-6.43719 
432 ,86.5266 ,1.85921 ,-0.65947 ,-6.47077 
433 ,86.7343 ,1.86127 ,-0.68001 ,-6.67224 
434 ,86.9267 ,1.86319 ,-0.66974 ,-6.57150 
435 ,87.1348 ,1.86526 ,-0.69712 ,-6.84013 
436 ,87.3269 ,1.86719 ,-0.70739 ,-6.94086 
437 ,87.5189 ,1.86911 ,-0.70396 ,-6.90729 
438 ,87.7110 ,1.87109 ,-0.71765 ,-7.04160 
439 ,87.9030 ,1.87293 ,-0.71765 ,-7.04160 
440 ,88.0953 ,1.87487 ,-0.73476 ,-7.20949 
441 ,88.2869 ,1.87678 ,-0.73476 ,-7.20949 
442 ,88.4628 ,1.87867 ,-0.73134 ,-7.17591 
443 ,88.6389 ,1.88044 ,-0.76556 ,-7.51170 
444 ,88.8632 ,1.88238 ,-0.77583 ,-7.61243 
445 ,89.0716 ,1.88456 ,-0.77925 ,-7.64601 
446 ,89.2637 ,1.88653 ,-0.77583 ,-7.61243 
447 ,89.4560 ,1.88845 ,-0.79636 ,-7.81390 
448 ,89.6479 ,1.89042 ,-0.79978 ,-7.84748 
449 ,89.8398 ,1.89243 ,-0.82032 ,-8.04895 
450 ,90.0314 ,1.89421 ,-0.83058 ,-8.14968 
451 ,90.2401 ,1.89622 ,-0.82032 ,-8.04895 
452 ,90.4320 ,1.89822 ,-0.84085 ,-8.25042 
453 ,90.6402 ,1.90036 ,-0.82716 ,-8.11611 
454 ,90.8321 ,1.90224 ,-0.87165 ,-8.55262 
455 ,91.0400 ,1.90419 ,-0.84769 ,-8.31758 
456 ,91.2324 ,1.90626 ,-0.88534 ,-8.68694 
457 ,91.4403 ,1.90831 ,-0.87165 ,-8.55262 
458 ,91.6484 ,1.91039 ,-0.90587 ,-8.88841 
459 ,91.8401 ,1.91226 ,-0.89903 ,-8.82125 
460 ,92.0485 ,1.91441 ,-0.91272 ,-8.95556 
461 ,92.2244 ,1.91629 ,-0.90929 ,-8.92198 
462 ,92.4170 ,1.91804 ,-0.93325 ,-9.15703 
463 ,92.6087 ,1.92001 ,-0.93325 ,-9.15703 
