Data stamp = , 30-04-2022 21:52:49 850

Calibration Values: 
Slope = , 26.54 , g/V 
Offset Voltage at no contact = , -0.501760 , V 

No , Time , Stage Position ,   Mass , Force 
   ,  (s) ,      (mm)      ,   (g)  , (mN)  

1 ,0.0000 ,1.04947 ,4.99052 ,48.96701 
2 ,0.2335 ,1.04957 ,5.00421 ,49.10132 
3 ,0.7617 ,1.05170 ,5.00079 ,49.06774 
4 ,0.9861 ,1.05397 ,4.99394 ,49.00058 
5 ,1.1941 ,1.05606 ,4.99394 ,49.00058 
6 ,1.3862 ,1.05805 ,4.99737 ,49.03416 
7 ,1.5785 ,1.05998 ,4.96657 ,48.73196 
8 ,1.7863 ,1.06205 ,4.94946 ,48.56407 
9 ,1.9945 ,1.06421 ,4.92892 ,48.36260 
10 ,2.1862 ,1.06606 ,4.91523 ,48.22828 
11 ,2.3788 ,1.06802 ,4.89812 ,48.06039 
12 ,2.5867 ,1.07006 ,4.87759 ,47.85892 
13 ,2.7788 ,1.07197 ,4.87075 ,47.79177 
14 ,2.9710 ,1.07396 ,4.83995 ,47.48956 
15 ,3.1629 ,1.07587 ,4.82626 ,47.35525 
16 ,3.3551 ,1.07778 ,4.80573 ,47.15378 
17 ,3.5631 ,1.07982 ,4.80573 ,47.15378 
18 ,3.7712 ,1.08197 ,4.74755 ,46.58295 
19 ,3.9633 ,1.08388 ,4.75439 ,46.65010 
20 ,4.1553 ,1.08576 ,4.72017 ,46.31432 
21 ,4.3471 ,1.08767 ,4.70990 ,46.21359 
22 ,4.5396 ,1.08967 ,4.70990 ,46.21359 
23 ,4.7473 ,1.09168 ,4.67911 ,45.91138 
24 ,4.9402 ,1.09363 ,4.67226 ,45.84422 
25 ,5.1318 ,1.09556 ,4.63804 ,45.50844 
26 ,5.3239 ,1.09747 ,4.61751 ,45.30697 
27 ,5.5320 ,1.09949 ,4.58328 ,44.97119 
28 ,5.7401 ,1.10165 ,4.60040 ,45.13908 
29 ,5.9322 ,1.10353 ,4.55591 ,44.70256 
30 ,6.1241 ,1.10545 ,4.55933 ,44.73614 
31 ,6.3162 ,1.10733 ,4.52853 ,44.43394 
32 ,6.5079 ,1.10923 ,4.50457 ,44.19889 
33 ,6.7004 ,1.11126 ,4.50115 ,44.16531 
34 ,6.9084 ,1.11328 ,4.47035 ,43.86310 
35 ,7.1005 ,1.11518 ,4.46351 ,43.79595 
36 ,7.2926 ,1.11711 ,4.42586 ,43.42659 
37 ,7.4847 ,1.11907 ,4.41560 ,43.32585 
38 ,7.6769 ,1.12095 ,4.40191 ,43.19154 
39 ,7.9009 ,1.12327 ,4.39849 ,43.15796 
40 ,8.0930 ,1.12513 ,4.36084 ,42.78860 
41 ,8.3010 ,1.12719 ,4.34716 ,42.65429 
42 ,8.5090 ,1.12920 ,4.33689 ,42.55355 
43 ,8.7167 ,1.13135 ,4.31636 ,42.35208 
44 ,8.9094 ,1.13332 ,4.28556 ,42.04988 
45 ,9.1015 ,1.13523 ,4.27871 ,41.98272 
46 ,9.2933 ,1.13717 ,4.25133 ,41.71409 
47 ,9.4855 ,1.13908 ,4.23765 ,41.57978 
48 ,9.6775 ,1.14099 ,4.23765 ,41.57978 
49 ,9.8533 ,1.14281 ,4.19658 ,41.17684 
50 ,10.0294 ,1.14459 ,4.19316 ,41.14326 
51 ,10.2215 ,1.14635 ,4.16920 ,40.90821 
52 ,10.4137 ,1.14832 ,4.16920 ,40.90821 
53 ,10.6061 ,1.15023 ,4.14183 ,40.63959 
54 ,10.8138 ,1.15227 ,4.12471 ,40.47170 
55 ,11.0063 ,1.15428 ,4.09391 ,40.16949 
56 ,11.2140 ,1.15628 ,4.10418 ,40.27023 
57 ,11.4065 ,1.15819 ,4.05627 ,39.80013 
58 ,11.5981 ,1.16019 ,4.06654 ,39.90087 
59 ,11.7906 ,1.16205 ,4.02889 ,39.53150 
60 ,11.9986 ,1.16422 ,4.02889 ,39.53150 
61 ,12.2068 ,1.16623 ,3.99125 ,39.16214 
62 ,12.4148 ,1.16842 ,3.96729 ,38.92709 
63 ,12.6230 ,1.17046 ,3.95703 ,38.82636 
64 ,12.8309 ,1.17250 ,3.93992 ,38.65847 
65 ,13.0066 ,1.17434 ,3.93307 ,38.59131 
66 ,13.1991 ,1.17619 ,3.90912 ,38.35626 
67 ,13.4072 ,1.17822 ,3.89543 ,38.22195 
68 ,13.5992 ,1.18014 ,3.88174 ,38.08764 
69 ,13.7913 ,1.18206 ,3.86805 ,37.95332 
70 ,13.9835 ,1.18402 ,3.85094 ,37.78543 
71 ,14.1754 ,1.18591 ,3.83725 ,37.65112 
72 ,14.3673 ,1.18782 ,3.78934 ,37.18102 
73 ,14.5597 ,1.18973 ,3.80645 ,37.34891 
74 ,14.7676 ,1.19186 ,3.78250 ,37.11387 
75 ,14.9598 ,1.19378 ,3.76881 ,36.97955 
76 ,15.1516 ,1.19572 ,3.73801 ,36.67735 
77 ,15.3443 ,1.19763 ,3.72090 ,36.50946 
78 ,15.5521 ,1.19963 ,3.72090 ,36.50946 
79 ,15.7602 ,1.20171 ,3.70379 ,36.34157 
80 ,15.9523 ,1.20374 ,3.69010 ,36.20725 
81 ,16.1444 ,1.20560 ,3.65588 ,35.87147 
82 ,16.3365 ,1.20754 ,3.65588 ,35.87147 
83 ,16.5284 ,1.20945 ,3.61139 ,35.43495 
84 ,16.7206 ,1.21136 ,3.61139 ,35.43495 
85 ,16.9128 ,1.21330 ,3.60454 ,35.36779 
86 ,17.1207 ,1.21528 ,3.57375 ,35.06559 
87 ,17.3127 ,1.21729 ,3.57032 ,35.03201 
88 ,17.5210 ,1.21929 ,3.52241 ,34.56192 
89 ,17.7288 ,1.22146 ,3.52241 ,34.56192 
90 ,17.9371 ,1.22356 ,3.51215 ,34.46118 
91 ,18.1292 ,1.22551 ,3.49846 ,34.32687 
92 ,18.3373 ,1.22755 ,3.48819 ,34.22613 
93 ,18.5293 ,1.22945 ,3.46081 ,33.95751 
94 ,18.7215 ,1.23137 ,3.44713 ,33.82319 
95 ,18.9133 ,1.23333 ,3.43344 ,33.68888 
96 ,19.1056 ,1.23521 ,3.40948 ,33.45383 
97 ,19.3135 ,1.23730 ,3.39921 ,33.35310 
98 ,19.5373 ,1.23952 ,3.37526 ,33.11805 
99 ,19.7299 ,1.24149 ,3.38210 ,33.18520 
100 ,19.9382 ,1.24356 ,3.33419 ,32.71511 
101 ,20.1301 ,1.24541 ,3.32051 ,32.58080 
102 ,20.3222 ,1.24741 ,3.31024 ,32.48006 
103 ,20.5143 ,1.24931 ,3.30682 ,32.44648 
104 ,20.7063 ,1.25121 ,3.27944 ,32.17786 
105 ,20.9144 ,1.25332 ,3.27259 ,32.11070 
106 ,21.1066 ,1.25520 ,3.24864 ,31.87565 
107 ,21.2983 ,1.25710 ,3.23153 ,31.70776 
108 ,21.4905 ,1.25908 ,3.21442 ,31.53987 
109 ,21.6822 ,1.26095 ,3.19731 ,31.37198 
110 ,21.8748 ,1.26290 ,3.17677 ,31.17051 
111 ,22.0828 ,1.26497 ,3.15282 ,30.93546 
112 ,22.2750 ,1.26689 ,3.14940 ,30.90188 
113 ,22.4829 ,1.26896 ,3.12886 ,30.70041 
114 ,22.6752 ,1.27087 ,3.11860 ,30.59968 
115 ,22.8672 ,1.27281 ,3.09464 ,30.36463 
116 ,23.0752 ,1.27490 ,3.08780 ,30.29747 
117 ,23.2673 ,1.27679 ,3.07411 ,30.16316 
118 ,23.4753 ,1.27898 ,3.07069 ,30.12958 
119 ,23.6673 ,1.28077 ,3.04331 ,29.86095 
120 ,23.8593 ,1.28277 ,3.01935 ,29.62590 
121 ,24.0676 ,1.28485 ,3.01251 ,29.55875 
122 ,24.2757 ,1.28689 ,3.00224 ,29.45801 
123 ,24.4833 ,1.28889 ,2.97829 ,29.22297 
124 ,24.6757 ,1.29086 ,2.94407 ,28.88718 
125 ,24.8836 ,1.29298 ,2.93380 ,28.78645 
126 ,25.0757 ,1.29485 ,2.92353 ,28.68571 
127 ,25.2841 ,1.29699 ,2.90642 ,28.51782 
128 ,25.4920 ,1.29908 ,2.90300 ,28.48424 
129 ,25.6842 ,1.30097 ,2.87562 ,28.21562 
130 ,25.8925 ,1.30294 ,2.85851 ,28.04772 
131 ,26.0840 ,1.30498 ,2.84825 ,27.94699 
132 ,26.2767 ,1.30689 ,2.82087 ,27.67836 
133 ,26.4846 ,1.30897 ,2.81745 ,27.64479 
134 ,26.6928 ,1.31094 ,2.78322 ,27.30900 
135 ,26.9007 ,1.31308 ,2.77638 ,27.24185 
136 ,27.0928 ,1.31504 ,2.76269 ,27.10753 
137 ,27.2849 ,1.31695 ,2.75927 ,27.07395 
138 ,27.4929 ,1.31909 ,2.71478 ,26.63744 
139 ,27.7011 ,1.32103 ,2.71478 ,26.63744 
140 ,27.8933 ,1.32302 ,2.70794 ,26.57028 
141 ,28.1012 ,1.32515 ,2.68398 ,26.33523 
142 ,28.2929 ,1.32702 ,2.67029 ,26.20092 
143 ,28.4855 ,1.32898 ,2.66687 ,26.16734 
144 ,28.6936 ,1.33104 ,2.64634 ,25.96587 
145 ,28.8856 ,1.33299 ,2.63949 ,25.89871 
146 ,29.0778 ,1.33495 ,2.60185 ,25.52935 
147 ,29.2698 ,1.33686 ,2.61212 ,25.63009 
148 ,29.4777 ,1.33885 ,2.57105 ,25.22715 
149 ,29.6700 ,1.34081 ,2.58816 ,25.39504 
150 ,29.8622 ,1.34274 ,2.55394 ,25.05926 
151 ,30.0541 ,1.34465 ,2.52998 ,24.82421 
152 ,30.2623 ,1.34671 ,2.51630 ,24.68989 
153 ,30.4554 ,1.34866 ,2.49918 ,24.52200 
154 ,30.6783 ,1.35094 ,2.48892 ,24.42127 
155 ,30.8862 ,1.35303 ,2.48207 ,24.35411 
156 ,31.0786 ,1.35490 ,2.45812 ,24.11906 
157 ,31.3028 ,1.35701 ,2.44785 ,24.01833 
158 ,31.4947 ,1.35907 ,2.41705 ,23.71612 
159 ,31.7028 ,1.36115 ,2.42732 ,23.81686 
160 ,31.9110 ,1.36322 ,2.39652 ,23.51465 
161 ,32.1187 ,1.36522 ,2.39652 ,23.51465 
162 ,32.3270 ,1.36733 ,2.37599 ,23.31318 
163 ,32.5192 ,1.36927 ,2.35545 ,23.11171 
164 ,32.7272 ,1.37137 ,2.33492 ,22.91024 
165 ,32.9189 ,1.37331 ,2.31439 ,22.70877 
166 ,33.1108 ,1.37523 ,2.30412 ,22.60804 
167 ,33.3031 ,1.37716 ,2.30412 ,22.60804 
168 ,33.5435 ,1.37958 ,2.27674 ,22.33941 
169 ,33.7675 ,1.38169 ,2.26306 ,22.20510 
170 ,33.9595 ,1.38366 ,2.24252 ,22.00363 
171 ,34.1519 ,1.38568 ,2.22541 ,21.83574 
172 ,34.3441 ,1.38755 ,2.22541 ,21.83574 
173 ,34.5520 ,1.38959 ,2.19803 ,21.56711 
174 ,34.7442 ,1.39157 ,2.19803 ,21.56711 
175 ,34.9522 ,1.39363 ,2.16381 ,21.23133 
176 ,35.1603 ,1.39568 ,2.16381 ,21.23133 
177 ,35.3524 ,1.39762 ,2.13986 ,20.99628 
178 ,35.5446 ,1.39956 ,2.14328 ,21.02986 
179 ,35.7525 ,1.40164 ,2.10221 ,20.62692 
180 ,35.9446 ,1.40361 ,2.09879 ,20.59334 
181 ,36.1366 ,1.40545 ,2.07826 ,20.39187 
182 ,36.3287 ,1.40736 ,2.07141 ,20.32472 
183 ,36.5368 ,1.40947 ,2.05430 ,20.15682 
184 ,36.7450 ,1.41145 ,2.04061 ,20.02251 
185 ,36.9526 ,1.41363 ,2.01666 ,19.78746 
186 ,37.1453 ,1.41558 ,2.03035 ,19.92178 
187 ,37.3531 ,1.41760 ,1.97902 ,19.41810 
188 ,37.5454 ,1.41953 ,1.99955 ,19.61957 
189 ,37.7534 ,1.42163 ,1.95506 ,19.18305 
190 ,37.9614 ,1.42373 ,1.95506 ,19.18305 
191 ,38.1535 ,1.42561 ,1.94137 ,19.04874 
192 ,38.3617 ,1.42772 ,1.93453 ,18.98158 
193 ,38.5537 ,1.42961 ,1.90031 ,18.64580 
194 ,38.7616 ,1.43170 ,1.90715 ,18.71296 
195 ,38.9538 ,1.43364 ,1.87977 ,18.44433 
196 ,39.1456 ,1.43549 ,1.87977 ,18.44433 
197 ,39.3380 ,1.43750 ,1.84897 ,18.14213 
198 ,39.5461 ,1.43954 ,1.83871 ,18.04139 
199 ,39.7539 ,1.44160 ,1.82844 ,17.94066 
200 ,39.9464 ,1.44353 ,1.83186 ,17.97423 
201 ,40.1542 ,1.44565 ,1.79080 ,17.57129 
202 ,40.3625 ,1.44769 ,1.80106 ,17.67203 
203 ,40.5545 ,1.44966 ,1.77711 ,17.43698 
204 ,40.7627 ,1.45173 ,1.76684 ,17.33625 
205 ,40.9549 ,1.45362 ,1.73262 ,17.00046 
206 ,41.1629 ,1.45570 ,1.74631 ,17.13478 
207 ,41.3544 ,1.45760 ,1.72235 ,16.89973 
208 ,41.5471 ,1.45958 ,1.69498 ,16.63110 
209 ,41.7550 ,1.46162 ,1.68471 ,16.53037 
210 ,41.9472 ,1.46352 ,1.67102 ,16.39605 
211 ,42.1553 ,1.46563 ,1.64364 ,16.12743 
212 ,42.3476 ,1.46753 ,1.64364 ,16.12743 
213 ,42.5874 ,1.46996 ,1.62311 ,15.92596 
214 ,42.7795 ,1.47181 ,1.63338 ,16.02669 
215 ,42.9716 ,1.47381 ,1.59916 ,15.69091 
216 ,43.1796 ,1.47580 ,1.59573 ,15.65733 
217 ,43.3718 ,1.47776 ,1.56151 ,15.32155 
218 ,43.5635 ,1.47967 ,1.56493 ,15.35513 
219 ,43.7559 ,1.48161 ,1.55467 ,15.25439 
220 ,43.9640 ,1.48370 ,1.54782 ,15.18724 
221 ,44.1720 ,1.48579 ,1.52045 ,14.91861 
222 ,44.3641 ,1.48770 ,1.50676 ,14.78430 
223 ,44.5562 ,1.48962 ,1.48965 ,14.61640 
224 ,44.7480 ,1.49150 ,1.46569 ,14.38136 
225 ,44.9563 ,1.49359 ,1.46911 ,14.41493 
226 ,45.1485 ,1.49551 ,1.44858 ,14.21346 
227 ,45.3405 ,1.49749 ,1.45200 ,14.24704 
228 ,45.5326 ,1.49936 ,1.42462 ,13.97842 
229 ,45.7082 ,1.50124 ,1.40751 ,13.81053 
230 ,45.9008 ,1.50310 ,1.40409 ,13.77695 
231 ,46.1087 ,1.50517 ,1.37671 ,13.50832 
232 ,46.3009 ,1.50704 ,1.38014 ,13.54190 
233 ,46.4930 ,1.50901 ,1.36303 ,13.37401 
234 ,46.7010 ,1.51108 ,1.34934 ,13.23969 
235 ,46.8931 ,1.51296 ,1.31854 ,12.93749 
236 ,47.0851 ,1.51490 ,1.31169 ,12.87033 
237 ,47.2773 ,1.51679 ,1.31854 ,12.93749 
238 ,47.4851 ,1.51888 ,1.29116 ,12.66886 
239 ,47.6772 ,1.52080 ,1.29116 ,12.66886 
240 ,47.8853 ,1.52284 ,1.26036 ,12.36666 
241 ,48.0778 ,1.52479 ,1.26720 ,12.43381 
242 ,48.2858 ,1.52689 ,1.22956 ,12.06445 
243 ,48.4774 ,1.52880 ,1.23983 ,12.16519 
244 ,48.6859 ,1.53087 ,1.20903 ,11.86298 
245 ,48.8939 ,1.53298 ,1.20561 ,11.82941 
246 ,49.0861 ,1.53489 ,1.17138 ,11.49362 
247 ,49.2939 ,1.53701 ,1.16796 ,11.46004 
248 ,49.4861 ,1.53893 ,1.14401 ,11.22500 
249 ,49.6781 ,1.54080 ,1.15427 ,11.32573 
250 ,49.8703 ,1.54269 ,1.12005 ,10.98995 
251 ,50.0460 ,1.54463 ,1.10979 ,10.88921 
252 ,50.2385 ,1.54642 ,1.12347 ,11.02353 
253 ,50.4464 ,1.54855 ,1.07899 ,10.58701 
254 ,50.6385 ,1.55043 ,1.08583 ,10.65416 
255 ,50.8467 ,1.55250 ,1.04476 ,10.25123 
256 ,51.0548 ,1.55460 ,1.05845 ,10.38554 
257 ,51.2470 ,1.55647 ,1.02423 ,10.04976 
258 ,51.4390 ,1.55848 ,1.04134 ,10.21765 
259 ,51.6631 ,1.56062 ,1.01054 ,9.91544 
260 ,51.8711 ,1.56273 ,1.00028 ,9.81471 
261 ,52.0792 ,1.56470 ,0.99343 ,9.74755 
262 ,52.2873 ,1.56689 ,0.96263 ,9.44535 
263 ,52.4950 ,1.56897 ,0.97290 ,9.54608 
264 ,52.6874 ,1.57088 ,0.93868 ,9.21030 
265 ,52.8952 ,1.57295 ,0.94210 ,9.24388 
266 ,53.1036 ,1.57493 ,0.91472 ,8.97525 
267 ,53.3113 ,1.57718 ,0.90446 ,8.87451 
268 ,53.5038 ,1.57907 ,0.88050 ,8.63947 
269 ,53.7118 ,1.58116 ,0.88392 ,8.67305 
270 ,53.9035 ,1.58305 ,0.85312 ,8.37084 
271 ,54.1115 ,1.58511 ,0.87366 ,8.57231 
272 ,54.3035 ,1.58712 ,0.83943 ,8.23653 
273 ,54.4956 ,1.58898 ,0.83601 ,8.20295 
274 ,54.7198 ,1.59117 ,0.82917 ,8.13579 
275 ,54.9277 ,1.59324 ,0.80863 ,7.93432 
276 ,55.1199 ,1.59525 ,0.78468 ,7.69927 
277 ,55.3119 ,1.59720 ,0.78468 ,7.69927 
278 ,55.5041 ,1.59906 ,0.76415 ,7.49780 
279 ,55.7121 ,1.60114 ,0.77099 ,7.56496 
280 ,55.9205 ,1.60315 ,0.73677 ,7.22918 
281 ,56.1449 ,1.60534 ,0.72650 ,7.12844 
282 ,56.3369 ,1.60738 ,0.72650 ,7.12844 
283 ,56.5452 ,1.60948 ,0.70597 ,6.92697 
284 ,56.7526 ,1.61153 ,0.70597 ,6.92697 
285 ,56.9453 ,1.61343 ,0.67517 ,6.62477 
286 ,57.1533 ,1.61554 ,0.68201 ,6.69193 
287 ,57.3775 ,1.61768 ,0.65464 ,6.42330 
288 ,57.5694 ,1.61972 ,0.64437 ,6.32256 
289 ,57.7610 ,1.62163 ,0.61357 ,6.02036 
290 ,57.9532 ,1.62356 ,0.63753 ,6.25541 
291 ,58.1459 ,1.62547 ,0.60330 ,5.91962 
292 ,58.3538 ,1.62743 ,0.59304 ,5.81889 
293 ,58.5619 ,1.62962 ,0.57935 ,5.68458 
294 ,58.7699 ,1.63162 ,0.57593 ,5.65100 
295 ,58.9779 ,1.63376 ,0.54513 ,5.34879 
296 ,59.1700 ,1.63565 ,0.55539 ,5.44953 
297 ,59.3621 ,1.63761 ,0.51775 ,5.08017 
298 ,59.5542 ,1.63955 ,0.52802 ,5.18090 
299 ,59.7465 ,1.64148 ,0.51091 ,5.01301 
300 ,59.9700 ,1.64360 ,0.50748 ,4.97943 
301 ,60.1781 ,1.64577 ,0.49380 ,4.84512 
302 ,60.4024 ,1.64787 ,0.48353 ,4.74438 
303 ,60.6105 ,1.65007 ,0.46300 ,4.54291 
304 ,60.8187 ,1.65217 ,0.43904 ,4.30787 
305 ,61.0268 ,1.65422 ,0.44246 ,4.34144 
306 ,61.2188 ,1.65619 ,0.40824 ,4.00566 
307 ,61.4110 ,1.65809 ,0.41851 ,4.10640 
308 ,61.6031 ,1.66005 ,0.39797 ,3.90493 
309 ,61.7952 ,1.66195 ,0.40140 ,3.93850 
310 ,61.9873 ,1.66387 ,0.38771 ,3.80419 
311 ,62.1791 ,1.66580 ,0.37060 ,3.63630 
312 ,62.3874 ,1.66784 ,0.35691 ,3.50199 
313 ,62.5955 ,1.66995 ,0.34664 ,3.40125 
314 ,62.8036 ,1.67205 ,0.33980 ,3.33410 
315 ,62.9957 ,1.67394 ,0.31926 ,3.13263 
316 ,63.2038 ,1.67606 ,0.30215 ,2.96473 
317 ,63.3958 ,1.67792 ,0.31242 ,3.06547 
318 ,63.6038 ,1.67995 ,0.29189 ,2.86400 
319 ,63.8120 ,1.68205 ,0.28847 ,2.83042 
320 ,64.0040 ,1.68402 ,0.26793 ,2.62895 
321 ,64.2120 ,1.68612 ,0.26793 ,2.62895 
322 ,64.4038 ,1.68804 ,0.24055 ,2.36032 
323 ,64.5963 ,1.68996 ,0.22344 ,2.19243 
324 ,64.8044 ,1.69203 ,0.22344 ,2.19243 
325 ,64.9965 ,1.69397 ,0.22002 ,2.15885 
326 ,65.1884 ,1.69584 ,0.22344 ,2.19243 
327 ,65.3966 ,1.69795 ,0.19949 ,1.95738 
328 ,65.5886 ,1.69986 ,0.18922 ,1.85665 
329 ,65.7966 ,1.70189 ,0.16185 ,1.58802 
330 ,65.9888 ,1.70385 ,0.16527 ,1.62160 
331 ,66.1810 ,1.70582 ,0.13789 ,1.35298 
332 ,66.3887 ,1.70789 ,0.15158 ,1.48729 
333 ,66.6126 ,1.70995 ,0.11736 ,1.15151 
334 ,66.8047 ,1.71203 ,0.12078 ,1.18508 
335 ,66.9972 ,1.71388 ,0.08998 ,0.88288 
336 ,67.2053 ,1.71601 ,0.08314 ,0.81572 
337 ,67.3975 ,1.71790 ,0.07629 ,0.74857 
338 ,67.6055 ,1.72005 ,0.08314 ,0.81572 
339 ,67.7972 ,1.72194 ,0.05234 ,0.51352 
340 ,67.9896 ,1.72387 ,0.07287 ,0.71499 
341 ,68.1818 ,1.72582 ,0.03180 ,0.31205 
342 ,68.3897 ,1.72782 ,0.03522 ,0.34563 
343 ,68.5820 ,1.72981 ,0.01469 ,0.14416 
344 ,68.7895 ,1.73187 ,0.01127 ,0.11058 
345 ,68.9818 ,1.73384 ,-0.00584 ,-0.05731 
346 ,69.1900 ,1.73582 ,-0.00242 ,-0.02373 
347 ,69.3823 ,1.73777 ,-0.02295 ,-0.22520 
348 ,69.5743 ,1.73970 ,-0.04006 ,-0.39310 
349 ,69.7824 ,1.74171 ,-0.04691 ,-0.46025 
350 ,69.9740 ,1.74372 ,-0.04691 ,-0.46025 
351 ,70.1980 ,1.74588 ,-0.06744 ,-0.66172 
352 ,70.3742 ,1.74781 ,-0.06402 ,-0.62814 
353 ,70.5664 ,1.74958 ,-0.07086 ,-0.69530 
354 ,70.7585 ,1.75153 ,-0.09482 ,-0.93035 
355 ,70.9663 ,1.75356 ,-0.08113 ,-0.79604 
356 ,71.1910 ,1.75571 ,-0.11535 ,-1.13182 
357 ,71.3988 ,1.75791 ,-0.13588 ,-1.33329 
358 ,71.5911 ,1.75985 ,-0.13246 ,-1.29971 
359 ,71.7987 ,1.76195 ,-0.15299 ,-1.50118 
360 ,71.9912 ,1.76382 ,-0.15642 ,-1.53476 
361 ,72.1830 ,1.76581 ,-0.15642 ,-1.53476 
362 ,72.4074 ,1.76790 ,-0.18379 ,-1.80338 
363 ,72.6155 ,1.77010 ,-0.19406 ,-1.90412 
364 ,72.8076 ,1.77205 ,-0.19064 ,-1.87054 
365 ,72.9997 ,1.77395 ,-0.21802 ,-2.13917 
366 ,73.2071 ,1.77597 ,-0.21459 ,-2.10559 
367 ,73.3998 ,1.77788 ,-0.24197 ,-2.37422 
368 ,73.5916 ,1.77985 ,-0.25224 ,-2.47495 
369 ,73.7839 ,1.78182 ,-0.23855 ,-2.34064 
370 ,73.9761 ,1.78368 ,-0.26935 ,-2.64284 
371 ,74.1841 ,1.78577 ,-0.25908 ,-2.54211 
372 ,74.3761 ,1.78772 ,-0.28988 ,-2.84431 
373 ,74.5681 ,1.78966 ,-0.27277 ,-2.67642 
374 ,74.7605 ,1.79157 ,-0.28646 ,-2.81073 
375 ,74.9845 ,1.79377 ,-0.30015 ,-2.94505 
376 ,75.1927 ,1.79591 ,-0.33095 ,-3.24725 
377 ,75.4004 ,1.79791 ,-0.32410 ,-3.18010 
378 ,75.5927 ,1.79983 ,-0.34464 ,-3.38156 
379 ,75.7849 ,1.80180 ,-0.33437 ,-3.28083 
380 ,75.9929 ,1.80389 ,-0.36175 ,-3.54946 
381 ,76.2010 ,1.80593 ,-0.36517 ,-3.58303 
382 ,76.3930 ,1.80791 ,-0.38228 ,-3.75093 
383 ,76.6012 ,1.80988 ,-0.39255 ,-3.85166 
384 ,76.8088 ,1.81203 ,-0.40966 ,-4.01955 
385 ,77.0013 ,1.81394 ,-0.39255 ,-3.85166 
386 ,77.2091 ,1.81601 ,-0.42677 ,-4.18744 
387 ,77.4174 ,1.81802 ,-0.41650 ,-4.08671 
388 ,77.6093 ,1.82012 ,-0.43361 ,-4.25460 
389 ,77.8019 ,1.82190 ,-0.43703 ,-4.28818 
390 ,78.0096 ,1.82403 ,-0.45757 ,-4.48965 
391 ,78.2015 ,1.82595 ,-0.44730 ,-4.38891 
392 ,78.3939 ,1.82780 ,-0.47810 ,-4.69112 
393 ,78.5856 ,1.82977 ,-0.48152 ,-4.72470 
394 ,78.7779 ,1.83167 ,-0.48837 ,-4.79185 
395 ,78.9861 ,1.83377 ,-0.49521 ,-4.85901 
396 ,79.1778 ,1.83569 ,-0.51232 ,-5.02690 
397 ,79.3701 ,1.83761 ,-0.52943 ,-5.19479 
398 ,79.5623 ,1.83958 ,-0.53628 ,-5.26195 
399 ,79.7538 ,1.84153 ,-0.56365 ,-5.53058 
400 ,79.9468 ,1.84336 ,-0.55681 ,-5.46342 
401 ,80.1546 ,1.84548 ,-0.58077 ,-5.69847 
402 ,80.3470 ,1.84736 ,-0.57050 ,-5.59773 
403 ,80.5382 ,1.84930 ,-0.56365 ,-5.53058 
404 ,80.7309 ,1.85124 ,-0.60130 ,-5.89994 
405 ,80.9228 ,1.85328 ,-0.58419 ,-5.73205 
406 ,81.1149 ,1.85503 ,-0.60814 ,-5.96709 
407 ,81.3070 ,1.85697 ,-0.60814 ,-5.96709 
408 ,81.4991 ,1.85892 ,-0.61841 ,-6.06783 
409 ,81.7393 ,1.86133 ,-0.61499 ,-6.03425 
410 ,81.9469 ,1.86341 ,-0.65263 ,-6.40361 
411 ,82.1395 ,1.86535 ,-0.64236 ,-6.30288 
412 ,82.3475 ,1.86736 ,-0.66632 ,-6.53793 
413 ,82.5395 ,1.86929 ,-0.65263 ,-6.40361 
414 ,82.7317 ,1.87122 ,-0.68343 ,-6.70582 
415 ,82.9398 ,1.87328 ,-0.67316 ,-6.60508 
416 ,83.1317 ,1.87525 ,-0.70396 ,-6.90729 
417 ,83.3238 ,1.87719 ,-0.69712 ,-6.84013 
418 ,83.5159 ,1.87905 ,-0.71081 ,-6.97444 
419 ,83.7078 ,1.88099 ,-0.72450 ,-7.10876 
420 ,83.9000 ,1.88290 ,-0.72450 ,-7.10876 
421 ,84.0918 ,1.88481 ,-0.74161 ,-7.27665 
422 ,84.2843 ,1.88676 ,-0.75530 ,-7.41096 
423 ,84.4921 ,1.88883 ,-0.76898 ,-7.54527 
424 ,84.7325 ,1.89119 ,-0.78267 ,-7.67959 
425 ,84.9407 ,1.89329 ,-0.77925 ,-7.64601 
426 ,85.1327 ,1.89525 ,-0.79636 ,-7.81390 
427 ,85.3244 ,1.89721 ,-0.79294 ,-7.78032 
428 ,85.5168 ,1.89906 ,-0.79636 ,-7.81390 
429 ,85.7086 ,1.90096 ,-0.82032 ,-8.04895 
430 ,85.9169 ,1.90303 ,-0.81005 ,-7.94821 
431 ,86.1085 ,1.90500 ,-0.84427 ,-8.28400 
432 ,86.3007 ,1.90688 ,-0.82374 ,-8.08253 
433 ,86.5091 ,1.90898 ,-0.85796 ,-8.41831 
434 ,86.7172 ,1.91102 ,-0.85796 ,-8.41831 
435 ,86.9093 ,1.91294 ,-0.86138 ,-8.45189 
436 ,87.1172 ,1.91501 ,-0.87165 ,-8.55262 
437 ,87.3092 ,1.91696 ,-0.89903 ,-8.82125 
438 ,87.4852 ,1.91883 ,-0.88192 ,-8.65336 
439 ,87.7738 ,1.92115 ,-0.89560 ,-8.78767 
440 ,87.9657 ,1.92357 ,-0.91614 ,-8.98914 
441 ,88.1577 ,1.92545 ,-0.91614 ,-8.98914 
442 ,88.3499 ,1.92741 ,-0.94351 ,-9.25777 
443 ,88.5416 ,1.92929 ,-0.94009 ,-9.22419 
444 ,88.7501 ,1.93129 ,-0.95036 ,-9.32492 
445 ,88.9580 ,1.93348 ,-0.94351 ,-9.25777 
446 ,89.1503 ,1.93539 ,-0.98116 ,-9.62713 
447 ,89.3424 ,1.93730 ,-0.97089 ,-9.52639 
448 ,89.5342 ,1.93923 ,-0.99485 ,-9.76144 
449 ,89.7264 ,1.94114 ,-1.00511 ,-9.86218 
450 ,89.9184 ,1.94302 ,-0.98800 ,-9.69429 
451 ,90.1102 ,1.94495 ,-1.00854 ,-9.89576 
452 ,90.3022 ,1.94692 ,-1.02222 ,-10.03007 
453 ,90.5108 ,1.94888 ,-1.02222 ,-10.03007 
454 ,90.7024 ,1.95091 ,-1.03249 ,-10.13080 
455 ,90.9270 ,1.95318 ,-1.05302 ,-10.33227 
456 ,91.1351 ,1.95522 ,-1.04276 ,-10.23154 
457 ,91.3430 ,1.95729 ,-1.06671 ,-10.46659 
458 ,91.5351 ,1.95919 ,-1.06671 ,-10.46659 
459 ,91.7591 ,1.96139 ,-1.07356 ,-10.53374 
460 ,91.9515 ,1.96339 ,-1.08382 ,-10.63448 
461 ,92.1595 ,1.96547 ,-1.09409 ,-10.73521 
462 ,92.3517 ,1.96735 ,-1.11120 ,-10.90310 
