Data stamp = , 29-04-2022 15:54:18 429

Calibration Values: 
Slope = , 26.54 , g/V 
Offset Voltage at no contact = , -0.501760 , V 

No , Time , Stage Position ,   Mass , Force 
   ,  (s) ,      (mm)      ,   (g)  , (mN)  

1 ,0.0000 ,0.99948 ,5.44567 ,53.43292 
2 ,0.2141 ,0.99956 ,5.44225 ,53.39934 
3 ,0.8708 ,1.00211 ,5.45594 ,53.53366 
4 ,1.0786 ,1.00490 ,5.45251 ,53.50008 
5 ,1.2708 ,1.00688 ,5.44567 ,53.43292 
6 ,1.4788 ,1.00896 ,5.42856 ,53.26503 
7 ,1.6868 ,1.01099 ,5.40803 ,53.06356 
8 ,1.8790 ,1.01303 ,5.38749 ,52.86209 
9 ,2.0712 ,1.01493 ,5.38065 ,52.79493 
10 ,2.2632 ,1.01685 ,5.37381 ,52.72778 
11 ,2.4709 ,1.01889 ,5.32932 ,52.29126 
12 ,2.6635 ,1.02083 ,5.32247 ,52.22410 
13 ,2.8554 ,1.02274 ,5.28825 ,51.88832 
14 ,3.0474 ,1.02469 ,5.27798 ,51.78758 
15 ,3.2395 ,1.02659 ,5.25403 ,51.55254 
16 ,3.4317 ,1.02852 ,5.25403 ,51.55254 
17 ,3.6557 ,1.03071 ,5.21639 ,51.18317 
18 ,3.8639 ,1.03288 ,5.20954 ,51.11602 
19 ,4.0559 ,1.03473 ,5.16163 ,50.64592 
20 ,4.2638 ,1.03685 ,5.16848 ,50.71308 
21 ,4.4561 ,1.03879 ,5.13425 ,50.37729 
22 ,4.6641 ,1.04081 ,5.13425 ,50.37729 
23 ,4.8564 ,1.04276 ,5.10003 ,50.04151 
24 ,5.0485 ,1.04470 ,5.09661 ,50.00793 
25 ,5.2405 ,1.04663 ,5.06923 ,49.73931 
26 ,5.4486 ,1.04864 ,5.06581 ,49.70573 
27 ,5.6406 ,1.05061 ,5.02132 ,49.26921 
28 ,5.8486 ,1.05262 ,5.00079 ,49.06774 
29 ,6.0568 ,1.05477 ,4.98026 ,48.86627 
30 ,6.2489 ,1.05673 ,4.96657 ,48.73196 
31 ,6.4567 ,1.05872 ,4.94261 ,48.49691 
32 ,6.6491 ,1.06072 ,4.92208 ,48.29544 
33 ,6.8568 ,1.06275 ,4.91523 ,48.22828 
34 ,7.0493 ,1.06464 ,4.90155 ,48.09397 
35 ,7.2572 ,1.06667 ,4.88444 ,47.92608 
36 ,7.4653 ,1.06887 ,4.86390 ,47.72461 
37 ,7.6573 ,1.07072 ,4.81941 ,47.28809 
38 ,7.8491 ,1.07272 ,4.81941 ,47.28809 
39 ,8.0417 ,1.07464 ,4.80915 ,47.18736 
40 ,8.2498 ,1.07667 ,4.77835 ,46.88515 
41 ,8.4414 ,1.07864 ,4.77150 ,46.81800 
42 ,8.6339 ,1.08052 ,4.73728 ,46.48221 
43 ,8.8420 ,1.08257 ,4.71675 ,46.28074 
44 ,9.0501 ,1.08463 ,4.70306 ,46.14643 
45 ,9.2422 ,1.08664 ,4.69279 ,46.04569 
46 ,9.4502 ,1.08871 ,4.67568 ,45.87780 
47 ,9.6423 ,1.09063 ,4.65173 ,45.64275 
48 ,9.8503 ,1.09274 ,4.62777 ,45.40771 
49 ,10.0580 ,1.09476 ,4.60040 ,45.13908 
50 ,10.2505 ,1.09675 ,4.58671 ,45.00477 
51 ,10.4586 ,1.09873 ,4.56617 ,44.80330 
52 ,10.6504 ,1.10066 ,4.55249 ,44.66898 
53 ,10.8587 ,1.10279 ,4.54222 ,44.56825 
54 ,11.0668 ,1.10484 ,4.52169 ,44.36678 
55 ,11.2587 ,1.10677 ,4.50800 ,44.23247 
56 ,11.4509 ,1.10872 ,4.48062 ,43.96384 
57 ,11.6591 ,1.11075 ,4.46351 ,43.79595 
58 ,11.8509 ,1.11263 ,4.43955 ,43.56090 
59 ,12.0434 ,1.11462 ,4.43613 ,43.52732 
60 ,12.2350 ,1.11655 ,4.40533 ,43.22512 
61 ,12.4275 ,1.11848 ,4.40191 ,43.19154 
62 ,12.6353 ,1.12054 ,4.36427 ,42.82218 
63 ,12.8278 ,1.12243 ,4.35058 ,42.68786 
64 ,13.0355 ,1.12450 ,4.33004 ,42.48639 
65 ,13.2280 ,1.12647 ,4.31978 ,42.38566 
66 ,13.4198 ,1.12837 ,4.31293 ,42.31850 
67 ,13.6119 ,1.13029 ,4.27871 ,41.98272 
68 ,13.8039 ,1.13219 ,4.28556 ,42.04988 
69 ,13.9960 ,1.13414 ,4.24791 ,41.68051 
70 ,14.1880 ,1.13602 ,4.23765 ,41.57978 
71 ,14.3803 ,1.13794 ,4.22738 ,41.47905 
72 ,14.6042 ,1.14010 ,4.19316 ,41.14326 
73 ,14.8124 ,1.14243 ,4.18289 ,41.04253 
74 ,15.0044 ,1.14420 ,4.18289 ,41.04253 
75 ,15.1965 ,1.14609 ,4.14867 ,40.70674 
76 ,15.3888 ,1.14807 ,4.12471 ,40.47170 
77 ,15.5808 ,1.15007 ,4.10760 ,40.30380 
78 ,15.7730 ,1.15186 ,4.08365 ,40.06876 
79 ,15.9810 ,1.15386 ,4.08365 ,40.06876 
80 ,16.1889 ,1.15609 ,4.04600 ,39.69940 
81 ,16.3811 ,1.15791 ,4.04600 ,39.69940 
82 ,16.5572 ,1.15982 ,4.01178 ,39.36361 
83 ,16.7493 ,1.16167 ,4.01178 ,39.36361 
84 ,16.9574 ,1.16373 ,3.98098 ,39.06141 
85 ,17.1654 ,1.16571 ,3.96387 ,38.89352 
86 ,17.3575 ,1.16772 ,3.96045 ,38.85994 
87 ,17.5654 ,1.16969 ,3.93307 ,38.59131 
88 ,17.7573 ,1.17186 ,3.91254 ,38.38984 
89 ,17.9657 ,1.17367 ,3.91254 ,38.38984 
90 ,18.1578 ,1.17574 ,3.88174 ,38.08764 
91 ,18.3659 ,1.17771 ,3.87147 ,37.98690 
92 ,18.5738 ,1.17988 ,3.84752 ,37.75185 
93 ,18.7816 ,1.18193 ,3.83383 ,37.61754 
94 ,18.9896 ,1.18400 ,3.80987 ,37.38249 
95 ,19.1821 ,1.18595 ,3.79961 ,37.28176 
96 ,19.4064 ,1.18819 ,3.78592 ,37.14744 
97 ,19.5981 ,1.19011 ,3.76881 ,36.97955 
98 ,19.7904 ,1.19206 ,3.74485 ,36.74450 
99 ,19.9822 ,1.19399 ,3.75170 ,36.81166 
100 ,20.1906 ,1.19598 ,3.71405 ,36.44230 
101 ,20.3987 ,1.19811 ,3.69010 ,36.20725 
102 ,20.5908 ,1.20005 ,3.67299 ,36.03936 
103 ,20.7829 ,1.20196 ,3.66614 ,35.97220 
104 ,20.9904 ,1.20403 ,3.63192 ,35.63642 
105 ,21.1825 ,1.20601 ,3.63877 ,35.70358 
106 ,21.3589 ,1.20780 ,3.59428 ,35.26706 
107 ,21.5510 ,1.20965 ,3.59770 ,35.30064 
108 ,21.7432 ,1.21149 ,3.60454 ,35.36779 
109 ,21.9511 ,1.21372 ,3.54979 ,34.83054 
110 ,22.1433 ,1.21551 ,3.57032 ,35.03201 
111 ,22.3674 ,1.21767 ,3.51557 ,34.49476 
112 ,22.5754 ,1.21987 ,3.51215 ,34.46118 
113 ,22.7676 ,1.22185 ,3.49846 ,34.32687 
114 ,22.9753 ,1.22384 ,3.47792 ,34.12540 
115 ,23.1513 ,1.22573 ,3.47792 ,34.12540 
116 ,23.3597 ,1.22773 ,3.45397 ,33.89035 
117 ,23.5517 ,1.22975 ,3.43686 ,33.72246 
118 ,23.7440 ,1.23152 ,3.41975 ,33.55457 
119 ,23.9359 ,1.23350 ,3.40264 ,33.38667 
120 ,24.1280 ,1.23537 ,3.37526 ,33.11805 
121 ,24.3361 ,1.23747 ,3.36157 ,32.98374 
122 ,24.5282 ,1.23939 ,3.35473 ,32.91658 
123 ,24.7203 ,1.24131 ,3.32051 ,32.58080 
124 ,24.9285 ,1.24337 ,3.31366 ,32.51364 
125 ,25.1204 ,1.24534 ,3.29997 ,32.37933 
126 ,25.3121 ,1.24723 ,3.27602 ,32.14428 
127 ,25.5046 ,1.24914 ,3.26917 ,32.07712 
128 ,25.7127 ,1.25125 ,3.23153 ,31.70776 
129 ,25.9048 ,1.25315 ,3.23837 ,31.77492 
130 ,26.0969 ,1.25509 ,3.22126 ,31.60702 
131 ,26.2890 ,1.25701 ,3.19731 ,31.37198 
132 ,26.4805 ,1.25889 ,3.20415 ,31.43913 
133 ,26.6731 ,1.26082 ,3.16651 ,31.06977 
134 ,26.8647 ,1.26278 ,3.16309 ,31.03619 
135 ,27.0412 ,1.26459 ,3.13229 ,30.73399 
136 ,27.2493 ,1.26659 ,3.11518 ,30.56610 
137 ,27.4416 ,1.26855 ,3.11518 ,30.56610 
138 ,27.6495 ,1.27057 ,3.08780 ,30.29747 
139 ,27.8415 ,1.27252 ,3.08095 ,30.23031 
140 ,28.0335 ,1.27440 ,3.05015 ,29.92811 
141 ,28.2259 ,1.27634 ,3.05700 ,29.99527 
142 ,28.4179 ,1.27828 ,3.03647 ,29.79380 
143 ,28.6095 ,1.28023 ,3.00567 ,29.49159 
144 ,28.8020 ,1.28214 ,2.98855 ,29.32370 
145 ,29.0101 ,1.28418 ,2.97829 ,29.22297 
146 ,29.2021 ,1.28615 ,2.97144 ,29.15581 
147 ,29.4102 ,1.28812 ,2.94749 ,28.92076 
148 ,29.6181 ,1.29027 ,2.92353 ,28.68571 
149 ,29.8103 ,1.29221 ,2.91327 ,28.58498 
150 ,30.0023 ,1.29412 ,2.90642 ,28.51782 
151 ,30.1944 ,1.29604 ,2.87905 ,28.24919 
152 ,30.3865 ,1.29794 ,2.87562 ,28.21562 
153 ,30.5626 ,1.29983 ,2.84140 ,27.87983 
154 ,30.7704 ,1.30179 ,2.82429 ,27.71194 
155 ,30.9628 ,1.30374 ,2.83798 ,27.84625 
156 ,31.1707 ,1.30584 ,2.79691 ,27.44332 
157 ,31.3630 ,1.30770 ,2.81060 ,27.57763 
158 ,31.5708 ,1.30977 ,2.78665 ,27.34258 
159 ,31.7631 ,1.31168 ,2.76954 ,27.17469 
160 ,31.9550 ,1.31361 ,2.72847 ,26.77175 
161 ,32.1474 ,1.31550 ,2.72847 ,26.77175 
162 ,32.3391 ,1.31747 ,2.70452 ,26.53670 
163 ,32.5315 ,1.31934 ,2.70452 ,26.53670 
164 ,32.7234 ,1.32126 ,2.68740 ,26.36881 
165 ,32.9156 ,1.32321 ,2.66345 ,26.13376 
166 ,33.1235 ,1.32537 ,2.67029 ,26.20092 
167 ,33.3478 ,1.32753 ,2.64634 ,25.96587 
168 ,33.5556 ,1.32961 ,2.61212 ,25.63009 
169 ,33.7479 ,1.33158 ,2.59843 ,25.49577 
170 ,33.9561 ,1.33362 ,2.57447 ,25.26073 
171 ,34.1479 ,1.33557 ,2.57105 ,25.22715 
172 ,34.3562 ,1.33757 ,2.54710 ,24.99210 
173 ,34.5483 ,1.33952 ,2.53341 ,24.85779 
174 ,34.7404 ,1.34145 ,2.52998 ,24.82421 
175 ,34.9645 ,1.34363 ,2.50603 ,24.58916 
176 ,35.1722 ,1.34582 ,2.48550 ,24.38769 
177 ,35.3646 ,1.34776 ,2.47865 ,24.32053 
178 ,35.5567 ,1.34974 ,2.46496 ,24.18622 
179 ,35.7487 ,1.35158 ,2.44785 ,24.01833 
180 ,35.9408 ,1.35344 ,2.42390 ,23.78328 
181 ,36.1329 ,1.35538 ,2.39652 ,23.51465 
182 ,36.3086 ,1.35726 ,2.39310 ,23.48108 
183 ,36.5012 ,1.35908 ,2.38283 ,23.38034 
184 ,36.6929 ,1.36105 ,2.36230 ,23.17887 
185 ,36.9012 ,1.36305 ,2.35888 ,23.14529 
186 ,37.0933 ,1.36503 ,2.32465 ,22.80951 
187 ,37.2854 ,1.36694 ,2.32808 ,22.84309 
188 ,37.4774 ,1.36881 ,2.32123 ,22.77593 
189 ,37.6694 ,1.37074 ,2.29385 ,22.50731 
190 ,37.8614 ,1.37268 ,2.28701 ,22.44015 
191 ,38.0534 ,1.37461 ,2.25621 ,22.13794 
192 ,38.2459 ,1.37652 ,2.24937 ,22.07079 
193 ,38.4374 ,1.37857 ,2.23226 ,21.90290 
194 ,38.6300 ,1.38036 ,2.22541 ,21.83574 
195 ,38.8541 ,1.38249 ,2.19119 ,21.49996 
196 ,39.0462 ,1.38456 ,2.19803 ,21.56711 
197 ,39.2699 ,1.38676 ,2.18435 ,21.43280 
198 ,39.4781 ,1.38892 ,2.15355 ,21.13059 
199 ,39.6862 ,1.39092 ,2.16381 ,21.23133 
200 ,39.8785 ,1.39281 ,2.12959 ,20.89555 
201 ,40.1025 ,1.39498 ,2.12275 ,20.82839 
202 ,40.2947 ,1.39704 ,2.07826 ,20.39187 
203 ,40.5026 ,1.39911 ,2.09879 ,20.59334 
204 ,40.6783 ,1.40092 ,2.06457 ,20.25756 
205 ,40.8708 ,1.40274 ,2.04746 ,20.08967 
206 ,41.0628 ,1.40470 ,2.05088 ,20.12325 
207 ,41.2550 ,1.40657 ,2.01666 ,19.78746 
208 ,41.4627 ,1.40867 ,2.02008 ,19.82104 
209 ,41.6386 ,1.41052 ,1.99270 ,19.55241 
210 ,41.8307 ,1.41233 ,1.97559 ,19.38452 
211 ,42.0070 ,1.41425 ,1.98244 ,19.45168 
212 ,42.2151 ,1.41610 ,1.95506 ,19.18305 
213 ,42.4072 ,1.41810 ,1.94822 ,19.11590 
214 ,42.6155 ,1.42016 ,1.91057 ,18.74654 
215 ,42.8230 ,1.42228 ,1.91399 ,18.78011 
216 ,43.0316 ,1.42427 ,1.89004 ,18.54507 
217 ,43.2237 ,1.42629 ,1.88662 ,18.51149 
218 ,43.4317 ,1.42830 ,1.86951 ,18.34360 
219 ,43.6398 ,1.43045 ,1.85582 ,18.20928 
220 ,43.8319 ,1.43237 ,1.84555 ,18.10855 
221 ,44.0236 ,1.43428 ,1.83871 ,18.04139 
222 ,44.2321 ,1.43626 ,1.79764 ,17.63845 
223 ,44.4561 ,1.43851 ,1.80449 ,17.70561 
224 ,44.6482 ,1.44053 ,1.78395 ,17.50414 
225 ,44.8405 ,1.44244 ,1.77369 ,17.40340 
226 ,45.0320 ,1.44439 ,1.75315 ,17.20193 
227 ,45.2244 ,1.44627 ,1.73946 ,17.06762 
228 ,45.4006 ,1.44815 ,1.71893 ,16.86615 
229 ,45.5927 ,1.44996 ,1.70524 ,16.73184 
230 ,45.7847 ,1.45192 ,1.69840 ,16.66468 
231 ,45.9768 ,1.45380 ,1.68813 ,16.56395 
232 ,46.1687 ,1.45572 ,1.68129 ,16.49679 
233 ,46.3610 ,1.45769 ,1.65049 ,16.19458 
234 ,46.5531 ,1.45958 ,1.63680 ,16.06027 
235 ,46.7612 ,1.46167 ,1.62995 ,15.99311 
236 ,46.9533 ,1.46352 ,1.60942 ,15.79164 
237 ,47.1449 ,1.46549 ,1.61627 ,15.85880 
238 ,47.3374 ,1.46738 ,1.57862 ,15.48944 
239 ,47.5454 ,1.46948 ,1.57862 ,15.48944 
240 ,47.7375 ,1.47143 ,1.56151 ,15.32155 
241 ,47.9456 ,1.47347 ,1.55124 ,15.22081 
242 ,48.1374 ,1.47540 ,1.53413 ,15.05292 
243 ,48.3293 ,1.47742 ,1.51702 ,14.88503 
244 ,48.5221 ,1.47926 ,1.51360 ,14.85145 
245 ,48.7136 ,1.48115 ,1.47938 ,14.51567 
246 ,48.9219 ,1.48327 ,1.48622 ,14.58283 
247 ,49.1303 ,1.48528 ,1.48280 ,14.54925 
248 ,49.3222 ,1.48725 ,1.45885 ,14.31420 
249 ,49.5305 ,1.48929 ,1.43831 ,14.11273 
250 ,49.7384 ,1.49139 ,1.41778 ,13.91126 
251 ,49.9306 ,1.49337 ,1.41778 ,13.91126 
252 ,50.1384 ,1.49539 ,1.38698 ,13.60906 
253 ,50.3467 ,1.49743 ,1.39383 ,13.67621 
254 ,50.5223 ,1.49937 ,1.36303 ,13.37401 
255 ,50.7147 ,1.50115 ,1.35618 ,13.30685 
256 ,50.9068 ,1.50308 ,1.35960 ,13.34043 
257 ,51.0988 ,1.50500 ,1.33223 ,13.07180 
258 ,51.2909 ,1.50698 ,1.31169 ,12.87033 
259 ,51.4988 ,1.50901 ,1.29116 ,12.66886 
260 ,51.6911 ,1.51087 ,1.28432 ,12.60171 
261 ,51.8991 ,1.51302 ,1.27405 ,12.50097 
262 ,52.0912 ,1.51500 ,1.26378 ,12.40024 
263 ,52.2834 ,1.51686 ,1.25694 ,12.33308 
264 ,52.4754 ,1.51879 ,1.22614 ,12.03088 
265 ,52.6831 ,1.52080 ,1.22272 ,11.99730 
266 ,52.8756 ,1.52278 ,1.19192 ,11.69509 
267 ,53.0998 ,1.52488 ,1.19876 ,11.76225 
268 ,53.2917 ,1.52692 ,1.17481 ,11.52720 
269 ,53.5159 ,1.52905 ,1.16796 ,11.46004 
270 ,53.7079 ,1.53110 ,1.15085 ,11.29215 
271 ,53.9319 ,1.53316 ,1.13374 ,11.12426 
272 ,54.1399 ,1.53539 ,1.11663 ,10.95637 
273 ,54.3319 ,1.53736 ,1.10294 ,10.82206 
274 ,54.5403 ,1.53938 ,1.08241 ,10.62059 
275 ,54.7325 ,1.54132 ,1.07556 ,10.55343 
276 ,54.9242 ,1.54338 ,1.06187 ,10.41912 
277 ,55.1000 ,1.54510 ,1.05845 ,10.38554 
278 ,55.3083 ,1.54695 ,1.04476 ,10.25123 
279 ,55.5166 ,1.54905 ,1.01054 ,9.91544 
280 ,55.7086 ,1.55109 ,1.01396 ,9.94902 
281 ,55.9010 ,1.55298 ,0.99343 ,9.74755 
282 ,56.1091 ,1.55501 ,0.97632 ,9.57966 
283 ,56.3169 ,1.55721 ,0.96948 ,9.51250 
284 ,56.5092 ,1.55913 ,0.97290 ,9.54608 
285 ,56.7012 ,1.56097 ,0.92841 ,9.10956 
286 ,56.8933 ,1.56288 ,0.93183 ,9.14314 
287 ,57.1010 ,1.56496 ,0.91814 ,9.00883 
288 ,57.3096 ,1.56700 ,0.90788 ,8.90809 
289 ,57.5176 ,1.56919 ,0.88392 ,8.67305 
290 ,57.7257 ,1.57125 ,0.87366 ,8.57231 
291 ,57.9181 ,1.57318 ,0.85997 ,8.43800 
292 ,58.1095 ,1.57511 ,0.85997 ,8.43800 
293 ,58.3179 ,1.57716 ,0.83259 ,8.16937 
294 ,58.5261 ,1.57926 ,0.84286 ,8.27011 
295 ,58.7341 ,1.58129 ,0.80863 ,7.93432 
296 ,58.9260 ,1.58323 ,0.80521 ,7.90074 
297 ,59.1183 ,1.58512 ,0.77784 ,7.63212 
298 ,59.3103 ,1.58705 ,0.78468 ,7.69927 
299 ,59.5186 ,1.58920 ,0.74704 ,7.32991 
300 ,59.7264 ,1.59124 ,0.76072 ,7.46423 
301 ,59.9186 ,1.59318 ,0.72650 ,7.12844 
302 ,60.1266 ,1.59522 ,0.72650 ,7.12844 
303 ,60.3343 ,1.59722 ,0.71281 ,6.99413 
304 ,60.5268 ,1.59922 ,0.70939 ,6.96055 
305 ,60.7348 ,1.60131 ,0.68544 ,6.72550 
306 ,60.9271 ,1.60321 ,0.70255 ,6.89340 
307 ,61.1350 ,1.60525 ,0.67859 ,6.65835 
308 ,61.3273 ,1.60728 ,0.70255 ,6.89340 
309 ,61.5350 ,1.60930 ,0.68201 ,6.69193 
310 ,61.7433 ,1.61140 ,0.67517 ,6.62477 
311 ,61.9193 ,1.61328 ,0.66490 ,6.52403 
312 ,62.1114 ,1.61513 ,0.66148 ,6.49046 
313 ,62.3035 ,1.61701 ,0.66490 ,6.52403 
314 ,62.4953 ,1.61889 ,0.64437 ,6.32256 
315 ,62.6716 ,1.62082 ,0.64437 ,6.32256 
316 ,62.8795 ,1.62281 ,0.62042 ,6.08752 
317 ,63.0877 ,1.62480 ,0.61699 ,6.05394 
318 ,63.2799 ,1.62675 ,0.58277 ,5.71815 
319 ,63.4719 ,1.62870 ,0.58962 ,5.78531 
320 ,63.6635 ,1.63057 ,0.58277 ,5.71815 
321 ,63.8561 ,1.63251 ,0.56908 ,5.58384 
322 ,64.0642 ,1.63462 ,0.56224 ,5.51668 
323 ,64.2563 ,1.63654 ,0.53144 ,5.21448 
324 ,64.4642 ,1.63858 ,0.53144 ,5.21448 
325 ,64.6565 ,1.64054 ,0.52802 ,5.18090 
326 ,64.8644 ,1.64267 ,0.51775 ,5.08017 
327 ,65.0722 ,1.64465 ,0.49722 ,4.87870 
328 ,65.2646 ,1.64657 ,0.49037 ,4.81154 
329 ,65.4725 ,1.64869 ,0.46642 ,4.57649 
330 ,65.6647 ,1.65057 ,0.46642 ,4.57649 
331 ,65.8565 ,1.65252 ,0.43562 ,4.27429 
332 ,66.0490 ,1.65446 ,0.44588 ,4.37502 
333 ,66.2409 ,1.65647 ,0.41851 ,4.10640 
334 ,66.4488 ,1.65835 ,0.40482 ,3.97208 
335 ,66.6410 ,1.66039 ,0.39113 ,3.83777 
336 ,66.8333 ,1.66233 ,0.37744 ,3.70346 
337 ,67.0253 ,1.66419 ,0.38429 ,3.77061 
338 ,67.2173 ,1.66615 ,0.36033 ,3.53557 
339 ,67.4255 ,1.66820 ,0.36033 ,3.53557 
340 ,67.6177 ,1.67014 ,0.32611 ,3.19978 
341 ,67.8256 ,1.67221 ,0.34664 ,3.40125 
342 ,68.0013 ,1.67403 ,0.30558 ,2.99831 
343 ,68.1938 ,1.67593 ,0.29873 ,2.93116 
344 ,68.4018 ,1.67795 ,0.28162 ,2.76326 
345 ,68.5938 ,1.67985 ,0.27820 ,2.72969 
346 ,68.8020 ,1.68195 ,0.26793 ,2.62895 
347 ,68.9940 ,1.68386 ,0.25082 ,2.46106 
348 ,69.1862 ,1.68579 ,0.25424 ,2.49464 
349 ,69.4104 ,1.68805 ,0.24055 ,2.36032 
350 ,69.6185 ,1.69012 ,0.20976 ,2.05812 
351 ,69.8105 ,1.69205 ,0.22344 ,2.19243 
352 ,70.0024 ,1.69394 ,0.19949 ,1.95738 
353 ,70.1943 ,1.69587 ,0.17896 ,1.75592 
354 ,70.3868 ,1.69783 ,0.18238 ,1.78949 
355 ,70.5947 ,1.69989 ,0.16869 ,1.65518 
356 ,70.8028 ,1.70189 ,0.16527 ,1.62160 
357 ,70.9950 ,1.70390 ,0.14473 ,1.42013 
358 ,71.2030 ,1.70597 ,0.13789 ,1.35298 
359 ,71.3790 ,1.70789 ,0.11736 ,1.15151 
360 ,71.5712 ,1.70961 ,0.11393 ,1.11793 
361 ,71.7633 ,1.71156 ,0.08656 ,0.84930 
362 ,71.9712 ,1.71363 ,0.08656 ,0.84930 
363 ,72.1634 ,1.71551 ,0.06945 ,0.68141 
364 ,72.3871 ,1.71772 ,0.07971 ,0.78214 
365 ,72.5636 ,1.71971 ,0.04207 ,0.41278 
366 ,72.7557 ,1.72150 ,0.04207 ,0.41278 
367 ,72.9638 ,1.72360 ,0.04207 ,0.41278 
368 ,73.1557 ,1.72548 ,0.00785 ,0.07700 
369 ,73.3479 ,1.72736 ,0.01811 ,0.17773 
370 ,73.5396 ,1.72929 ,-0.00584 ,-0.05731 
371 ,73.7481 ,1.73129 ,-0.00926 ,-0.09089 
372 ,73.9558 ,1.73352 ,-0.04348 ,-0.42667 
373 ,74.1483 ,1.73541 ,-0.01953 ,-0.19163 
374 ,74.3563 ,1.73739 ,-0.04348 ,-0.42667 
375 ,74.5801 ,1.73964 ,-0.05375 ,-0.52741 
376 ,74.7884 ,1.74179 ,-0.06060 ,-0.59457 
377 ,74.9966 ,1.74386 ,-0.08455 ,-0.82961 
378 ,75.1886 ,1.74585 ,-0.08455 ,-0.82961 
379 ,75.3966 ,1.74780 ,-0.09824 ,-0.96393 
380 ,75.5728 ,1.74975 ,-0.10508 ,-1.03108 
381 ,75.7644 ,1.75156 ,-0.11877 ,-1.16540 
382 ,75.9568 ,1.75347 ,-0.14957 ,-1.46760 
383 ,76.1491 ,1.75545 ,-0.13588 ,-1.33329 
384 ,76.3732 ,1.75752 ,-0.16326 ,-1.60191 
385 ,76.5652 ,1.75959 ,-0.16668 ,-1.63549 
386 ,76.7731 ,1.76154 ,-0.19406 ,-1.90412 
387 ,76.9654 ,1.76356 ,-0.17353 ,-1.70265 
388 ,77.1736 ,1.76567 ,-0.20433 ,-2.00485 
389 ,77.3656 ,1.76762 ,-0.19748 ,-1.93770 
390 ,77.5577 ,1.76952 ,-0.22486 ,-2.20632 
391 ,77.7658 ,1.77159 ,-0.22486 ,-2.20632 
392 ,77.9573 ,1.77350 ,-0.24197 ,-2.37422 
393 ,78.1659 ,1.77559 ,-0.22486 ,-2.20632 
394 ,78.3738 ,1.77764 ,-0.26593 ,-2.60926 
395 ,78.5661 ,1.77952 ,-0.25566 ,-2.50853 
396 ,78.7741 ,1.78163 ,-0.29673 ,-2.91147 
397 ,78.9662 ,1.78357 ,-0.27619 ,-2.71000 
398 ,79.1738 ,1.78571 ,-0.30357 ,-2.97863 
399 ,79.3659 ,1.78758 ,-0.29673 ,-2.91147 
400 ,79.5579 ,1.78944 ,-0.32410 ,-3.18010 
401 ,79.7505 ,1.79144 ,-0.32752 ,-3.21367 
402 ,79.9586 ,1.79351 ,-0.34806 ,-3.41514 
403 ,80.1662 ,1.79550 ,-0.34121 ,-3.34799 
404 ,80.3587 ,1.79747 ,-0.37201 ,-3.65019 
405 ,80.5507 ,1.79941 ,-0.37201 ,-3.65019 
406 ,80.7589 ,1.80151 ,-0.39255 ,-3.85166 
407 ,80.9508 ,1.80345 ,-0.37544 ,-3.68377 
408 ,81.1431 ,1.80536 ,-0.39939 ,-3.91882 
409 ,81.3672 ,1.80747 ,-0.42677 ,-4.18744 
410 ,81.5753 ,1.80960 ,-0.43019 ,-4.22102 
411 ,81.7832 ,1.81163 ,-0.43703 ,-4.28818 
412 ,81.9755 ,1.81367 ,-0.45414 ,-4.45607 
413 ,82.1835 ,1.81574 ,-0.44388 ,-4.35534 
414 ,82.3756 ,1.81762 ,-0.47126 ,-4.62396 
415 ,82.5677 ,1.81957 ,-0.46441 ,-4.55681 
416 ,82.7597 ,1.82145 ,-0.49179 ,-4.82543 
417 ,82.9518 ,1.82342 ,-0.49521 ,-4.85901 
418 ,83.1440 ,1.82528 ,-0.50206 ,-4.92617 
419 ,83.3361 ,1.82728 ,-0.51917 ,-5.09406 
420 ,83.5600 ,1.82941 ,-0.51917 ,-5.09406 
421 ,83.7683 ,1.83158 ,-0.52601 ,-5.16121 
422 ,83.9604 ,1.83350 ,-0.54654 ,-5.36268 
423 ,84.1684 ,1.83559 ,-0.54312 ,-5.32911 
424 ,84.3605 ,1.83748 ,-0.56023 ,-5.49700 
425 ,84.5685 ,1.83960 ,-0.56365 ,-5.53058 
426 ,84.7606 ,1.84146 ,-0.57734 ,-5.66489 
427 ,84.9527 ,1.84339 ,-0.58761 ,-5.76562 
428 ,85.1446 ,1.84531 ,-0.59445 ,-5.83278 
429 ,85.3367 ,1.84723 ,-0.60130 ,-5.89994 
430 ,85.5290 ,1.84919 ,-0.60472 ,-5.93352 
431 ,85.7206 ,1.85111 ,-0.61156 ,-6.00067 
432 ,85.9290 ,1.85319 ,-0.64921 ,-6.37003 
433 ,86.1372 ,1.85524 ,-0.64579 ,-6.33646 
434 ,86.3294 ,1.85717 ,-0.65947 ,-6.47077 
435 ,86.5372 ,1.85923 ,-0.66974 ,-6.57150 
436 ,86.7293 ,1.86115 ,-0.68343 ,-6.70582 
437 ,86.9375 ,1.86316 ,-0.68001 ,-6.67224 
438 ,87.1291 ,1.86521 ,-0.70054 ,-6.87371 
439 ,87.3216 ,1.86706 ,-0.69712 ,-6.84013 
440 ,87.5133 ,1.86907 ,-0.71081 ,-6.97444 
441 ,87.7057 ,1.87090 ,-0.70054 ,-6.87371 
442 ,87.8818 ,1.87283 ,-0.72792 ,-7.14233 
443 ,88.0738 ,1.87459 ,-0.75530 ,-7.41096 
444 ,88.2659 ,1.87650 ,-0.73818 ,-7.24307 
445 ,88.4741 ,1.87861 ,-0.76214 ,-7.47812 
446 ,88.6658 ,1.88057 ,-0.76556 ,-7.51170 
447 ,88.8580 ,1.88239 ,-0.77583 ,-7.61243 
448 ,89.0660 ,1.88443 ,-0.78610 ,-7.71317 
449 ,89.2743 ,1.88659 ,-0.80321 ,-7.88106 
450 ,89.4668 ,1.88853 ,-0.79978 ,-7.84748 
451 ,89.6586 ,1.89045 ,-0.81347 ,-7.98179 
452 ,89.8508 ,1.89234 ,-0.82716 ,-8.11611 
453 ,90.0425 ,1.89428 ,-0.82716 ,-8.11611 
454 ,90.2345 ,1.89616 ,-0.84427 ,-8.28400 
455 ,90.4429 ,1.89834 ,-0.84427 ,-8.28400 
456 ,90.6509 ,1.90036 ,-0.87165 ,-8.55262 
457 ,90.8430 ,1.90223 ,-0.85454 ,-8.38473 
458 ,91.0347 ,1.90417 ,-0.87849 ,-8.61978 
459 ,91.2273 ,1.90619 ,-0.87849 ,-8.61978 
460 ,91.4350 ,1.90817 ,-0.89218 ,-8.75409 
461 ,91.6434 ,1.91030 ,-0.90929 ,-8.92198 
462 ,91.8514 ,1.91231 ,-0.91956 ,-9.02272 
463 ,92.0436 ,1.91427 ,-0.91272 ,-8.95556 
