Data stamp = , 29-04-2022 17:33:43 965

Calibration Values: 
Slope = , 26.54 , g/V 
Offset Voltage at no contact = , -0.501760 , V 

No , Time , Stage Position ,   Mass , Force 
   ,  (s) ,      (mm)      ,   (g)  , (mN)  

1 ,0.0000 ,1.04947 ,5.00763 ,49.13490 
2 ,0.2372 ,1.04959 ,5.01448 ,49.20205 
3 ,0.6057 ,1.05074 ,5.01790 ,49.23563 
4 ,0.8455 ,1.05268 ,5.00763 ,49.13490 
5 ,1.0540 ,1.05460 ,5.00079 ,49.06774 
6 ,1.2460 ,1.05673 ,5.01448 ,49.20205 
7 ,1.4381 ,1.05852 ,5.00421 ,49.10132 
8 ,1.6782 ,1.06082 ,4.98710 ,48.93343 
9 ,1.8863 ,1.06310 ,4.96315 ,48.69838 
10 ,2.0782 ,1.06498 ,4.94261 ,48.49691 
11 ,2.2703 ,1.06697 ,4.92208 ,48.29544 
12 ,2.4625 ,1.06883 ,4.91866 ,48.26186 
13 ,2.6701 ,1.07097 ,4.87759 ,47.85892 
14 ,2.8466 ,1.07278 ,4.86390 ,47.72461 
15 ,3.0544 ,1.07470 ,4.82968 ,47.38883 
16 ,3.2628 ,1.07678 ,4.83310 ,47.42240 
17 ,3.4709 ,1.07890 ,4.79546 ,47.05304 
18 ,3.6626 ,1.08087 ,4.80230 ,47.12020 
19 ,3.8549 ,1.08273 ,4.75782 ,46.68368 
20 ,4.0631 ,1.08474 ,4.76808 ,46.78442 
21 ,4.2709 ,1.08681 ,4.72359 ,46.34790 
22 ,4.4631 ,1.08878 ,4.72359 ,46.34790 
23 ,4.6552 ,1.09076 ,4.68937 ,46.01212 
24 ,4.8471 ,1.09277 ,4.68595 ,45.97854 
25 ,5.0392 ,1.09461 ,4.65515 ,45.67633 
26 ,5.2317 ,1.09646 ,4.64146 ,45.54202 
27 ,5.4394 ,1.09856 ,4.62093 ,45.34055 
28 ,5.6317 ,1.10045 ,4.60382 ,45.17266 
29 ,5.8559 ,1.10263 ,4.59355 ,45.07192 
30 ,6.0474 ,1.10467 ,4.57644 ,44.90403 
31 ,6.2718 ,1.10685 ,4.53537 ,44.50109 
32 ,6.4959 ,1.10907 ,4.54222 ,44.56825 
33 ,6.6880 ,1.11109 ,4.50115 ,44.16531 
34 ,6.8801 ,1.11298 ,4.49089 ,44.06457 
35 ,7.0561 ,1.11491 ,4.47035 ,43.86310 
36 ,7.2485 ,1.11665 ,4.45324 ,43.69521 
37 ,7.4404 ,1.11857 ,4.43955 ,43.56090 
38 ,7.6327 ,1.12057 ,4.40533 ,43.22512 
39 ,7.8248 ,1.12243 ,4.39849 ,43.15796 
40 ,8.0327 ,1.12456 ,4.35400 ,42.72144 
41 ,8.2248 ,1.12640 ,4.36427 ,42.82218 
42 ,8.4330 ,1.12848 ,4.33004 ,42.48639 
43 ,8.6408 ,1.13051 ,4.33689 ,42.55355 
44 ,8.8332 ,1.13255 ,4.29582 ,42.15061 
45 ,9.0252 ,1.13442 ,4.29924 ,42.18419 
46 ,9.2169 ,1.13634 ,4.26502 ,41.84841 
47 ,9.4092 ,1.13828 ,4.26160 ,41.81483 
48 ,9.6335 ,1.14054 ,4.22738 ,41.47905 
49 ,9.8576 ,1.14265 ,4.22396 ,41.44547 
50 ,10.0494 ,1.14469 ,4.18631 ,41.07611 
51 ,10.2416 ,1.14659 ,4.18974 ,41.10968 
52 ,10.4496 ,1.14869 ,4.16578 ,40.87464 
53 ,10.6419 ,1.15067 ,4.14867 ,40.70674 
54 ,10.8339 ,1.15253 ,4.12471 ,40.47170 
55 ,11.0420 ,1.15459 ,4.12471 ,40.47170 
56 ,11.2344 ,1.15654 ,4.10076 ,40.23665 
57 ,11.4257 ,1.15857 ,4.10418 ,40.27023 
58 ,11.6185 ,1.16036 ,4.06654 ,39.90087 
59 ,11.8264 ,1.16243 ,4.04600 ,39.69940 
60 ,12.0186 ,1.16437 ,4.03232 ,39.56508 
61 ,12.2106 ,1.16631 ,4.00152 ,39.26288 
62 ,12.4187 ,1.16833 ,3.99467 ,39.19572 
63 ,12.6107 ,1.17042 ,3.97072 ,38.96067 
64 ,12.8026 ,1.17224 ,3.96729 ,38.92709 
65 ,13.0108 ,1.17427 ,3.92623 ,38.52415 
66 ,13.2029 ,1.17622 ,3.93307 ,38.59131 
67 ,13.3953 ,1.17811 ,3.90227 ,38.28911 
68 ,13.5706 ,1.17999 ,3.88516 ,38.12122 
69 ,13.7632 ,1.18180 ,3.88174 ,38.08764 
70 ,14.0030 ,1.18422 ,3.87147 ,37.98690 
71 ,14.2114 ,1.18630 ,3.83041 ,37.58396 
72 ,14.4034 ,1.18823 ,3.83041 ,37.58396 
73 ,14.6116 ,1.19028 ,3.79619 ,37.24818 
74 ,14.8035 ,1.19221 ,3.79276 ,37.21460 
75 ,14.9957 ,1.19413 ,3.76539 ,36.94597 
76 ,15.1876 ,1.19601 ,3.75854 ,36.87882 
77 ,15.3798 ,1.19792 ,3.73117 ,36.61019 
78 ,15.5720 ,1.19989 ,3.70721 ,36.37514 
79 ,15.7636 ,1.20180 ,3.71748 ,36.47588 
80 ,15.9557 ,1.20372 ,3.67299 ,36.03936 
81 ,16.1478 ,1.20559 ,3.66957 ,36.00578 
82 ,16.3397 ,1.20754 ,3.66614 ,35.97220 
83 ,16.5324 ,1.20955 ,3.63534 ,35.67000 
84 ,16.7402 ,1.21152 ,3.63534 ,35.67000 
85 ,16.9325 ,1.21350 ,3.59770 ,35.30064 
86 ,17.1403 ,1.21557 ,3.59428 ,35.26706 
87 ,17.3326 ,1.21748 ,3.56006 ,34.93128 
88 ,17.5406 ,1.21954 ,3.56348 ,34.96485 
89 ,17.7328 ,1.22153 ,3.52241 ,34.56192 
90 ,17.9248 ,1.22343 ,3.52241 ,34.56192 
91 ,18.1328 ,1.22545 ,3.49846 ,34.32687 
92 ,18.3411 ,1.22758 ,3.48477 ,34.19255 
93 ,18.5489 ,1.22965 ,3.46081 ,33.95751 
94 ,18.7411 ,1.23150 ,3.45397 ,33.89035 
95 ,18.9332 ,1.23349 ,3.43001 ,33.65530 
96 ,19.1254 ,1.23540 ,3.41975 ,33.55457 
97 ,19.3171 ,1.23730 ,3.40948 ,33.45383 
98 ,19.5095 ,1.23920 ,3.37184 ,33.08447 
99 ,19.7015 ,1.24117 ,3.37526 ,33.11805 
100 ,19.9096 ,1.24319 ,3.34788 ,32.84942 
101 ,20.1017 ,1.24512 ,3.34446 ,32.81584 
102 ,20.2940 ,1.24710 ,3.33077 ,32.68153 
103 ,20.5020 ,1.24920 ,3.29997 ,32.37933 
104 ,20.7098 ,1.25124 ,3.27259 ,32.11070 
105 ,20.9023 ,1.25312 ,3.27602 ,32.14428 
106 ,21.1102 ,1.25522 ,3.24522 ,31.84207 
107 ,21.3023 ,1.25710 ,3.24522 ,31.84207 
108 ,21.5103 ,1.25926 ,3.20757 ,31.47271 
109 ,21.7023 ,1.26115 ,3.21100 ,31.50629 
110 ,21.8946 ,1.26303 ,3.17335 ,31.13693 
111 ,22.0865 ,1.26503 ,3.16651 ,31.06977 
112 ,22.2788 ,1.26692 ,3.15624 ,30.96904 
113 ,22.4707 ,1.26885 ,3.12544 ,30.66683 
114 ,22.6788 ,1.27087 ,3.11860 ,30.59968 
115 ,22.8710 ,1.27283 ,3.10833 ,30.49894 
116 ,23.0791 ,1.27481 ,3.09122 ,30.33105 
117 ,23.2872 ,1.27689 ,3.06042 ,30.02884 
118 ,23.4952 ,1.27903 ,3.05700 ,29.99527 
119 ,23.7031 ,1.28115 ,3.05015 ,29.92811 
120 ,23.8953 ,1.28310 ,3.01935 ,29.62590 
121 ,24.1030 ,1.28511 ,2.99882 ,29.42444 
122 ,24.2955 ,1.28708 ,2.99540 ,29.39086 
123 ,24.4871 ,1.28900 ,2.96118 ,29.05507 
124 ,24.6796 ,1.29099 ,2.97487 ,29.18939 
125 ,24.9037 ,1.29303 ,2.93380 ,28.78645 
126 ,25.0955 ,1.29510 ,2.91669 ,28.61856 
127 ,25.2880 ,1.29702 ,2.90642 ,28.51782 
128 ,25.5121 ,1.29909 ,2.88247 ,28.28277 
129 ,25.7040 ,1.30115 ,2.87220 ,28.18204 
130 ,25.8957 ,1.30308 ,2.85167 ,27.98057 
131 ,26.0883 ,1.30501 ,2.83798 ,27.84625 
132 ,26.2961 ,1.30705 ,2.82771 ,27.74552 
133 ,26.4884 ,1.30903 ,2.80034 ,27.47689 
134 ,26.6961 ,1.31104 ,2.79691 ,27.44332 
135 ,26.8885 ,1.31304 ,2.77638 ,27.24185 
136 ,27.1126 ,1.31517 ,2.77296 ,27.20827 
137 ,27.3048 ,1.31715 ,2.74900 ,26.97322 
138 ,27.5127 ,1.31922 ,2.72505 ,26.73817 
139 ,27.7049 ,1.32114 ,2.73189 ,26.80533 
140 ,27.9130 ,1.32329 ,2.68740 ,26.36881 
141 ,28.1211 ,1.32533 ,2.69425 ,26.43597 
142 ,28.3132 ,1.32725 ,2.65660 ,26.06661 
143 ,28.5213 ,1.32923 ,2.66345 ,26.13376 
144 ,28.7133 ,1.33127 ,2.63949 ,25.89871 
145 ,28.9051 ,1.33317 ,2.62238 ,25.73082 
146 ,29.0975 ,1.33505 ,2.59501 ,25.46220 
147 ,29.3055 ,1.33719 ,2.59158 ,25.42862 
148 ,29.4976 ,1.33909 ,2.58816 ,25.39504 
149 ,29.6895 ,1.34101 ,2.56078 ,25.12641 
150 ,29.8815 ,1.34289 ,2.55052 ,25.02568 
151 ,30.0734 ,1.34489 ,2.52314 ,24.75705 
152 ,30.4739 ,1.34875 ,2.48892 ,24.42127 
153 ,30.6661 ,1.35075 ,2.50261 ,24.55558 
154 ,30.8581 ,1.35268 ,2.47865 ,24.32053 
155 ,31.0498 ,1.35461 ,2.45470 ,24.08549 
156 ,31.2423 ,1.35653 ,2.45127 ,24.05191 
157 ,31.4344 ,1.35849 ,2.42732 ,23.81686 
158 ,31.6264 ,1.36032 ,2.41021 ,23.64897 
159 ,31.8186 ,1.36229 ,2.40336 ,23.58181 
160 ,32.0106 ,1.36417 ,2.37599 ,23.31318 
161 ,32.2026 ,1.36614 ,2.38283 ,23.38034 
162 ,32.3948 ,1.36806 ,2.33150 ,22.87667 
163 ,32.6029 ,1.37000 ,2.35545 ,23.11171 
164 ,32.8107 ,1.37216 ,2.31781 ,22.74235 
165 ,33.0031 ,1.37407 ,2.31781 ,22.74235 
166 ,33.1946 ,1.37603 ,2.29043 ,22.47373 
167 ,33.3873 ,1.37800 ,2.27674 ,22.33941 
168 ,33.5952 ,1.38007 ,2.25621 ,22.13794 
169 ,33.8032 ,1.38211 ,2.26648 ,22.23868 
170 ,34.0115 ,1.38421 ,2.23226 ,21.90290 
171 ,34.2194 ,1.38627 ,2.21172 ,21.70143 
172 ,34.4116 ,1.38825 ,2.19803 ,21.56711 
173 ,34.6197 ,1.39028 ,2.19461 ,21.53353 
174 ,34.8119 ,1.39216 ,2.17066 ,21.29849 
175 ,35.0199 ,1.39428 ,2.16039 ,21.19775 
176 ,35.2120 ,1.39619 ,2.13644 ,20.96270 
177 ,35.4036 ,1.39822 ,2.13301 ,20.92912 
178 ,35.5967 ,1.40004 ,2.11248 ,20.72766 
179 ,35.7883 ,1.40199 ,2.10564 ,20.66050 
180 ,35.9803 ,1.40386 ,2.08168 ,20.42545 
181 ,36.1723 ,1.40578 ,2.05088 ,20.12325 
182 ,36.3805 ,1.40788 ,2.06115 ,20.22398 
183 ,36.5726 ,1.40979 ,2.04061 ,20.02251 
184 ,36.7645 ,1.41174 ,2.04061 ,20.02251 
185 ,36.9727 ,1.41379 ,2.00297 ,19.65315 
186 ,37.1649 ,1.41571 ,1.99955 ,19.61957 
187 ,37.3570 ,1.41772 ,1.98244 ,19.45168 
188 ,37.5488 ,1.41959 ,1.96875 ,19.31737 
189 ,37.7411 ,1.42150 ,1.96533 ,19.28379 
190 ,37.9490 ,1.42357 ,1.94479 ,19.08232 
191 ,38.1573 ,1.42565 ,1.93453 ,18.98158 
192 ,38.3493 ,1.42757 ,1.91742 ,18.81369 
193 ,38.5733 ,1.42970 ,1.88662 ,18.51149 
194 ,38.7493 ,1.43173 ,1.89346 ,18.57864 
195 ,38.9415 ,1.43346 ,1.87635 ,18.41075 
196 ,39.1175 ,1.43539 ,1.85924 ,18.24286 
197 ,39.3097 ,1.43716 ,1.83871 ,18.04139 
198 ,39.5016 ,1.43905 ,1.83186 ,17.97423 
199 ,39.6940 ,1.44100 ,1.79764 ,17.63845 
200 ,39.8855 ,1.44292 ,1.81133 ,17.77276 
201 ,40.0780 ,1.44485 ,1.78053 ,17.47056 
202 ,40.2700 ,1.44674 ,1.76684 ,17.33625 
203 ,40.4622 ,1.44866 ,1.76342 ,17.30267 
204 ,40.6543 ,1.45060 ,1.72920 ,16.96689 
205 ,40.8620 ,1.45266 ,1.73604 ,17.03404 
206 ,41.0545 ,1.45461 ,1.70524 ,16.73184 
207 ,41.2624 ,1.45671 ,1.69155 ,16.59752 
208 ,41.4546 ,1.45861 ,1.67102 ,16.39605 
209 ,41.6467 ,1.46051 ,1.67786 ,16.46321 
210 ,41.8387 ,1.46247 ,1.65391 ,16.22816 
211 ,42.0468 ,1.46449 ,1.65049 ,16.19458 
212 ,42.2550 ,1.46671 ,1.63680 ,16.06027 
213 ,42.4469 ,1.46849 ,1.62653 ,15.95954 
214 ,42.6391 ,1.47043 ,1.59573 ,15.65733 
215 ,42.8306 ,1.47241 ,1.59231 ,15.62375 
216 ,43.0067 ,1.47424 ,1.58204 ,15.52302 
217 ,43.1988 ,1.47614 ,1.56493 ,15.35513 
218 ,43.3914 ,1.47801 ,1.56151 ,15.32155 
219 ,43.6314 ,1.48041 ,1.54098 ,15.12008 
220 ,43.8236 ,1.48231 ,1.55124 ,15.22081 
221 ,44.0156 ,1.48424 ,1.53413 ,15.05292 
222 ,44.2072 ,1.48621 ,1.53071 ,15.01934 
223 ,44.4002 ,1.48800 ,1.51702 ,14.88503 
224 ,44.5919 ,1.48996 ,1.51360 ,14.85145 
225 ,44.7837 ,1.49191 ,1.51360 ,14.85145 
226 ,44.9756 ,1.49379 ,1.49991 ,14.71714 
227 ,45.1676 ,1.49574 ,1.50333 ,14.75072 
228 ,45.3597 ,1.49764 ,1.47253 ,14.44851 
229 ,45.5519 ,1.49956 ,1.48622 ,14.58283 
230 ,45.7440 ,1.50147 ,1.47253 ,14.44851 
231 ,45.9358 ,1.50344 ,1.44516 ,14.17989 
232 ,46.1281 ,1.50529 ,1.46569 ,14.38136 
233 ,46.3041 ,1.50721 ,1.43831 ,14.11273 
234 ,46.4961 ,1.50902 ,1.42462 ,13.97842 
235 ,46.6884 ,1.51095 ,1.42120 ,13.94484 
236 ,46.8804 ,1.51283 ,1.40409 ,13.77695 
237 ,47.0725 ,1.51475 ,1.38698 ,13.60906 
238 ,47.2645 ,1.51666 ,1.37671 ,13.50832 
239 ,47.4566 ,1.51861 ,1.35618 ,13.30685 
240 ,47.6487 ,1.52051 ,1.35618 ,13.30685 
241 ,47.8248 ,1.52239 ,1.32880 ,13.03822 
242 ,48.0169 ,1.52418 ,1.31169 ,12.87033 
243 ,48.2249 ,1.52622 ,1.31854 ,12.93749 
244 ,48.4170 ,1.52816 ,1.28774 ,12.63528 
245 ,48.6091 ,1.53011 ,1.29458 ,12.70244 
246 ,48.7852 ,1.53202 ,1.27063 ,12.46739 
247 ,48.9774 ,1.53377 ,1.25009 ,12.26592 
248 ,49.1694 ,1.53572 ,1.25352 ,12.29950 
249 ,49.3613 ,1.53766 ,1.24325 ,12.19877 
250 ,49.5538 ,1.53959 ,1.22614 ,12.03088 
251 ,49.7620 ,1.54158 ,1.22272 ,11.99730 
252 ,49.9699 ,1.54374 ,1.19192 ,11.69509 
253 ,50.1620 ,1.54567 ,1.17823 ,11.56078 
254 ,50.3540 ,1.54760 ,1.17481 ,11.52720 
255 ,50.5623 ,1.54962 ,1.15770 ,11.35931 
256 ,50.7541 ,1.55157 ,1.15085 ,11.29215 
257 ,50.9463 ,1.55346 ,1.14058 ,11.19142 
258 ,51.1385 ,1.55536 ,1.11663 ,10.95637 
259 ,51.3305 ,1.55734 ,1.10636 ,10.85563 
260 ,51.5228 ,1.55926 ,1.08241 ,10.62059 
261 ,51.7146 ,1.56116 ,1.07214 ,10.51985 
262 ,51.9230 ,1.56330 ,1.06187 ,10.41912 
263 ,52.1307 ,1.56531 ,1.05503 ,10.35196 
264 ,52.3231 ,1.56725 ,1.02765 ,10.08333 
265 ,52.5471 ,1.56941 ,1.03108 ,10.11691 
266 ,52.7553 ,1.57155 ,1.01396 ,9.94902 
267 ,52.9311 ,1.57345 ,1.02423 ,10.04976 
268 ,53.1073 ,1.57518 ,0.98659 ,9.68039 
269 ,53.2831 ,1.57696 ,0.96605 ,9.47892 
270 ,53.4754 ,1.57872 ,0.97632 ,9.57966 
271 ,53.6671 ,1.58065 ,0.95579 ,9.37819 
272 ,53.8596 ,1.58259 ,0.93525 ,9.17672 
273 ,54.0676 ,1.58467 ,0.93525 ,9.17672 
274 ,54.2757 ,1.58680 ,0.90446 ,8.87451 
275 ,54.4838 ,1.58888 ,0.89419 ,8.77378 
276 ,54.6760 ,1.59078 ,0.88734 ,8.70662 
277 ,54.8840 ,1.59280 ,0.88050 ,8.63947 
278 ,55.0757 ,1.59481 ,0.85654 ,8.40442 
279 ,55.2681 ,1.59672 ,0.85997 ,8.43800 
280 ,55.4442 ,1.59853 ,0.82917 ,8.13579 
281 ,55.6364 ,1.60038 ,0.81890 ,8.03506 
282 ,55.8444 ,1.60250 ,0.80521 ,7.90074 
283 ,56.0365 ,1.60440 ,0.78468 ,7.69927 
284 ,56.2121 ,1.60620 ,0.79837 ,7.83359 
285 ,56.4046 ,1.60805 ,0.77784 ,7.63212 
286 ,56.5968 ,1.60997 ,0.76415 ,7.49780 
287 ,56.7888 ,1.61193 ,0.75730 ,7.43065 
288 ,56.9809 ,1.61378 ,0.74019 ,7.26276 
289 ,57.1889 ,1.61586 ,0.73335 ,7.19560 
290 ,57.3972 ,1.61799 ,0.70939 ,6.96055 
291 ,57.6048 ,1.62006 ,0.69913 ,6.85982 
292 ,57.7973 ,1.62203 ,0.68201 ,6.69193 
293 ,58.0052 ,1.62398 ,0.67517 ,6.62477 
294 ,58.2134 ,1.62612 ,0.67175 ,6.59119 
295 ,58.4054 ,1.62803 ,0.65806 ,6.45688 
296 ,58.5974 ,1.62997 ,0.63068 ,6.18825 
297 ,58.7897 ,1.63187 ,0.62726 ,6.15467 
298 ,59.0136 ,1.63411 ,0.62726 ,6.15467 
299 ,59.2057 ,1.63602 ,0.59646 ,5.85247 
300 ,59.3977 ,1.63794 ,0.59304 ,5.81889 
301 ,59.5899 ,1.63993 ,0.59646 ,5.85247 
302 ,59.7982 ,1.64194 ,0.55882 ,5.48311 
303 ,59.9900 ,1.64392 ,0.56908 ,5.58384 
304 ,60.1821 ,1.64576 ,0.53144 ,5.21448 
305 ,60.3902 ,1.64783 ,0.54171 ,5.31522 
306 ,60.5984 ,1.64994 ,0.51091 ,5.01301 
307 ,60.7903 ,1.65186 ,0.52117 ,5.11375 
308 ,60.9824 ,1.65385 ,0.49037 ,4.81154 
309 ,61.1904 ,1.65589 ,0.49722 ,4.87870 
310 ,61.3665 ,1.65775 ,0.46642 ,4.57649 
311 ,61.5588 ,1.65959 ,0.45273 ,4.44218 
312 ,61.7508 ,1.66147 ,0.45957 ,4.50934 
313 ,61.9429 ,1.66342 ,0.43562 ,4.27429 
314 ,62.1507 ,1.66549 ,0.43220 ,4.24071 
315 ,62.3752 ,1.66768 ,0.41509 ,4.07282 
316 ,62.5833 ,1.66979 ,0.39455 ,3.87135 
317 ,62.7591 ,1.67170 ,0.38771 ,3.80419 
318 ,62.9514 ,1.67348 ,0.38771 ,3.80419 
319 ,63.1434 ,1.67536 ,0.36375 ,3.56914 
320 ,63.3357 ,1.67736 ,0.35006 ,3.43483 
321 ,63.5436 ,1.67945 ,0.34664 ,3.40125 
322 ,63.7357 ,1.68135 ,0.32953 ,3.23336 
323 ,63.9438 ,1.68342 ,0.32269 ,3.16620 
324 ,64.1518 ,1.68549 ,0.31926 ,3.13263 
325 ,64.3440 ,1.68746 ,0.30558 ,2.99831 
326 ,64.5361 ,1.68935 ,0.28162 ,2.76326 
327 ,64.7282 ,1.69126 ,0.27478 ,2.69611 
328 ,64.9037 ,1.69314 ,0.26451 ,2.59537 
329 ,65.0963 ,1.69493 ,0.25424 ,2.49464 
330 ,65.2883 ,1.69686 ,0.25767 ,2.52822 
331 ,65.4803 ,1.69878 ,0.21660 ,2.12528 
332 ,65.6886 ,1.70087 ,0.24055 ,2.36032 
333 ,65.8966 ,1.70292 ,0.21318 ,2.09170 
334 ,66.0886 ,1.70486 ,0.19949 ,1.95738 
335 ,66.2967 ,1.70702 ,0.20291 ,1.99096 
336 ,66.5049 ,1.70906 ,0.17553 ,1.72234 
337 ,66.6971 ,1.71095 ,0.16869 ,1.65518 
338 ,66.9051 ,1.71302 ,0.15500 ,1.52087 
339 ,67.0967 ,1.71493 ,0.14473 ,1.42013 
340 ,67.2891 ,1.71688 ,0.14473 ,1.42013 
341 ,67.4808 ,1.71875 ,0.12762 ,1.25224 
342 ,67.6733 ,1.72069 ,0.11051 ,1.08435 
343 ,67.8655 ,1.72263 ,0.11736 ,1.15151 
344 ,68.0576 ,1.72452 ,0.09340 ,0.91646 
345 ,68.2655 ,1.72661 ,0.09340 ,0.91646 
346 ,68.4573 ,1.72852 ,0.06602 ,0.64783 
347 ,68.6497 ,1.73044 ,0.07971 ,0.78214 
348 ,68.8417 ,1.73238 ,0.03522 ,0.34563 
349 ,69.0339 ,1.73432 ,0.03865 ,0.37920 
350 ,69.2099 ,1.73615 ,0.03522 ,0.34563 
351 ,69.4019 ,1.73796 ,0.01811 ,0.17773 
352 ,69.6098 ,1.74004 ,0.01811 ,0.17773 
353 ,69.8018 ,1.74197 ,0.01469 ,0.14416 
354 ,69.9937 ,1.74388 ,0.00443 ,0.04342 
355 ,70.1859 ,1.74583 ,-0.01269 ,-0.12447 
356 ,70.3778 ,1.74773 ,-0.03664 ,-0.35952 
357 ,70.5704 ,1.74965 ,-0.02980 ,-0.29236 
358 ,70.7945 ,1.75187 ,-0.03664 ,-0.35952 
359 ,71.0026 ,1.75396 ,-0.06744 ,-0.66172 
360 ,71.1948 ,1.75586 ,-0.07428 ,-0.72888 
361 ,71.4030 ,1.75799 ,-0.07428 ,-0.72888 
362 ,71.5949 ,1.75990 ,-0.10166 ,-0.99751 
363 ,71.8027 ,1.76197 ,-0.10508 ,-1.03108 
364 ,71.9949 ,1.76386 ,-0.10166 ,-0.99751 
365 ,72.1710 ,1.76576 ,-0.11535 ,-1.13182 
366 ,72.3632 ,1.76753 ,-0.13931 ,-1.36687 
367 ,72.5550 ,1.76946 ,-0.14957 ,-1.46760 
368 ,72.7472 ,1.77140 ,-0.14957 ,-1.46760 
369 ,72.9554 ,1.77345 ,-0.15984 ,-1.56834 
370 ,73.1636 ,1.77555 ,-0.18037 ,-1.76981 
371 ,73.3553 ,1.77749 ,-0.18722 ,-1.83696 
372 ,73.5476 ,1.77938 ,-0.18722 ,-1.83696 
373 ,73.7393 ,1.78134 ,-0.20775 ,-2.03843 
374 ,73.9158 ,1.78317 ,-0.21459 ,-2.10559 
375 ,74.1076 ,1.78498 ,-0.21117 ,-2.07201 
376 ,74.3001 ,1.78688 ,-0.23855 ,-2.34064 
377 ,74.4919 ,1.78887 ,-0.23513 ,-2.30706 
378 ,74.7000 ,1.79087 ,-0.24539 ,-2.40779 
379 ,74.8919 ,1.79288 ,-0.25224 ,-2.47495 
380 ,75.1004 ,1.79489 ,-0.26935 ,-2.64284 
381 ,75.3084 ,1.79706 ,-0.28646 ,-2.81073 
382 ,75.5005 ,1.79890 ,-0.31041 ,-3.04578 
383 ,75.6925 ,1.80087 ,-0.28646 ,-2.81073 
384 ,75.8842 ,1.80271 ,-0.30699 ,-3.01220 
385 ,76.0763 ,1.80472 ,-0.31726 ,-3.11294 
386 ,76.2684 ,1.80657 ,-0.31726 ,-3.11294 
387 ,76.4444 ,1.80845 ,-0.34464 ,-3.38156 
388 ,76.6368 ,1.81033 ,-0.35832 ,-3.51588 
389 ,76.8610 ,1.81243 ,-0.35832 ,-3.51588 
390 ,77.0530 ,1.81444 ,-0.37201 ,-3.65019 
391 ,77.2291 ,1.81636 ,-0.36859 ,-3.61661 
392 ,77.4212 ,1.81808 ,-0.39597 ,-3.88524 
393 ,77.6133 ,1.82008 ,-0.38570 ,-3.78450 
394 ,77.8053 ,1.82194 ,-0.39939 ,-3.91882 
395 ,78.0132 ,1.82399 ,-0.40281 ,-3.95240 
396 ,78.2214 ,1.82604 ,-0.41992 ,-4.12029 
397 ,78.4136 ,1.82813 ,-0.41992 ,-4.12029 
398 ,78.6217 ,1.83009 ,-0.44388 ,-4.35534 
399 ,78.8139 ,1.83205 ,-0.46441 ,-4.55681 
400 ,79.0219 ,1.83410 ,-0.47468 ,-4.65754 
401 ,79.2140 ,1.83611 ,-0.46441 ,-4.55681 
402 ,79.4059 ,1.83798 ,-0.47468 ,-4.65754 
403 ,79.5983 ,1.83990 ,-0.48837 ,-4.79185 
404 ,79.7902 ,1.84181 ,-0.50206 ,-4.92617 
405 ,79.9822 ,1.84375 ,-0.50890 ,-4.99332 
406 ,80.1744 ,1.84562 ,-0.51232 ,-5.02690 
407 ,80.3984 ,1.84779 ,-0.53970 ,-5.29553 
408 ,80.6065 ,1.84994 ,-0.52601 ,-5.16121 
409 ,80.8146 ,1.85206 ,-0.55681 ,-5.46342 
410 ,81.0065 ,1.85395 ,-0.55681 ,-5.46342 
411 ,81.1986 ,1.85585 ,-0.57392 ,-5.63131 
412 ,81.3745 ,1.85776 ,-0.57392 ,-5.63131 
413 ,81.5669 ,1.85956 ,-0.56708 ,-5.56415 
414 ,81.7588 ,1.86150 ,-0.59445 ,-5.83278 
415 ,81.9831 ,1.86372 ,-0.60814 ,-5.96709 
416 ,82.1911 ,1.86582 ,-0.60814 ,-5.96709 
417 ,82.3831 ,1.86774 ,-0.62868 ,-6.16856 
418 ,82.5752 ,1.86969 ,-0.63210 ,-6.20214 
419 ,82.7835 ,1.87171 ,-0.65947 ,-6.47077 
420 ,82.9912 ,1.87383 ,-0.63552 ,-6.23572 
421 ,83.1836 ,1.87567 ,-0.66290 ,-6.50435 
422 ,83.3754 ,1.87767 ,-0.66290 ,-6.50435 
423 ,83.5676 ,1.87956 ,-0.67659 ,-6.63866 
424 ,83.7756 ,1.88166 ,-0.69712 ,-6.84013 
425 ,83.9680 ,1.88353 ,-0.69027 ,-6.77297 
426 ,84.1597 ,1.88548 ,-0.71081 ,-6.97444 
427 ,84.3519 ,1.88742 ,-0.70396 ,-6.90729 
428 ,84.5441 ,1.88928 ,-0.72450 ,-7.10876 
429 ,84.7364 ,1.89131 ,-0.72792 ,-7.14233 
430 ,84.9444 ,1.89328 ,-0.73818 ,-7.24307 
431 ,85.1526 ,1.89538 ,-0.73818 ,-7.24307 
432 ,85.3445 ,1.89737 ,-0.77583 ,-7.61243 
433 ,85.5528 ,1.89940 ,-0.78610 ,-7.71317 
434 ,85.7442 ,1.90132 ,-0.76898 ,-7.54527 
435 ,85.9369 ,1.90326 ,-0.79294 ,-7.78032 
436 ,86.1290 ,1.90520 ,-0.77925 ,-7.64601 
437 ,86.3530 ,1.90727 ,-0.80321 ,-7.88106 
438 ,86.5449 ,1.90934 ,-0.81005 ,-7.94821 
439 ,86.7372 ,1.91121 ,-0.82032 ,-8.04895 
440 ,86.9448 ,1.91329 ,-0.83401 ,-8.18326 
441 ,87.1532 ,1.91533 ,-0.83401 ,-8.18326 
442 ,87.3455 ,1.91733 ,-0.85112 ,-8.35115 
443 ,87.5374 ,1.91931 ,-0.87165 ,-8.55262 
444 ,87.7296 ,1.92120 ,-0.85796 ,-8.41831 
445 ,87.9371 ,1.92326 ,-0.88534 ,-8.68694 
446 ,88.1297 ,1.92518 ,-0.87507 ,-8.58620 
447 ,88.3377 ,1.92728 ,-0.90929 ,-8.92198 
448 ,88.5298 ,1.92919 ,-0.90587 ,-8.88841 
449 ,88.7219 ,1.93104 ,-0.91272 ,-8.95556 
450 ,88.9141 ,1.93303 ,-0.90587 ,-8.88841 
451 ,89.1061 ,1.93502 ,-0.94009 ,-9.22419 
452 ,89.2983 ,1.93681 ,-0.94009 ,-9.22419 
453 ,89.4902 ,1.93880 ,-0.94009 ,-9.22419 
454 ,89.6824 ,1.94066 ,-0.95720 ,-9.39208 
455 ,89.8744 ,1.94265 ,-0.96747 ,-9.49282 
456 ,90.0665 ,1.94451 ,-0.97089 ,-9.52639 
457 ,90.2742 ,1.94661 ,-0.99485 ,-9.76144 
458 ,90.4827 ,1.94866 ,-1.00511 ,-9.86218 
459 ,90.6748 ,1.95065 ,-1.00511 ,-9.86218 
460 ,90.8667 ,1.95254 ,-0.99827 ,-9.79502 
461 ,91.0589 ,1.95442 ,-1.02222 ,-10.03007 
462 ,91.2345 ,1.95633 ,-1.01196 ,-9.92933 
