Data stamp = , 29-04-2022 23:21:50 315

Calibration Values: 
Slope = , 26.54 , g/V 
Offset Voltage at no contact = , -0.501760 , V 

No , Time , Stage Position ,   Mass , Force 
   ,  (s) ,      (mm)      ,   (g)  , (mN)  

1 ,0.0000 ,0.99945 ,5.42856 ,53.26503 
2 ,0.2013 ,0.99950 ,5.43540 ,53.33219 
3 ,0.7140 ,1.00134 ,5.43540 ,53.33219 
4 ,0.9378 ,1.00356 ,5.44909 ,53.46650 
5 ,1.1620 ,1.00571 ,5.44909 ,53.46650 
6 ,1.3702 ,1.00781 ,5.41829 ,53.16429 
7 ,1.5620 ,1.00978 ,5.41145 ,53.09714 
8 ,1.7544 ,1.01170 ,5.37381 ,52.72778 
9 ,1.9620 ,1.01385 ,5.37038 ,52.69420 
10 ,2.1705 ,1.01597 ,5.34985 ,52.49273 
11 ,2.3785 ,1.01797 ,5.33616 ,52.35841 
12 ,2.5546 ,1.01985 ,5.30536 ,52.05621 
13 ,2.7467 ,1.02166 ,5.29852 ,51.98905 
14 ,2.9705 ,1.02380 ,5.26430 ,51.65327 
15 ,3.1790 ,1.02594 ,5.24718 ,51.48538 
16 ,3.3869 ,1.02803 ,5.23350 ,51.35107 
17 ,3.5789 ,1.03004 ,5.20270 ,51.04886 
18 ,3.7711 ,1.03188 ,5.19243 ,50.94813 
19 ,3.9791 ,1.03395 ,5.16848 ,50.71308 
20 ,4.1711 ,1.03584 ,5.15821 ,50.61234 
21 ,4.3633 ,1.03787 ,5.14452 ,50.47803 
22 ,4.5712 ,1.03978 ,5.10345 ,50.07509 
23 ,4.7636 ,1.04189 ,5.10345 ,50.07509 
24 ,4.9556 ,1.04373 ,5.06923 ,49.73931 
25 ,5.1634 ,1.04572 ,5.07265 ,49.77289 
26 ,5.3718 ,1.04788 ,5.03159 ,49.36995 
27 ,5.5799 ,1.04998 ,5.02817 ,49.33637 
28 ,5.7718 ,1.05185 ,4.99737 ,49.03416 
29 ,5.9639 ,1.05383 ,4.99737 ,49.03416 
30 ,6.1560 ,1.05569 ,4.95630 ,48.63122 
31 ,6.3317 ,1.05762 ,4.94603 ,48.53049 
32 ,6.5243 ,1.05941 ,4.93919 ,48.46333 
33 ,6.7325 ,1.06147 ,4.91866 ,48.26186 
34 ,6.9240 ,1.06342 ,4.90497 ,48.12755 
35 ,7.1166 ,1.06534 ,4.87417 ,47.82534 
36 ,7.3243 ,1.06738 ,4.86048 ,47.69103 
37 ,7.5007 ,1.06929 ,4.82968 ,47.38883 
38 ,7.6929 ,1.07110 ,4.81599 ,47.25451 
39 ,7.9009 ,1.07308 ,4.79546 ,47.05304 
40 ,8.1089 ,1.07530 ,4.77493 ,46.85157 
41 ,8.3169 ,1.07734 ,4.74413 ,46.54937 
42 ,8.5088 ,1.07926 ,4.75439 ,46.65010 
43 ,8.7013 ,1.08117 ,4.73044 ,46.41506 
44 ,8.9250 ,1.08333 ,4.71333 ,46.24716 
45 ,9.1174 ,1.08534 ,4.67568 ,45.87780 
46 ,9.3094 ,1.08722 ,4.67911 ,45.91138 
47 ,9.5171 ,1.08936 ,4.64146 ,45.54202 
48 ,9.7091 ,1.09124 ,4.63462 ,45.47486 
49 ,9.9014 ,1.09315 ,4.62435 ,45.37413 
50 ,10.0938 ,1.09511 ,4.59013 ,45.03835 
51 ,10.3180 ,1.09722 ,4.57986 ,44.93761 
52 ,10.5101 ,1.09926 ,4.56617 ,44.80330 
53 ,10.7177 ,1.10134 ,4.53880 ,44.53467 
54 ,10.9102 ,1.10328 ,4.52511 ,44.40036 
55 ,11.1181 ,1.10532 ,4.49431 ,44.09815 
56 ,11.3104 ,1.10732 ,4.49089 ,44.06457 
57 ,11.5025 ,1.10920 ,4.47720 ,43.93026 
58 ,11.6945 ,1.11108 ,4.43271 ,43.49374 
59 ,11.8864 ,1.11303 ,4.44298 ,43.59448 
60 ,12.0787 ,1.11500 ,4.40533 ,43.22512 
61 ,12.2705 ,1.11700 ,4.41902 ,43.35943 
62 ,12.4629 ,1.11876 ,4.38480 ,43.02365 
63 ,12.6549 ,1.12071 ,4.35742 ,42.75502 
64 ,12.8465 ,1.12258 ,4.35400 ,42.72144 
65 ,13.0230 ,1.12450 ,4.32320 ,42.41924 
66 ,13.2313 ,1.12646 ,4.30951 ,42.28492 
67 ,13.4392 ,1.12856 ,4.29582 ,42.15061 
68 ,13.6314 ,1.13045 ,4.26502 ,41.84841 
69 ,13.8234 ,1.13239 ,4.26845 ,41.88198 
70 ,14.0310 ,1.13447 ,4.24107 ,41.61336 
71 ,14.2231 ,1.13641 ,4.24107 ,41.61336 
72 ,14.4152 ,1.13834 ,4.20000 ,41.21042 
73 ,14.6392 ,1.14039 ,4.16920 ,40.90821 
74 ,14.8314 ,1.14252 ,4.17947 ,41.00895 
75 ,15.0235 ,1.14443 ,4.15894 ,40.80748 
76 ,15.2314 ,1.14643 ,4.13156 ,40.53885 
77 ,15.4235 ,1.14838 ,4.11103 ,40.33738 
78 ,15.6156 ,1.15026 ,4.09391 ,40.16949 
79 ,15.8241 ,1.15234 ,4.09734 ,40.20307 
80 ,16.0803 ,1.15494 ,4.05627 ,39.80013 
81 ,16.2884 ,1.15702 ,4.05627 ,39.80013 
82 ,16.4805 ,1.15896 ,4.02547 ,39.49793 
83 ,16.6883 ,1.16105 ,4.01863 ,39.43077 
84 ,16.8802 ,1.16293 ,3.98441 ,39.09499 
85 ,17.0728 ,1.16485 ,3.97072 ,38.96067 
86 ,17.2646 ,1.16680 ,3.95018 ,38.75920 
87 ,17.4730 ,1.16884 ,3.92623 ,38.52415 
88 ,17.6810 ,1.17099 ,3.91938 ,38.45700 
89 ,17.8732 ,1.17291 ,3.89885 ,38.25553 
90 ,18.0812 ,1.17497 ,3.86463 ,37.91975 
91 ,18.2732 ,1.17683 ,3.86121 ,37.88617 
92 ,18.4653 ,1.17880 ,3.84752 ,37.75185 
93 ,18.6574 ,1.18068 ,3.82014 ,37.48323 
94 ,18.8656 ,1.18266 ,3.82356 ,37.51681 
95 ,19.0737 ,1.18489 ,3.78934 ,37.18102 
96 ,19.2657 ,1.18679 ,3.78934 ,37.18102 
97 ,19.4576 ,1.18872 ,3.75512 ,36.84524 
98 ,19.6816 ,1.19090 ,3.75854 ,36.87882 
99 ,19.8899 ,1.19300 ,3.73117 ,36.61019 
100 ,20.0817 ,1.19489 ,3.70721 ,36.37514 
101 ,20.2740 ,1.19687 ,3.68668 ,36.17367 
102 ,20.4977 ,1.19913 ,3.67983 ,36.10652 
103 ,20.6900 ,1.20106 ,3.67299 ,36.03936 
104 ,20.8982 ,1.20308 ,3.62508 ,35.56926 
105 ,21.0904 ,1.20502 ,3.63192 ,35.63642 
106 ,21.2984 ,1.20707 ,3.60112 ,35.33422 
107 ,21.4907 ,1.20907 ,3.59770 ,35.30064 
108 ,21.6823 ,1.21095 ,3.59086 ,35.23348 
109 ,21.8748 ,1.21289 ,3.53952 ,34.72981 
110 ,22.0828 ,1.21493 ,3.55321 ,34.86412 
111 ,22.2750 ,1.21686 ,3.51557 ,34.49476 
112 ,22.4830 ,1.21892 ,3.50872 ,34.42760 
113 ,22.6752 ,1.22086 ,3.49504 ,34.29329 
114 ,22.8670 ,1.22276 ,3.48477 ,34.19255 
115 ,23.0592 ,1.22471 ,3.45055 ,33.85677 
116 ,23.2515 ,1.22656 ,3.45397 ,33.89035 
117 ,23.4434 ,1.22857 ,3.43344 ,33.68888 
118 ,23.6357 ,1.23045 ,3.39579 ,33.31952 
119 ,23.8277 ,1.23238 ,3.40948 ,33.45383 
120 ,24.0198 ,1.23432 ,3.38553 ,33.21878 
121 ,24.2278 ,1.23637 ,3.37868 ,33.15163 
122 ,24.4038 ,1.23827 ,3.33762 ,32.74869 
123 ,24.5959 ,1.24002 ,3.32393 ,32.61437 
124 ,24.7876 ,1.24195 ,3.33419 ,32.71511 
125 ,24.9797 ,1.24389 ,3.27944 ,32.17786 
126 ,25.1720 ,1.24585 ,3.29313 ,32.31217 
127 ,25.3962 ,1.24797 ,3.25891 ,31.97639 
128 ,25.6042 ,1.25010 ,3.24864 ,31.87565 
129 ,25.7963 ,1.25208 ,3.22126 ,31.60702 
130 ,25.9884 ,1.25398 ,3.20757 ,31.47271 
131 ,26.1963 ,1.25601 ,3.18704 ,31.27124 
132 ,26.4044 ,1.25813 ,3.17335 ,31.13693 
133 ,26.5964 ,1.26006 ,3.15966 ,31.00262 
134 ,26.7887 ,1.26200 ,3.16651 ,31.06977 
135 ,26.9809 ,1.26393 ,3.12886 ,30.70041 
136 ,27.1725 ,1.26592 ,3.13229 ,30.73399 
137 ,27.3651 ,1.26775 ,3.11175 ,30.53252 
138 ,27.5732 ,1.26984 ,3.09122 ,30.33105 
139 ,27.7651 ,1.27173 ,3.06726 ,30.09600 
140 ,27.9728 ,1.27382 ,3.05358 ,29.96169 
141 ,28.1648 ,1.27574 ,3.03647 ,29.79380 
142 ,28.3570 ,1.27769 ,3.00909 ,29.52517 
143 ,28.6136 ,1.28017 ,3.00909 ,29.52517 
144 ,28.8055 ,1.28217 ,2.99540 ,29.39086 
145 ,28.9976 ,1.28402 ,2.96460 ,29.08865 
146 ,29.1898 ,1.28596 ,2.96460 ,29.08865 
147 ,29.3973 ,1.28809 ,2.93038 ,28.75287 
148 ,29.5900 ,1.29002 ,2.93380 ,28.78645 
149 ,29.7980 ,1.29196 ,2.90642 ,28.51782 
150 ,30.0059 ,1.29412 ,2.89273 ,28.38351 
151 ,30.1982 ,1.29603 ,2.86536 ,28.11488 
152 ,30.4060 ,1.29816 ,2.86193 ,28.08130 
153 ,30.5822 ,1.30004 ,2.83456 ,27.81268 
154 ,30.7743 ,1.30183 ,2.83114 ,27.77910 
155 ,30.9663 ,1.30378 ,2.82429 ,27.71194 
156 ,31.1744 ,1.30584 ,2.79691 ,27.44332 
157 ,31.3826 ,1.30782 ,2.79007 ,27.37616 
158 ,31.5742 ,1.30982 ,2.77980 ,27.27542 
159 ,31.7668 ,1.31177 ,2.75585 ,27.04038 
160 ,31.9749 ,1.31384 ,2.74558 ,26.93964 
161 ,32.1668 ,1.31582 ,2.72505 ,26.73817 
162 ,32.3750 ,1.31782 ,2.70109 ,26.50312 
163 ,32.5671 ,1.31971 ,2.69767 ,26.46954 
164 ,32.7591 ,1.32165 ,2.66687 ,26.16734 
165 ,32.9512 ,1.32358 ,2.67029 ,26.20092 
166 ,33.1434 ,1.32546 ,2.63607 ,25.86514 
167 ,33.3354 ,1.32751 ,2.63265 ,25.83156 
168 ,33.5273 ,1.32931 ,2.63265 ,25.83156 
169 ,33.7192 ,1.33122 ,2.59158 ,25.42862 
170 ,33.9117 ,1.33323 ,2.60527 ,25.56293 
171 ,34.1195 ,1.33525 ,2.55736 ,25.09283 
172 ,34.3114 ,1.33715 ,2.56421 ,25.15999 
173 ,34.5039 ,1.33912 ,2.52656 ,24.79063 
174 ,34.7120 ,1.34113 ,2.52998 ,24.82421 
175 ,34.9038 ,1.34314 ,2.49576 ,24.48842 
176 ,35.2879 ,1.34604 ,2.50603 ,24.58916 
177 ,35.4802 ,1.34892 ,2.45812 ,24.11906 
178 ,35.6724 ,1.35082 ,2.45812 ,24.11906 
179 ,35.8645 ,1.35273 ,2.44443 ,23.98475 
180 ,36.0726 ,1.35483 ,2.42732 ,23.81686 
181 ,36.2802 ,1.35684 ,2.39652 ,23.51465 
182 ,36.4727 ,1.35875 ,2.39652 ,23.51465 
183 ,36.6806 ,1.36088 ,2.36914 ,23.24603 
184 ,36.8727 ,1.36281 ,2.35888 ,23.14529 
185 ,37.0644 ,1.36472 ,2.34519 ,23.01098 
186 ,37.2570 ,1.36662 ,2.32808 ,22.84309 
187 ,37.4489 ,1.36853 ,2.33492 ,22.91024 
188 ,37.6412 ,1.37045 ,2.28359 ,22.40657 
189 ,37.8334 ,1.37239 ,2.30070 ,22.57446 
190 ,38.0414 ,1.37443 ,2.26648 ,22.23868 
191 ,38.2332 ,1.37637 ,2.26306 ,22.20510 
192 ,38.4253 ,1.37831 ,2.24252 ,22.00363 
193 ,38.6173 ,1.38022 ,2.21515 ,21.73500 
194 ,38.8097 ,1.38220 ,2.21172 ,21.70143 
195 ,39.0173 ,1.38426 ,2.19119 ,21.49996 
196 ,39.2094 ,1.38612 ,2.18777 ,21.46638 
197 ,39.4337 ,1.38838 ,2.16381 ,21.23133 
198 ,39.6420 ,1.39048 ,2.13986 ,20.99628 
199 ,39.8339 ,1.39239 ,2.14670 ,21.06344 
200 ,40.0261 ,1.39427 ,2.11590 ,20.76123 
201 ,40.2181 ,1.39628 ,2.09879 ,20.59334 
202 ,40.4263 ,1.39828 ,2.08510 ,20.45903 
203 ,40.6345 ,1.40030 ,2.06799 ,20.29114 
204 ,40.8265 ,1.40230 ,2.06115 ,20.22398 
205 ,41.0345 ,1.40443 ,2.04404 ,20.05609 
206 ,41.2267 ,1.40632 ,2.04061 ,20.02251 
207 ,41.4343 ,1.40835 ,2.02008 ,19.82104 
208 ,41.6265 ,1.41030 ,2.00982 ,19.72031 
209 ,41.8352 ,1.41239 ,1.98244 ,19.45168 
210 ,42.0268 ,1.41430 ,1.99270 ,19.55241 
211 ,42.2190 ,1.41621 ,1.95164 ,19.14948 
212 ,42.4270 ,1.41827 ,1.94479 ,19.08232 
213 ,42.6189 ,1.42023 ,1.91742 ,18.81369 
214 ,42.8112 ,1.42215 ,1.92426 ,18.88085 
215 ,43.0194 ,1.42425 ,1.90031 ,18.64580 
216 ,43.2114 ,1.42615 ,1.89688 ,18.61222 
217 ,43.4195 ,1.42822 ,1.86266 ,18.27644 
218 ,43.6431 ,1.43042 ,1.84555 ,18.10855 
219 ,43.8356 ,1.43235 ,1.83186 ,17.97423 
220 ,44.0275 ,1.43426 ,1.83186 ,17.97423 
221 ,44.2358 ,1.43641 ,1.81817 ,17.83992 
222 ,44.4277 ,1.43833 ,1.80106 ,17.67203 
223 ,44.6200 ,1.44024 ,1.77711 ,17.43698 
224 ,44.8117 ,1.44225 ,1.78737 ,17.53772 
225 ,45.0042 ,1.44406 ,1.75315 ,17.20193 
226 ,45.1958 ,1.44597 ,1.73946 ,17.06762 
227 ,45.3883 ,1.44789 ,1.73604 ,17.03404 
228 ,45.5803 ,1.44986 ,1.70866 ,16.76542 
229 ,45.7724 ,1.45175 ,1.70524 ,16.73184 
230 ,45.9807 ,1.45387 ,1.68129 ,16.49679 
231 ,46.1887 ,1.45589 ,1.69155 ,16.59752 
232 ,46.3967 ,1.45801 ,1.65391 ,16.22816 
233 ,46.5887 ,1.45996 ,1.65049 ,16.19458 
234 ,46.7810 ,1.46177 ,1.62311 ,15.92596 
235 ,46.9725 ,1.46385 ,1.62311 ,15.92596 
236 ,47.1648 ,1.46567 ,1.59231 ,15.62375 
237 ,47.3731 ,1.46763 ,1.57520 ,15.45586 
238 ,47.5652 ,1.46965 ,1.57520 ,15.45586 
239 ,47.7569 ,1.47155 ,1.56836 ,15.38871 
240 ,47.9493 ,1.47344 ,1.56151 ,15.32155 
241 ,48.1574 ,1.47560 ,1.54098 ,15.12008 
242 ,48.3655 ,1.47768 ,1.51702 ,14.88503 
243 ,48.5736 ,1.47975 ,1.52045 ,14.91861 
244 ,48.7818 ,1.48180 ,1.47938 ,14.51567 
245 ,48.9738 ,1.48379 ,1.47938 ,14.51567 
246 ,49.1658 ,1.48567 ,1.46911 ,14.41493 
247 ,49.3580 ,1.48754 ,1.44858 ,14.21346 
248 ,49.5660 ,1.48971 ,1.43489 ,14.07915 
249 ,49.7740 ,1.49162 ,1.41094 ,13.84410 
250 ,49.9662 ,1.49372 ,1.41094 ,13.84410 
251 ,50.1578 ,1.49564 ,1.39040 ,13.64263 
252 ,50.3502 ,1.49748 ,1.39725 ,13.70979 
253 ,50.5583 ,1.49956 ,1.35276 ,13.27327 
254 ,50.7503 ,1.50153 ,1.36987 ,13.44116 
255 ,50.9584 ,1.50363 ,1.32538 ,13.00465 
256 ,51.1507 ,1.50549 ,1.33907 ,13.13896 
257 ,51.3426 ,1.50755 ,1.31169 ,12.87033 
258 ,51.5345 ,1.50936 ,1.31512 ,12.90391 
259 ,51.7270 ,1.51128 ,1.29800 ,12.73602 
260 ,51.9189 ,1.51318 ,1.27063 ,12.46739 
261 ,52.1109 ,1.51510 ,1.27747 ,12.53455 
262 ,52.3029 ,1.51700 ,1.24667 ,12.23235 
263 ,52.5269 ,1.51918 ,1.24325 ,12.19877 
264 ,52.7192 ,1.52122 ,1.20903 ,11.86298 
265 ,52.9109 ,1.52309 ,1.21929 ,11.96372 
266 ,53.1353 ,1.52516 ,1.18850 ,11.66151 
267 ,53.3273 ,1.52721 ,1.19534 ,11.72867 
268 ,53.5196 ,1.52921 ,1.15427 ,11.32573 
269 ,53.7117 ,1.53112 ,1.15427 ,11.32573 
270 ,53.9037 ,1.53303 ,1.15085 ,11.29215 
271 ,54.1115 ,1.53495 ,1.12690 ,11.05710 
272 ,54.3040 ,1.53699 ,1.10979 ,10.88921 
273 ,54.4958 ,1.53899 ,1.09267 ,10.72132 
274 ,54.6880 ,1.54086 ,1.09610 ,10.75490 
275 ,54.8960 ,1.54295 ,1.06872 ,10.48627 
276 ,55.0882 ,1.54486 ,1.05845 ,10.38554 
277 ,55.2803 ,1.54679 ,1.04476 ,10.25123 
278 ,55.4723 ,1.54868 ,1.04134 ,10.21765 
279 ,55.6641 ,1.55065 ,1.01054 ,9.91544 
280 ,55.8564 ,1.55253 ,1.00712 ,9.88186 
281 ,56.0647 ,1.55461 ,1.00028 ,9.81471 
282 ,56.2887 ,1.55683 ,0.99001 ,9.71397 
283 ,56.4967 ,1.55897 ,0.96263 ,9.44535 
284 ,56.6884 ,1.56091 ,0.96605 ,9.47892 
285 ,56.8810 ,1.56281 ,0.93868 ,9.21030 
286 ,57.0890 ,1.56489 ,0.94552 ,9.27745 
287 ,57.2812 ,1.56679 ,0.90103 ,8.84094 
288 ,57.4732 ,1.56875 ,0.90103 ,8.84094 
289 ,57.6653 ,1.57065 ,0.90103 ,8.84094 
290 ,57.8733 ,1.57269 ,0.87708 ,8.60589 
291 ,58.0655 ,1.57460 ,0.87366 ,8.57231 
292 ,58.2575 ,1.57655 ,0.84970 ,8.33726 
293 ,58.4496 ,1.57846 ,0.85997 ,8.43800 
294 ,58.6414 ,1.58040 ,0.82575 ,8.10221 
295 ,58.8498 ,1.58241 ,0.82232 ,8.06864 
296 ,59.0419 ,1.58441 ,0.79837 ,7.83359 
297 ,59.2500 ,1.58645 ,0.80521 ,7.90074 
298 ,59.4418 ,1.58840 ,0.76757 ,7.53138 
299 ,59.6342 ,1.59034 ,0.77784 ,7.63212 
300 ,59.8260 ,1.59223 ,0.74361 ,7.29633 
301 ,60.0177 ,1.59414 ,0.73677 ,7.22918 
302 ,60.2101 ,1.59602 ,0.74361 ,7.29633 
303 ,60.4023 ,1.59793 ,0.70597 ,6.92697 
304 ,60.5944 ,1.59993 ,0.71281 ,6.99413 
305 ,60.8026 ,1.60191 ,0.69570 ,6.82624 
306 ,61.0103 ,1.60410 ,0.68886 ,6.75908 
307 ,61.2187 ,1.60612 ,0.65464 ,6.42330 
308 ,61.4267 ,1.60821 ,0.66148 ,6.49046 
309 ,61.6188 ,1.61012 ,0.62384 ,6.12109 
310 ,61.8111 ,1.61206 ,0.63753 ,6.25541 
311 ,62.0030 ,1.61404 ,0.61699 ,6.05394 
312 ,62.1947 ,1.61592 ,0.59304 ,5.81889 
313 ,62.3872 ,1.61784 ,0.59988 ,5.88605 
314 ,62.5951 ,1.61994 ,0.56908 ,5.58384 
315 ,62.7874 ,1.62184 ,0.56908 ,5.58384 
316 ,62.9954 ,1.62391 ,0.55539 ,5.44953 
317 ,63.2035 ,1.62592 ,0.55882 ,5.48311 
318 ,63.3796 ,1.62786 ,0.53486 ,5.24806 
319 ,63.5716 ,1.62969 ,0.52802 ,5.18090 
320 ,63.7635 ,1.63162 ,0.51433 ,5.04659 
321 ,63.9558 ,1.63345 ,0.49380 ,4.84512 
322 ,64.1480 ,1.63541 ,0.50406 ,4.94585 
323 ,64.3398 ,1.63736 ,0.47326 ,4.64365 
324 ,64.5321 ,1.63930 ,0.47668 ,4.67723 
325 ,64.7402 ,1.64137 ,0.43220 ,4.24071 
326 ,64.9482 ,1.64335 ,0.44588 ,4.37502 
327 ,65.1244 ,1.64530 ,0.42193 ,4.13997 
328 ,65.3164 ,1.64711 ,0.41851 ,4.10640 
329 ,65.5240 ,1.64921 ,0.41166 ,4.03924 
330 ,65.7165 ,1.65108 ,0.39797 ,3.90493 
331 ,65.9087 ,1.65300 ,0.38429 ,3.77061 
332 ,66.1007 ,1.65497 ,0.36718 ,3.60272 
333 ,66.2927 ,1.65683 ,0.36375 ,3.56914 
334 ,66.4849 ,1.65879 ,0.35349 ,3.46841 
335 ,66.6769 ,1.66071 ,0.32611 ,3.19978 
336 ,66.8689 ,1.66260 ,0.33638 ,3.30052 
337 ,67.0611 ,1.66454 ,0.31584 ,3.09905 
338 ,67.2692 ,1.66663 ,0.31242 ,3.06547 
339 ,67.4613 ,1.66858 ,0.29189 ,2.86400 
340 ,67.6529 ,1.67048 ,0.27135 ,2.66253 
341 ,67.8453 ,1.67239 ,0.28847 ,2.83042 
342 ,68.0535 ,1.67445 ,0.26793 ,2.62895 
343 ,68.2775 ,1.67670 ,0.23371 ,2.29317 
344 ,68.4855 ,1.67875 ,0.24055 ,2.36032 
345 ,68.6776 ,1.68066 ,0.22344 ,2.19243 
346 ,68.8538 ,1.68254 ,0.22344 ,2.19243 
347 ,69.0459 ,1.68438 ,0.21318 ,2.09170 
348 ,69.2378 ,1.68628 ,0.18922 ,1.85665 
349 ,69.4298 ,1.68819 ,0.18922 ,1.85665 
350 ,69.6216 ,1.69014 ,0.17553 ,1.72234 
351 ,69.8137 ,1.69205 ,0.15842 ,1.55445 
352 ,70.0059 ,1.69399 ,0.16527 ,1.62160 
353 ,70.2143 ,1.69594 ,0.12078 ,1.18508 
354 ,70.4224 ,1.69813 ,0.14131 ,1.38655 
355 ,70.6142 ,1.70008 ,0.10367 ,1.01719 
356 ,70.8224 ,1.70213 ,0.11051 ,1.08435 
357 ,71.0145 ,1.70407 ,0.08656 ,0.84930 
358 ,71.2227 ,1.70608 ,0.07287 ,0.71499 
359 ,71.4146 ,1.70802 ,0.06602 ,0.64783 
360 ,71.6067 ,1.70999 ,0.07629 ,0.74857 
361 ,71.7987 ,1.71190 ,0.03180 ,0.31205 
362 ,72.0068 ,1.71397 ,0.05234 ,0.51352 
363 ,72.1987 ,1.71588 ,0.01127 ,0.11058 
364 ,72.4231 ,1.71805 ,0.02496 ,0.24489 
365 ,72.6314 ,1.72022 ,0.01127 ,0.11058 
366 ,72.8232 ,1.72215 ,-0.00584 ,-0.05731 
367 ,73.0154 ,1.72410 ,-0.01953 ,-0.19163 
368 ,73.2234 ,1.72617 ,-0.01953 ,-0.19163 
369 ,73.3994 ,1.72802 ,-0.04348 ,-0.42667 
370 ,73.5917 ,1.72981 ,-0.03322 ,-0.32594 
371 ,73.7996 ,1.73190 ,-0.06060 ,-0.59457 
372 ,73.9918 ,1.73381 ,-0.05375 ,-0.52741 
373 ,74.1838 ,1.73591 ,-0.08797 ,-0.86319 
374 ,74.3920 ,1.73773 ,-0.08797 ,-0.86319 
375 ,74.6160 ,1.74000 ,-0.10508 ,-1.03108 
376 ,74.8080 ,1.74198 ,-0.09140 ,-0.89677 
377 ,75.0000 ,1.74388 ,-0.13588 ,-1.33329 
378 ,75.1922 ,1.74577 ,-0.12904 ,-1.26613 
379 ,75.3844 ,1.74771 ,-0.13588 ,-1.33329 
380 ,75.5760 ,1.74964 ,-0.15642 ,-1.53476 
381 ,75.7525 ,1.75157 ,-0.16326 ,-1.60191 
382 ,75.9447 ,1.75332 ,-0.17695 ,-1.73623 
383 ,76.1524 ,1.75539 ,-0.16668 ,-1.63549 
384 ,76.3448 ,1.75730 ,-0.17695 ,-1.73623 
385 ,76.5527 ,1.75947 ,-0.21117 ,-2.07201 
386 ,76.7609 ,1.76150 ,-0.22144 ,-2.17275 
387 ,76.9530 ,1.76339 ,-0.21459 ,-2.10559 
388 ,77.1609 ,1.76548 ,-0.24197 ,-2.37422 
389 ,77.3531 ,1.76740 ,-0.23513 ,-2.30706 
390 ,77.5447 ,1.76933 ,-0.24197 ,-2.37422 
391 ,77.7373 ,1.77124 ,-0.27277 ,-2.67642 
392 ,77.9452 ,1.77334 ,-0.27277 ,-2.67642 
393 ,78.1375 ,1.77526 ,-0.28646 ,-2.81073 
394 ,78.3294 ,1.77724 ,-0.28646 ,-2.81073 
395 ,78.5214 ,1.77909 ,-0.31726 ,-3.11294 
396 ,78.7136 ,1.78097 ,-0.31384 ,-3.07936 
397 ,78.9055 ,1.78293 ,-0.32068 ,-3.14652 
398 ,79.0978 ,1.78485 ,-0.34806 ,-3.41514 
399 ,79.3057 ,1.78692 ,-0.33437 ,-3.28083 
400 ,79.4979 ,1.78884 ,-0.35832 ,-3.51588 
401 ,79.7057 ,1.79094 ,-0.35832 ,-3.51588 
402 ,79.8979 ,1.79285 ,-0.36859 ,-3.61661 
403 ,80.0901 ,1.79481 ,-0.37201 ,-3.65019 
404 ,80.2980 ,1.79682 ,-0.40623 ,-3.98597 
405 ,80.5224 ,1.79899 ,-0.39255 ,-3.85166 
406 ,80.7144 ,1.80101 ,-0.42335 ,-4.15387 
407 ,80.9064 ,1.80289 ,-0.40281 ,-3.95240 
408 ,81.0986 ,1.80485 ,-0.44388 ,-4.35534 
409 ,81.3066 ,1.80686 ,-0.43019 ,-4.22102 
410 ,81.5147 ,1.80903 ,-0.45072 ,-4.42249 
411 ,81.7069 ,1.81094 ,-0.45072 ,-4.42249 
412 ,81.8985 ,1.81284 ,-0.47468 ,-4.65754 
413 ,82.0910 ,1.81479 ,-0.46783 ,-4.59038 
414 ,82.2988 ,1.81687 ,-0.49863 ,-4.89259 
415 ,82.4912 ,1.81874 ,-0.48152 ,-4.72470 
416 ,82.7154 ,1.82091 ,-0.51574 ,-5.06048 
417 ,82.9233 ,1.82314 ,-0.51232 ,-5.02690 
418 ,83.1151 ,1.82501 ,-0.53285 ,-5.22837 
419 ,83.3396 ,1.82724 ,-0.54997 ,-5.39626 
420 ,83.5477 ,1.82935 ,-0.53628 ,-5.26195 
421 ,83.7713 ,1.83146 ,-0.56023 ,-5.49700 
422 ,83.9638 ,1.83353 ,-0.57050 ,-5.59773 
423 ,84.1716 ,1.83557 ,-0.56365 ,-5.53058 
424 ,84.3640 ,1.83754 ,-0.57734 ,-5.66489 
425 ,84.5560 ,1.83945 ,-0.60472 ,-5.93352 
426 ,84.7481 ,1.84135 ,-0.59788 ,-5.86636 
427 ,84.9723 ,1.84350 ,-0.61156 ,-6.00067 
428 ,85.1639 ,1.84554 ,-0.62525 ,-6.13499 
429 ,85.3563 ,1.84744 ,-0.63894 ,-6.26930 
430 ,85.5646 ,1.84951 ,-0.62183 ,-6.10141 
431 ,85.7565 ,1.85149 ,-0.66290 ,-6.50435 
432 ,85.9646 ,1.85349 ,-0.65263 ,-6.40361 
433 ,86.1563 ,1.85540 ,-0.67659 ,-6.63866 
434 ,86.3648 ,1.85758 ,-0.68343 ,-6.70582 
435 ,86.5571 ,1.85943 ,-0.70396 ,-6.90729 
436 ,86.7489 ,1.86136 ,-0.68685 ,-6.73940 
437 ,86.9411 ,1.86328 ,-0.71423 ,-7.00802 
438 ,87.1330 ,1.86521 ,-0.71765 ,-7.04160 
439 ,87.3252 ,1.86711 ,-0.70054 ,-6.87371 
440 ,87.5012 ,1.86901 ,-0.74845 ,-7.34380 
441 ,87.6933 ,1.87082 ,-0.74161 ,-7.27665 
442 ,87.8695 ,1.87265 ,-0.75187 ,-7.37738 
443 ,88.0615 ,1.87445 ,-0.74845 ,-7.34380 
444 ,88.2537 ,1.87638 ,-0.76214 ,-7.47812 
445 ,88.4612 ,1.87848 ,-0.77583 ,-7.61243 
446 ,88.6533 ,1.88041 ,-0.78610 ,-7.71317 
447 ,88.8457 ,1.88233 ,-0.77925 ,-7.64601 
448 ,89.0699 ,1.88452 ,-0.78952 ,-7.74674 
449 ,89.2619 ,1.88640 ,-0.81689 ,-8.01537 
450 ,89.4541 ,1.88835 ,-0.81689 ,-8.01537 
451 ,89.6462 ,1.89032 ,-0.82374 ,-8.08253 
452 ,89.8385 ,1.89224 ,-0.84085 ,-8.25042 
453 ,90.0464 ,1.89433 ,-0.83401 ,-8.18326 
454 ,90.2704 ,1.89656 ,-0.84769 ,-8.31758 
455 ,90.4625 ,1.89848 ,-0.85796 ,-8.41831 
456 ,90.6542 ,1.90033 ,-0.87507 ,-8.58620 
457 ,90.8467 ,1.90236 ,-0.86481 ,-8.48547 
458 ,91.0546 ,1.90437 ,-0.89903 ,-8.82125 
459 ,91.2468 ,1.90632 ,-0.87849 ,-8.61978 
460 ,91.4390 ,1.90823 ,-0.91272 ,-8.95556 
461 ,91.6311 ,1.91017 ,-0.91272 ,-8.95556 
462 ,91.8231 ,1.91212 ,-0.91614 ,-8.98914 
463 ,92.0313 ,1.91412 ,-0.92640 ,-9.08988 
