Data stamp = , 01-05-2022 20:38:36 581

Calibration Values: 
Slope = , 26.54 , g/V 
Offset Voltage at no contact = , -0.501760 , V 

No , Time , Stage Position ,   Mass , Force 
   ,  (s) ,      (mm)      ,   (g)  , (mN)  

1 ,0.0000 ,0.99945 ,5.35669 ,52.55988 
2 ,0.2322 ,0.99953 ,5.33616 ,52.35841 
3 ,0.7928 ,1.00192 ,5.36012 ,52.59346 
4 ,1.0330 ,1.00446 ,5.34643 ,52.45915 
5 ,1.2409 ,1.00656 ,5.34643 ,52.45915 
6 ,1.4326 ,1.00844 ,5.34301 ,52.42557 
7 ,1.6250 ,1.01045 ,5.32932 ,52.29126 
8 ,1.8492 ,1.01258 ,5.29510 ,51.95548 
9 ,2.0413 ,1.01465 ,5.27114 ,51.72043 
10 ,2.2494 ,1.01659 ,5.26772 ,51.68685 
11 ,2.4576 ,1.01879 ,5.23350 ,51.35107 
12 ,2.6495 ,1.02070 ,5.23692 ,51.38464 
13 ,2.8735 ,1.02284 ,5.19243 ,50.94813 
14 ,3.0658 ,1.02484 ,5.18216 ,50.84739 
15 ,3.2739 ,1.02694 ,5.16163 ,50.64592 
16 ,3.4978 ,1.02908 ,5.13425 ,50.37729 
17 ,3.6899 ,1.03109 ,5.13425 ,50.37729 
18 ,3.8819 ,1.03296 ,5.09319 ,49.97436 
19 ,4.0741 ,1.03491 ,5.07950 ,49.84004 
20 ,4.2661 ,1.03685 ,5.07608 ,49.80646 
21 ,4.4583 ,1.03877 ,5.04528 ,49.50426 
22 ,4.6660 ,1.04083 ,5.03843 ,49.43710 
23 ,4.8585 ,1.04284 ,4.99394 ,49.00058 
24 ,5.0666 ,1.04488 ,4.99394 ,49.00058 
25 ,5.2587 ,1.04677 ,4.96657 ,48.73196 
26 ,5.4507 ,1.04868 ,4.96315 ,48.69838 
27 ,5.6428 ,1.05061 ,4.92208 ,48.29544 
28 ,5.8343 ,1.05253 ,4.91866 ,48.26186 
29 ,6.0428 ,1.05451 ,4.90155 ,48.09397 
30 ,6.2351 ,1.05654 ,4.87417 ,47.82534 
31 ,6.4270 ,1.05845 ,4.85706 ,47.65745 
32 ,6.6191 ,1.06039 ,4.83652 ,47.45598 
33 ,6.8270 ,1.06234 ,4.82968 ,47.38883 
34 ,7.0674 ,1.06489 ,4.80230 ,47.12020 
35 ,7.2752 ,1.06692 ,4.78177 ,46.91873 
36 ,7.4833 ,1.06890 ,4.77493 ,46.85157 
37 ,7.6916 ,1.07109 ,4.74413 ,46.54937 
38 ,7.8835 ,1.07307 ,4.71333 ,46.24716 
39 ,8.0756 ,1.07493 ,4.70990 ,46.21359 
40 ,8.2839 ,1.07702 ,4.67911 ,45.91138 
41 ,8.4920 ,1.07912 ,4.67226 ,45.84422 
42 ,8.6840 ,1.08101 ,4.63804 ,45.50844 
43 ,8.8916 ,1.08307 ,4.63804 ,45.50844 
44 ,9.0838 ,1.08502 ,4.60724 ,45.20624 
45 ,9.2922 ,1.08703 ,4.59697 ,45.10550 
46 ,9.5003 ,1.08923 ,4.57302 ,44.87045 
47 ,9.7083 ,1.09126 ,4.56960 ,44.83688 
48 ,9.9005 ,1.09317 ,4.54564 ,44.60183 
49 ,10.1086 ,1.09524 ,4.52853 ,44.43394 
50 ,10.3005 ,1.09716 ,4.49773 ,44.13173 
51 ,10.4926 ,1.09907 ,4.50115 ,44.16531 
52 ,10.6849 ,1.10102 ,4.46351 ,43.79595 
53 ,10.8929 ,1.10312 ,4.46351 ,43.79595 
54 ,11.0849 ,1.10502 ,4.42929 ,43.46016 
55 ,11.2766 ,1.10691 ,4.41902 ,43.35943 
56 ,11.4693 ,1.10886 ,4.40191 ,43.19154 
57 ,11.6613 ,1.11080 ,4.36427 ,42.82218 
58 ,11.8533 ,1.11268 ,4.37111 ,42.88933 
59 ,12.0450 ,1.11461 ,4.34373 ,42.62071 
60 ,12.2374 ,1.11650 ,4.33347 ,42.51997 
61 ,12.4291 ,1.11847 ,4.31978 ,42.38566 
62 ,12.6216 ,1.12037 ,4.29924 ,42.18419 
63 ,12.8453 ,1.12262 ,4.27187 ,41.91556 
64 ,13.0376 ,1.12455 ,4.25476 ,41.74767 
65 ,13.2298 ,1.12647 ,4.25476 ,41.74767 
66 ,13.4377 ,1.12854 ,4.23765 ,41.57978 
67 ,13.6459 ,1.13063 ,4.22053 ,41.41189 
68 ,13.8541 ,1.13273 ,4.19658 ,41.17684 
69 ,14.0460 ,1.13462 ,4.16578 ,40.87464 
70 ,14.2542 ,1.13668 ,4.16578 ,40.87464 
71 ,14.4461 ,1.13858 ,4.13156 ,40.53885 
72 ,14.6383 ,1.14051 ,4.11445 ,40.37096 
73 ,14.8303 ,1.14246 ,4.11103 ,40.33738 
74 ,15.0386 ,1.14456 ,4.09049 ,40.13591 
75 ,15.2303 ,1.14644 ,4.06654 ,39.90087 
76 ,15.4227 ,1.14838 ,4.05285 ,39.76655 
77 ,15.6144 ,1.15033 ,4.04258 ,39.66582 
78 ,15.8067 ,1.15218 ,4.02547 ,39.49793 
79 ,16.0309 ,1.15446 ,3.99467 ,39.19572 
80 ,16.2390 ,1.15656 ,3.96729 ,38.92709 
81 ,16.4308 ,1.15842 ,3.96729 ,38.92709 
82 ,16.6232 ,1.16036 ,3.93992 ,38.65847 
83 ,16.8150 ,1.16230 ,3.93992 ,38.65847 
84 ,17.0073 ,1.16424 ,3.90227 ,38.28911 
85 ,17.2155 ,1.16631 ,3.90227 ,38.28911 
86 ,17.4395 ,1.16841 ,3.86463 ,37.91975 
87 ,17.6316 ,1.17048 ,3.86805 ,37.95332 
88 ,17.8393 ,1.17255 ,3.82699 ,37.55038 
89 ,18.0477 ,1.17454 ,3.82699 ,37.55038 
90 ,18.2716 ,1.17674 ,3.80645 ,37.34891 
91 ,18.4798 ,1.17892 ,3.77223 ,37.01313 
92 ,18.6717 ,1.18087 ,3.77908 ,37.08029 
93 ,18.8636 ,1.18288 ,3.74828 ,36.77808 
94 ,19.0401 ,1.18463 ,3.72774 ,36.57661 
95 ,19.2481 ,1.18648 ,3.72090 ,36.50946 
96 ,19.4402 ,1.18853 ,3.68668 ,36.17367 
97 ,19.6324 ,1.19044 ,3.69352 ,36.24083 
98 ,19.8243 ,1.19238 ,3.66272 ,35.93863 
99 ,20.0165 ,1.19429 ,3.65930 ,35.90505 
100 ,20.2406 ,1.19652 ,3.62508 ,35.56926 
101 ,20.4487 ,1.19858 ,3.60454 ,35.36779 
102 ,20.6408 ,1.20055 ,3.58743 ,35.19990 
103 ,20.8488 ,1.20260 ,3.57032 ,35.03201 
104 ,21.0410 ,1.20457 ,3.54295 ,34.76338 
105 ,21.2489 ,1.20655 ,3.55321 ,34.86412 
106 ,21.4412 ,1.20852 ,3.52241 ,34.56192 
107 ,21.6492 ,1.21066 ,3.52241 ,34.56192 
108 ,21.8411 ,1.21251 ,3.48819 ,34.22613 
109 ,22.0814 ,1.21479 ,3.48135 ,34.15898 
110 ,22.2891 ,1.21702 ,3.46424 ,33.99108 
111 ,22.4813 ,1.21892 ,3.43001 ,33.65530 
112 ,22.6896 ,1.22104 ,3.42659 ,33.62172 
113 ,22.8817 ,1.22298 ,3.39921 ,33.35310 
114 ,23.0897 ,1.22502 ,3.40264 ,33.38667 
115 ,23.2816 ,1.22691 ,3.35815 ,32.95016 
116 ,23.4735 ,1.22884 ,3.37184 ,33.08447 
117 ,23.6496 ,1.23072 ,3.33762 ,32.74869 
118 ,23.8417 ,1.23251 ,3.32051 ,32.58080 
119 ,24.0338 ,1.23442 ,3.31708 ,32.54722 
120 ,24.2262 ,1.23630 ,3.28971 ,32.27859 
121 ,24.4023 ,1.23827 ,3.27944 ,32.17786 
122 ,24.5943 ,1.24007 ,3.27944 ,32.17786 
123 ,24.7864 ,1.24198 ,3.23837 ,31.77492 
124 ,24.9944 ,1.24402 ,3.23837 ,31.77492 
125 ,25.1866 ,1.24596 ,3.20757 ,31.47271 
126 ,25.3948 ,1.24803 ,3.20073 ,31.40555 
127 ,25.5704 ,1.24996 ,3.16993 ,31.10335 
128 ,25.7629 ,1.25172 ,3.15282 ,30.93546 
129 ,25.9548 ,1.25363 ,3.15624 ,30.96904 
130 ,26.1466 ,1.25560 ,3.12544 ,30.66683 
131 ,26.3391 ,1.25745 ,3.11518 ,30.56610 
132 ,26.5311 ,1.25942 ,3.10491 ,30.46536 
133 ,26.7233 ,1.26131 ,3.07753 ,30.19674 
134 ,26.9152 ,1.26323 ,3.08095 ,30.23031 
135 ,27.1394 ,1.26548 ,3.04673 ,29.89453 
136 ,27.3317 ,1.26743 ,3.03647 ,29.79380 
137 ,27.5237 ,1.26934 ,3.01251 ,29.55875 
138 ,27.7153 ,1.27131 ,3.00224 ,29.45801 
139 ,27.9234 ,1.27328 ,2.98171 ,29.25654 
140 ,28.1156 ,1.27522 ,2.98171 ,29.25654 
141 ,28.3075 ,1.27714 ,2.95433 ,28.98792 
142 ,28.4997 ,1.27912 ,2.95091 ,28.95434 
143 ,28.6920 ,1.28102 ,2.92011 ,28.65213 
144 ,28.8840 ,1.28293 ,2.90642 ,28.51782 
145 ,29.0762 ,1.28484 ,2.89958 ,28.45066 
146 ,29.2685 ,1.28680 ,2.86536 ,28.11488 
147 ,29.4762 ,1.28886 ,2.86878 ,28.14846 
148 ,29.6845 ,1.29091 ,2.84482 ,27.91341 
149 ,29.8762 ,1.29281 ,2.82771 ,27.74552 
150 ,30.0844 ,1.29492 ,2.81745 ,27.64479 
151 ,30.2929 ,1.29701 ,2.79007 ,27.37616 
152 ,30.4846 ,1.29896 ,2.76954 ,27.17469 
153 ,30.6769 ,1.30084 ,2.77638 ,27.24185 
154 ,30.8689 ,1.30279 ,2.75243 ,27.00680 
155 ,31.0929 ,1.30499 ,2.72163 ,26.70459 
156 ,31.2850 ,1.30695 ,2.71136 ,26.60386 
157 ,31.4772 ,1.30883 ,2.70109 ,26.50312 
158 ,31.6694 ,1.31077 ,2.68056 ,26.30165 
159 ,31.8613 ,1.31270 ,2.66687 ,26.16734 
160 ,32.0535 ,1.31460 ,2.65660 ,26.06661 
161 ,32.2615 ,1.31667 ,2.63607 ,25.86514 
162 ,32.4698 ,1.31880 ,2.61896 ,25.69724 
163 ,32.6618 ,1.32072 ,2.60185 ,25.52935 
164 ,32.8699 ,1.32278 ,2.58816 ,25.39504 
165 ,33.0778 ,1.32485 ,2.59158 ,25.42862 
166 ,33.2700 ,1.32680 ,2.54710 ,24.99210 
167 ,33.4780 ,1.32885 ,2.55052 ,25.02568 
168 ,33.6702 ,1.33078 ,2.51972 ,24.72347 
169 ,33.8621 ,1.33272 ,2.50945 ,24.62274 
170 ,34.0542 ,1.33460 ,2.50945 ,24.62274 
171 ,34.2462 ,1.33649 ,2.47523 ,24.28696 
172 ,34.4544 ,1.33856 ,2.47523 ,24.28696 
173 ,34.6626 ,1.34067 ,2.45127 ,24.05191 
174 ,34.8546 ,1.34261 ,2.44443 ,23.98475 
175 ,35.0948 ,1.34495 ,2.42390 ,23.78328 
176 ,35.2865 ,1.34694 ,2.38968 ,23.44750 
177 ,35.4628 ,1.34878 ,2.40336 ,23.58181 
178 ,35.6707 ,1.35063 ,2.38625 ,23.41392 
179 ,35.8631 ,1.35273 ,2.36572 ,23.21245 
180 ,36.0547 ,1.35459 ,2.34177 ,22.97740 
181 ,36.2471 ,1.35658 ,2.32465 ,22.80951 
182 ,36.4388 ,1.35847 ,2.31439 ,22.70877 
183 ,36.6313 ,1.36038 ,2.30070 ,22.57446 
184 ,36.8552 ,1.36252 ,2.29043 ,22.47373 
185 ,37.0796 ,1.36490 ,2.28701 ,22.44015 
186 ,37.2876 ,1.36694 ,2.23568 ,21.93647 
187 ,37.4797 ,1.36888 ,2.24937 ,22.07079 
188 ,37.6717 ,1.37076 ,2.21857 ,21.76858 
189 ,37.8640 ,1.37270 ,2.20488 ,21.63427 
190 ,38.0558 ,1.37461 ,2.19119 ,21.49996 
191 ,38.2480 ,1.37656 ,2.16039 ,21.19775 
192 ,38.4402 ,1.37847 ,2.18092 ,21.39922 
193 ,38.6478 ,1.38052 ,2.14328 ,21.02986 
194 ,38.8403 ,1.38249 ,2.13986 ,20.99628 
195 ,39.0646 ,1.38469 ,2.11932 ,20.79481 
196 ,39.2726 ,1.38678 ,2.10221 ,20.62692 
197 ,39.4644 ,1.38872 ,2.09195 ,20.52619 
198 ,39.6567 ,1.39061 ,2.08852 ,20.49261 
199 ,39.8647 ,1.39269 ,2.06457 ,20.25756 
200 ,40.0888 ,1.39494 ,2.03377 ,19.95535 
201 ,40.2806 ,1.39691 ,2.04746 ,20.08967 
202 ,40.4890 ,1.39896 ,2.01666 ,19.78746 
203 ,40.6808 ,1.40087 ,2.00982 ,19.72031 
204 ,40.8728 ,1.40274 ,1.98244 ,19.45168 
205 ,41.0651 ,1.40468 ,1.97902 ,19.41810 
206 ,41.2733 ,1.40679 ,1.95506 ,19.18305 
207 ,41.4815 ,1.40887 ,1.95506 ,19.18305 
208 ,41.6896 ,1.41097 ,1.92426 ,18.88085 
209 ,41.8815 ,1.41285 ,1.92768 ,18.91443 
210 ,42.0737 ,1.41478 ,1.90031 ,18.64580 
211 ,42.2657 ,1.41667 ,1.90031 ,18.64580 
212 ,42.4737 ,1.41880 ,1.86608 ,18.31002 
213 ,42.6659 ,1.42068 ,1.85240 ,18.17570 
214 ,42.8579 ,1.42265 ,1.85582 ,18.20928 
215 ,43.0496 ,1.42454 ,1.82160 ,17.87350 
216 ,43.2421 ,1.42650 ,1.83186 ,17.97423 
217 ,43.4662 ,1.42861 ,1.80106 ,17.67203 
218 ,43.6743 ,1.43082 ,1.79080 ,17.57129 
219 ,43.8665 ,1.43272 ,1.76000 ,17.26909 
220 ,44.0423 ,1.43460 ,1.76000 ,17.26909 
221 ,44.2346 ,1.43635 ,1.74631 ,17.13478 
222 ,44.4264 ,1.43830 ,1.71893 ,16.86615 
223 ,44.6346 ,1.44037 ,1.71893 ,16.86615 
224 ,44.8268 ,1.44231 ,1.70866 ,16.76542 
225 ,45.0187 ,1.44419 ,1.69155 ,16.59752 
226 ,45.2109 ,1.44613 ,1.67786 ,16.46321 
227 ,45.4190 ,1.44820 ,1.68813 ,16.56395 
228 ,45.6269 ,1.45027 ,1.65733 ,16.26174 
229 ,45.8192 ,1.45218 ,1.65049 ,16.19458 
230 ,46.0271 ,1.45432 ,1.62995 ,15.99311 
231 ,46.2351 ,1.45635 ,1.60258 ,15.72449 
232 ,46.4273 ,1.45830 ,1.58547 ,15.55660 
233 ,46.6195 ,1.46021 ,1.58204 ,15.52302 
234 ,46.8274 ,1.46225 ,1.56836 ,15.38871 
235 ,47.0197 ,1.46423 ,1.55124 ,15.22081 
236 ,47.2275 ,1.46633 ,1.54098 ,15.12008 
237 ,47.4195 ,1.46824 ,1.53071 ,15.01934 
238 ,47.6276 ,1.47024 ,1.50333 ,14.75072 
239 ,47.8359 ,1.47236 ,1.48965 ,14.61640 
240 ,48.0280 ,1.47427 ,1.48280 ,14.54925 
241 ,48.2201 ,1.47623 ,1.48280 ,14.54925 
242 ,48.4282 ,1.47818 ,1.45200 ,14.24704 
243 ,48.6360 ,1.48032 ,1.44516 ,14.17989 
244 ,48.8442 ,1.48236 ,1.42805 ,14.01199 
245 ,49.0525 ,1.48445 ,1.41436 ,13.87768 
246 ,49.2605 ,1.48665 ,1.40409 ,13.77695 
247 ,49.4527 ,1.48851 ,1.39040 ,13.64263 
248 ,49.6602 ,1.49063 ,1.38356 ,13.57548 
249 ,49.8528 ,1.49257 ,1.36303 ,13.37401 
250 ,50.0449 ,1.49446 ,1.35618 ,13.30685 
251 ,50.2530 ,1.49649 ,1.34249 ,13.17254 
252 ,50.4612 ,1.49862 ,1.33907 ,13.13896 
253 ,50.6529 ,1.50055 ,1.30485 ,12.80318 
254 ,50.8451 ,1.50248 ,1.31169 ,12.87033 
255 ,51.0693 ,1.50456 ,1.28089 ,12.56813 
256 ,51.2614 ,1.50663 ,1.27747 ,12.53455 
257 ,51.4695 ,1.50870 ,1.26036 ,12.36666 
258 ,51.6774 ,1.51079 ,1.23983 ,12.16519 
259 ,51.8691 ,1.51268 ,1.22614 ,12.03088 
260 ,52.0616 ,1.51462 ,1.23298 ,12.09803 
261 ,52.2535 ,1.51657 ,1.20561 ,11.82941 
262 ,52.4456 ,1.51841 ,1.19876 ,11.76225 
263 ,52.6377 ,1.52042 ,1.17823 ,11.56078 
264 ,52.8458 ,1.52249 ,1.17138 ,11.49362 
265 ,53.0376 ,1.52438 ,1.16796 ,11.46004 
266 ,53.2302 ,1.52631 ,1.13374 ,11.12426 
267 ,53.4218 ,1.52826 ,1.14401 ,11.22500 
268 ,53.6143 ,1.53016 ,1.10294 ,10.82206 
269 ,53.8224 ,1.53221 ,1.11321 ,10.92279 
270 ,54.0141 ,1.53412 ,1.07899 ,10.58701 
271 ,54.2065 ,1.53612 ,1.09610 ,10.75490 
272 ,54.4146 ,1.53813 ,1.05161 ,10.31838 
273 ,54.6067 ,1.54008 ,1.05503 ,10.35196 
274 ,54.8308 ,1.54218 ,1.04134 ,10.21765 
275 ,55.0549 ,1.54438 ,1.02423 ,10.04976 
276 ,55.2629 ,1.54666 ,1.01396 ,9.94902 
277 ,55.4712 ,1.54871 ,0.99001 ,9.71397 
278 ,55.6632 ,1.55065 ,0.99343 ,9.74755 
279 ,55.8712 ,1.55272 ,0.97290 ,9.54608 
280 ,56.0634 ,1.55460 ,0.97632 ,9.57966 
281 ,56.2549 ,1.55666 ,0.93868 ,9.21030 
282 ,56.4473 ,1.55845 ,0.93525 ,9.17672 
283 ,56.6395 ,1.56037 ,0.93183 ,9.14314 
284 ,56.8315 ,1.56225 ,0.90446 ,8.87451 
285 ,57.0236 ,1.56421 ,0.90103 ,8.84094 
286 ,57.2156 ,1.56611 ,0.88392 ,8.67305 
287 ,57.4077 ,1.56807 ,0.88734 ,8.70662 
288 ,57.5999 ,1.56996 ,0.86681 ,8.50515 
289 ,57.7920 ,1.57190 ,0.84628 ,8.30368 
290 ,58.0000 ,1.57394 ,0.85312 ,8.37084 
291 ,58.2082 ,1.57598 ,0.82575 ,8.10221 
292 ,58.3997 ,1.57798 ,0.83259 ,8.16937 
293 ,58.6077 ,1.58003 ,0.81206 ,7.96790 
294 ,58.8000 ,1.58205 ,0.79152 ,7.76643 
295 ,59.0727 ,1.58458 ,0.77784 ,7.63212 
296 ,59.2806 ,1.58681 ,0.76757 ,7.53138 
297 ,59.4728 ,1.58871 ,0.74361 ,7.29633 
298 ,59.6807 ,1.59075 ,0.74019 ,7.26276 
299 ,59.8888 ,1.59282 ,0.72308 ,7.09486 
300 ,60.0810 ,1.59477 ,0.72308 ,7.09486 
301 ,60.2888 ,1.59688 ,0.70597 ,6.92697 
302 ,60.4810 ,1.59876 ,0.69913 ,6.85982 
303 ,60.6726 ,1.60067 ,0.66833 ,6.55761 
304 ,60.8650 ,1.60261 ,0.66490 ,6.52403 
305 ,61.0572 ,1.60459 ,0.64437 ,6.32256 
306 ,61.2493 ,1.60645 ,0.64779 ,6.35614 
307 ,61.4414 ,1.60835 ,0.63753 ,6.25541 
308 ,61.6334 ,1.61028 ,0.61015 ,5.98678 
309 ,61.8735 ,1.61244 ,0.61699 ,6.05394 
310 ,62.0817 ,1.61480 ,0.59646 ,5.85247 
311 ,62.2892 ,1.61688 ,0.59304 ,5.81889 
312 ,62.4817 ,1.61876 ,0.57251 ,5.61742 
313 ,62.6739 ,1.62070 ,0.55197 ,5.41595 
314 ,62.8659 ,1.62260 ,0.55539 ,5.44953 
315 ,63.0739 ,1.62462 ,0.53828 ,5.28164 
316 ,63.2658 ,1.62663 ,0.53144 ,5.21448 
317 ,63.4580 ,1.62853 ,0.51775 ,5.08017 
318 ,63.6502 ,1.63047 ,0.50748 ,4.97943 
319 ,63.8421 ,1.63239 ,0.50748 ,4.97943 
320 ,64.0504 ,1.63450 ,0.48353 ,4.74438 
321 ,64.2587 ,1.63656 ,0.46300 ,4.54291 
322 ,64.4507 ,1.63848 ,0.46300 ,4.54291 
323 ,64.6588 ,1.64055 ,0.44588 ,4.37502 
324 ,64.8667 ,1.64262 ,0.44246 ,4.34144 
325 ,65.0584 ,1.64452 ,0.42193 ,4.13997 
326 ,65.2670 ,1.64650 ,0.41509 ,4.07282 
327 ,65.4592 ,1.64860 ,0.39455 ,3.87135 
328 ,65.6510 ,1.65045 ,0.38429 ,3.77061 
329 ,65.8432 ,1.65233 ,0.39113 ,3.83777 
330 ,66.0350 ,1.65427 ,0.36033 ,3.53557 
331 ,66.2114 ,1.65619 ,0.36033 ,3.53557 
332 ,66.4035 ,1.65791 ,0.36033 ,3.53557 
333 ,66.5955 ,1.65986 ,0.32269 ,3.16620 
334 ,66.7876 ,1.66185 ,0.35349 ,3.46841 
335 ,66.9797 ,1.66374 ,0.30900 ,3.03189 
336 ,67.1717 ,1.66564 ,0.30215 ,2.96473 
337 ,67.3639 ,1.66760 ,0.30215 ,2.96473 
338 ,67.5719 ,1.66964 ,0.27820 ,2.72969 
339 ,67.7639 ,1.67157 ,0.28847 ,2.83042 
340 ,67.9559 ,1.67348 ,0.25424 ,2.49464 
341 ,68.1482 ,1.67542 ,0.25424 ,2.49464 
342 ,68.3398 ,1.67738 ,0.24055 ,2.36032 
343 ,68.5323 ,1.67926 ,0.22687 ,2.22601 
344 ,68.7400 ,1.68131 ,0.22687 ,2.22601 
345 ,68.9325 ,1.68323 ,0.20976 ,2.05812 
346 ,69.1406 ,1.68528 ,0.19607 ,1.92381 
347 ,69.3327 ,1.68727 ,0.17553 ,1.72234 
348 ,69.5408 ,1.68929 ,0.18238 ,1.78949 
349 ,69.7485 ,1.69144 ,0.17896 ,1.75592 
350 ,69.9564 ,1.69339 ,0.15500 ,1.52087 
351 ,70.1653 ,1.69556 ,0.15500 ,1.52087 
352 ,70.3731 ,1.69766 ,0.14131 ,1.38655 
353 ,70.5651 ,1.69957 ,0.13447 ,1.31940 
354 ,70.7731 ,1.70151 ,0.10709 ,1.05077 
355 ,70.9814 ,1.70364 ,0.10367 ,1.01719 
356 ,71.1894 ,1.70584 ,0.10025 ,0.98361 
357 ,71.3815 ,1.70776 ,0.06602 ,0.64783 
358 ,71.5892 ,1.70979 ,0.06602 ,0.64783 
359 ,71.7816 ,1.71177 ,0.04891 ,0.47994 
360 ,71.9898 ,1.71379 ,0.05918 ,0.58067 
361 ,72.1817 ,1.71575 ,0.02496 ,0.24489 
362 ,72.3739 ,1.71764 ,0.02154 ,0.21131 
363 ,72.5659 ,1.71957 ,0.02154 ,0.21131 
364 ,72.7575 ,1.72150 ,0.00443 ,0.04342 
365 ,72.9497 ,1.72341 ,0.00785 ,0.07700 
366 ,73.1422 ,1.72534 ,-0.00926 ,-0.09089 
367 ,73.3503 ,1.72744 ,-0.01953 ,-0.19163 
368 ,73.5424 ,1.72933 ,-0.04348 ,-0.42667 
369 ,73.7505 ,1.73145 ,-0.02980 ,-0.29236 
370 ,73.9907 ,1.73382 ,-0.05033 ,-0.49383 
371 ,74.1987 ,1.73592 ,-0.07771 ,-0.76246 
372 ,74.3908 ,1.73786 ,-0.06744 ,-0.66172 
373 ,74.5987 ,1.73988 ,-0.09482 ,-0.93035 
374 ,74.7908 ,1.74179 ,-0.09482 ,-0.93035 
375 ,74.9829 ,1.74370 ,-0.11877 ,-1.16540 
376 ,75.1748 ,1.74563 ,-0.12219 ,-1.19898 
377 ,75.3670 ,1.74757 ,-0.12219 ,-1.19898 
378 ,75.5593 ,1.74958 ,-0.14615 ,-1.43402 
379 ,75.7673 ,1.75162 ,-0.14615 ,-1.43402 
380 ,75.9594 ,1.75353 ,-0.16668 ,-1.63549 
381 ,76.1514 ,1.75541 ,-0.16668 ,-1.63549 
382 ,76.3596 ,1.75752 ,-0.17353 ,-1.70265 
383 ,76.5516 ,1.75942 ,-0.20090 ,-1.97128 
384 ,76.7596 ,1.76154 ,-0.19748 ,-1.93770 
385 ,76.9515 ,1.76341 ,-0.19406 ,-1.90412 
386 ,77.1599 ,1.76554 ,-0.21802 ,-2.13917 
387 ,77.3681 ,1.76756 ,-0.22828 ,-2.23990 
388 ,77.5758 ,1.76965 ,-0.24197 ,-2.37422 
389 ,77.7680 ,1.77159 ,-0.24197 ,-2.37422 
390 ,77.9602 ,1.77354 ,-0.26250 ,-2.57569 
391 ,78.1680 ,1.77546 ,-0.26935 ,-2.64284 
392 ,78.3604 ,1.77753 ,-0.28646 ,-2.81073 
393 ,78.5685 ,1.77952 ,-0.28304 ,-2.77716 
394 ,78.7606 ,1.78151 ,-0.31041 ,-3.04578 
395 ,78.9844 ,1.78360 ,-0.30699 ,-3.01220 
396 ,79.1765 ,1.78567 ,-0.32410 ,-3.18010 
397 ,79.3845 ,1.78775 ,-0.33437 ,-3.28083 
398 ,79.5768 ,1.78965 ,-0.33437 ,-3.28083 
399 ,79.7690 ,1.79163 ,-0.34464 ,-3.38156 
400 ,79.9608 ,1.79352 ,-0.36175 ,-3.54946 
401 ,80.1531 ,1.79542 ,-0.36175 ,-3.54946 
402 ,80.3610 ,1.79755 ,-0.38570 ,-3.78450 
403 ,80.5533 ,1.79943 ,-0.37544 ,-3.68377 
404 ,80.7612 ,1.80154 ,-0.40966 ,-4.01955 
405 ,80.9534 ,1.80340 ,-0.39597 ,-3.88524 
406 ,81.1454 ,1.80533 ,-0.41992 ,-4.12029 
407 ,81.3373 ,1.80722 ,-0.43019 ,-4.22102 
408 ,81.5291 ,1.80929 ,-0.44730 ,-4.38891 
409 ,81.7216 ,1.81110 ,-0.45072 ,-4.42249 
410 ,81.9137 ,1.81300 ,-0.43703 ,-4.28818 
411 ,82.1379 ,1.81525 ,-0.46783 ,-4.59038 
412 ,82.3457 ,1.81732 ,-0.46441 ,-4.55681 
413 ,82.5381 ,1.81926 ,-0.47810 ,-4.69112 
414 ,82.7458 ,1.82135 ,-0.49179 ,-4.82543 
415 ,82.9541 ,1.82340 ,-0.49521 ,-4.85901 
416 ,83.1462 ,1.82533 ,-0.50548 ,-4.95975 
417 ,83.3539 ,1.82734 ,-0.51574 ,-5.06048 
418 ,83.5300 ,1.82929 ,-0.51917 ,-5.09406 
419 ,83.7221 ,1.83108 ,-0.54997 ,-5.39626 
420 ,83.9307 ,1.83310 ,-0.53970 ,-5.29553 
421 ,84.1388 ,1.83527 ,-0.57392 ,-5.63131 
422 ,84.3147 ,1.83715 ,-0.55339 ,-5.42984 
423 ,84.5226 ,1.83903 ,-0.58077 ,-5.69847 
424 ,84.7310 ,1.84107 ,-0.58761 ,-5.76562 
425 ,84.9388 ,1.84328 ,-0.59788 ,-5.86636 
426 ,85.1311 ,1.84518 ,-0.59103 ,-5.79920 
427 ,85.3714 ,1.84745 ,-0.60814 ,-5.96709 
428 ,85.5793 ,1.84971 ,-0.63210 ,-6.20214 
429 ,85.7716 ,1.85158 ,-0.62525 ,-6.13499 
430 ,85.9795 ,1.85362 ,-0.64921 ,-6.37003 
431 ,86.1717 ,1.85559 ,-0.64236 ,-6.30288 
432 ,86.3637 ,1.85752 ,-0.66632 ,-6.53793 
433 ,86.5718 ,1.85961 ,-0.65947 ,-6.47077 
434 ,86.7637 ,1.86150 ,-0.68001 ,-6.67224 
435 ,86.9555 ,1.86338 ,-0.68001 ,-6.67224 
436 ,87.1480 ,1.86538 ,-0.69027 ,-6.77297 
437 ,87.3560 ,1.86741 ,-0.69370 ,-6.80655 
438 ,87.5802 ,1.86956 ,-0.72792 ,-7.14233 
439 ,87.7883 ,1.87176 ,-0.71765 ,-7.04160 
440 ,87.9803 ,1.87366 ,-0.74503 ,-7.31023 
441 ,88.1723 ,1.87560 ,-0.74503 ,-7.31023 
442 ,88.3805 ,1.87762 ,-0.76214 ,-7.47812 
443 ,88.5727 ,1.87958 ,-0.76556 ,-7.51170 
444 ,88.7646 ,1.88147 ,-0.76898 ,-7.54527 
445 ,88.9567 ,1.88341 ,-0.77925 ,-7.64601 
446 ,89.1644 ,1.88548 ,-0.79294 ,-7.78032 
447 ,89.3890 ,1.88756 ,-0.78610 ,-7.71317 
448 ,89.5970 ,1.88978 ,-0.80663 ,-7.91464 
449 ,89.7891 ,1.89178 ,-0.80663 ,-7.91464 
450 ,89.9808 ,1.89367 ,-0.83401 ,-8.18326 
451 ,90.1888 ,1.89577 ,-0.83058 ,-8.14968 
452 ,90.3812 ,1.89762 ,-0.85796 ,-8.41831 
453 ,90.5735 ,1.89960 ,-0.83743 ,-8.21684 
454 ,90.7653 ,1.90150 ,-0.86481 ,-8.48547 
455 ,90.9732 ,1.90354 ,-0.86481 ,-8.48547 
456 ,91.1655 ,1.90549 ,-0.87849 ,-8.61978 
457 ,91.3413 ,1.90737 ,-0.89218 ,-8.75409 
458 ,91.5337 ,1.90917 ,-0.88534 ,-8.68694 
459 ,91.7418 ,1.91122 ,-0.90587 ,-8.88841 
460 ,91.9339 ,1.91317 ,-0.90245 ,-8.85483 
461 ,92.1419 ,1.91523 ,-0.92298 ,-9.05630 
462 ,92.3341 ,1.91723 ,-0.91272 ,-8.95556 
463 ,92.5096 ,1.91908 ,-0.95036 ,-9.32492 
