Data stamp = , 30-04-2022 11:01:19 201

Calibration Values: 
Slope = , 26.54 , g/V 
Offset Voltage at no contact = , -0.501760 , V 

No , Time , Stage Position ,   Mass , Force 
   ,  (s) ,      (mm)      ,   (g)  , (mN)  

1 ,0.0000 ,0.99948 ,5.39434 ,52.92925 
2 ,0.2192 ,0.99952 ,5.39434 ,52.92925 
3 ,0.8118 ,1.00184 ,5.38749 ,52.86209 
4 ,1.0355 ,1.00453 ,5.39776 ,52.96282 
5 ,1.2597 ,1.00666 ,5.39776 ,52.96282 
6 ,1.4520 ,1.00872 ,5.36012 ,52.59346 
7 ,1.6439 ,1.01060 ,5.36354 ,52.62704 
8 ,1.8362 ,1.01261 ,5.33958 ,52.39199 
9 ,2.0276 ,1.01462 ,5.30878 ,52.08979 
10 ,2.2362 ,1.01648 ,5.29852 ,51.98905 
11 ,2.4441 ,1.01867 ,5.28141 ,51.82116 
12 ,2.6364 ,1.02058 ,5.25061 ,51.51896 
13 ,3.0363 ,1.02366 ,5.22665 ,51.28391 
14 ,3.2287 ,1.02648 ,5.17874 ,50.81381 
15 ,3.4367 ,1.02861 ,5.17190 ,50.74666 
16 ,3.6288 ,1.03045 ,5.14794 ,50.51161 
17 ,3.8208 ,1.03242 ,5.14110 ,50.44445 
18 ,4.0128 ,1.03433 ,5.11714 ,50.20940 
19 ,4.2045 ,1.03626 ,5.09319 ,49.97436 
20 ,4.3973 ,1.03820 ,5.07265 ,49.77289 
21 ,4.6050 ,1.04030 ,5.05212 ,49.57142 
22 ,4.7973 ,1.04220 ,5.04870 ,49.53784 
23 ,4.9893 ,1.04412 ,5.02132 ,49.26921 
24 ,5.1814 ,1.04602 ,5.00079 ,49.06774 
25 ,5.4057 ,1.04820 ,4.99394 ,49.00058 
26 ,5.6133 ,1.05034 ,4.96315 ,48.69838 
27 ,5.8216 ,1.05243 ,4.94603 ,48.53049 
28 ,6.0136 ,1.05434 ,4.91866 ,48.26186 
29 ,6.2216 ,1.05639 ,4.91181 ,48.19471 
30 ,6.4296 ,1.05840 ,4.88101 ,47.89250 
31 ,6.6217 ,1.06039 ,4.87759 ,47.85892 
32 ,6.8296 ,1.06250 ,4.83310 ,47.42240 
33 ,7.0220 ,1.06438 ,4.82626 ,47.35525 
34 ,7.2301 ,1.06651 ,4.80230 ,47.12020 
35 ,7.4218 ,1.06843 ,4.81257 ,47.22093 
36 ,7.6141 ,1.07037 ,4.77150 ,46.81800 
37 ,7.8224 ,1.07243 ,4.76124 ,46.71726 
38 ,8.0304 ,1.07450 ,4.71675 ,46.28074 
39 ,8.2225 ,1.07641 ,4.71675 ,46.28074 
40 ,8.4146 ,1.07829 ,4.68595 ,45.97854 
41 ,8.6226 ,1.08038 ,4.69622 ,46.07927 
42 ,8.8306 ,1.08245 ,4.66199 ,45.74349 
43 ,9.0390 ,1.08457 ,4.65173 ,45.64275 
44 ,9.2630 ,1.08672 ,4.60724 ,45.20624 
45 ,9.4551 ,1.08881 ,4.60724 ,45.20624 
46 ,9.6468 ,1.09069 ,4.59013 ,45.03835 
47 ,9.8552 ,1.09267 ,4.56617 ,44.80330 
48 ,10.0313 ,1.09461 ,4.54564 ,44.60183 
49 ,10.2234 ,1.09640 ,4.54564 ,44.60183 
50 ,10.4156 ,1.09837 ,4.52511 ,44.40036 
51 ,10.6396 ,1.10054 ,4.51142 ,44.26604 
52 ,10.8316 ,1.10248 ,4.46351 ,43.79595 
53 ,11.0238 ,1.10443 ,4.45324 ,43.69521 
54 ,11.2318 ,1.10646 ,4.42586 ,43.42659 
55 ,11.4237 ,1.10840 ,4.42929 ,43.46016 
56 ,11.6157 ,1.11031 ,4.41218 ,43.29227 
57 ,11.8079 ,1.11225 ,4.38138 ,42.99007 
58 ,12.0160 ,1.11433 ,4.37795 ,42.95649 
59 ,12.2240 ,1.11643 ,4.37453 ,42.92291 
60 ,12.4164 ,1.11837 ,4.35058 ,42.68786 
61 ,12.6083 ,1.12028 ,4.30609 ,42.25135 
62 ,12.8004 ,1.12220 ,4.30609 ,42.25135 
63 ,12.9925 ,1.12405 ,4.27871 ,41.98272 
64 ,13.2006 ,1.12620 ,4.27187 ,41.91556 
65 ,13.3925 ,1.12809 ,4.24107 ,41.61336 
66 ,13.5848 ,1.13007 ,4.23422 ,41.54620 
67 ,13.7928 ,1.13207 ,4.21027 ,41.31115 
68 ,13.9850 ,1.13410 ,4.19316 ,41.14326 
69 ,14.1931 ,1.13614 ,4.16920 ,40.90821 
70 ,14.4008 ,1.13816 ,4.16920 ,40.90821 
71 ,14.5933 ,1.14006 ,4.14867 ,40.70674 
72 ,14.7854 ,1.14204 ,4.13156 ,40.53885 
73 ,14.9933 ,1.14402 ,4.10760 ,40.30380 
74 ,15.2015 ,1.14621 ,4.10076 ,40.23665 
75 ,15.3933 ,1.14809 ,4.06312 ,39.86729 
76 ,15.5856 ,1.15006 ,4.05285 ,39.76655 
77 ,15.7777 ,1.15199 ,4.04600 ,39.69940 
78 ,15.9697 ,1.15385 ,4.02889 ,39.53150 
79 ,16.1618 ,1.15577 ,4.01520 ,39.39719 
80 ,16.3697 ,1.15790 ,3.98098 ,39.06141 
81 ,16.5781 ,1.16000 ,3.97414 ,38.99425 
82 ,16.7861 ,1.16202 ,3.96045 ,38.85994 
83 ,16.9785 ,1.16398 ,3.93992 ,38.65847 
84 ,17.1862 ,1.16606 ,3.92623 ,38.52415 
85 ,17.3783 ,1.16793 ,3.91596 ,38.42342 
86 ,17.5704 ,1.16982 ,3.88516 ,38.12122 
87 ,17.7622 ,1.17174 ,3.87832 ,38.05406 
88 ,17.9385 ,1.17364 ,3.83383 ,37.61754 
89 ,18.1307 ,1.17545 ,3.82014 ,37.48323 
90 ,18.3387 ,1.17756 ,3.82699 ,37.55038 
91 ,18.5308 ,1.17948 ,3.79619 ,37.24818 
92 ,18.7389 ,1.18155 ,3.78592 ,37.14744 
93 ,18.9469 ,1.18362 ,3.76539 ,36.94597 
94 ,19.1389 ,1.18550 ,3.76196 ,36.91240 
95 ,19.3312 ,1.18750 ,3.72090 ,36.50946 
96 ,19.5388 ,1.18951 ,3.72774 ,36.57661 
97 ,19.7314 ,1.19148 ,3.68325 ,36.14010 
98 ,19.9550 ,1.19359 ,3.69010 ,36.20725 
99 ,20.1475 ,1.19563 ,3.65930 ,35.90505 
100 ,20.3554 ,1.19762 ,3.65588 ,35.87147 
101 ,20.5476 ,1.19964 ,3.62166 ,35.53569 
102 ,20.7556 ,1.20175 ,3.60797 ,35.40137 
103 ,20.9635 ,1.20381 ,3.60797 ,35.40137 
104 ,21.1559 ,1.20576 ,3.56348 ,34.96485 
105 ,21.3479 ,1.20766 ,3.55663 ,34.89770 
106 ,21.5560 ,1.20964 ,3.53268 ,34.66265 
107 ,21.7477 ,1.21161 ,3.53610 ,34.69623 
108 ,21.9403 ,1.21358 ,3.52241 ,34.56192 
109 ,22.1320 ,1.21549 ,3.48135 ,34.15898 
110 ,22.3404 ,1.21755 ,3.49161 ,34.25971 
111 ,22.5325 ,1.21945 ,3.45397 ,33.89035 
112 ,22.7245 ,1.22143 ,3.46081 ,33.95751 
113 ,22.9486 ,1.22355 ,3.43001 ,33.65530 
114 ,23.1406 ,1.22566 ,3.39921 ,33.35310 
115 ,23.3325 ,1.22745 ,3.38895 ,33.25236 
116 ,23.5248 ,1.22936 ,3.38553 ,33.21878 
117 ,23.7328 ,1.23142 ,3.36499 ,33.01731 
118 ,23.9086 ,1.23330 ,3.35130 ,32.88300 
119 ,24.1012 ,1.23518 ,3.34446 ,32.81584 
120 ,24.3092 ,1.23720 ,3.32051 ,32.58080 
121 ,24.5013 ,1.23916 ,3.29997 ,32.37933 
122 ,24.7094 ,1.24123 ,3.28286 ,32.21143 
123 ,24.9014 ,1.24313 ,3.26917 ,32.07712 
124 ,25.0934 ,1.24502 ,3.24180 ,31.80849 
125 ,25.3017 ,1.24713 ,3.23153 ,31.70776 
126 ,25.5098 ,1.24920 ,3.22811 ,31.67418 
127 ,25.7013 ,1.25115 ,3.22811 ,31.67418 
128 ,25.8937 ,1.25302 ,3.17335 ,31.13693 
129 ,26.0854 ,1.25497 ,3.18704 ,31.27124 
130 ,26.2940 ,1.25698 ,3.15624 ,30.96904 
131 ,26.5026 ,1.25912 ,3.14940 ,30.90188 
132 ,26.6941 ,1.26109 ,3.12202 ,30.63325 
133 ,26.9339 ,1.26322 ,3.11175 ,30.53252 
134 ,27.1262 ,1.26532 ,3.10149 ,30.43178 
135 ,27.3344 ,1.26739 ,3.07069 ,30.12958 
136 ,27.5422 ,1.26949 ,3.06384 ,30.06242 
137 ,27.7342 ,1.27148 ,3.03989 ,29.82737 
138 ,27.9265 ,1.27335 ,3.04331 ,29.86095 
139 ,28.1186 ,1.27529 ,3.01935 ,29.62590 
140 ,28.3104 ,1.27727 ,2.99198 ,29.35728 
141 ,28.5024 ,1.27914 ,2.99540 ,29.39086 
142 ,28.6949 ,1.28105 ,2.96118 ,29.05507 
143 ,28.8868 ,1.28300 ,2.96460 ,29.08865 
144 ,29.0790 ,1.28492 ,2.93038 ,28.75287 
145 ,29.2870 ,1.28691 ,2.91327 ,28.58498 
146 ,29.4792 ,1.28900 ,2.88931 ,28.34993 
147 ,29.6712 ,1.29083 ,2.87905 ,28.24919 
148 ,29.8630 ,1.29271 ,2.86878 ,28.14846 
149 ,30.0554 ,1.29466 ,2.85851 ,28.04772 
150 ,30.2475 ,1.29655 ,2.84825 ,27.94699 
151 ,30.4552 ,1.29870 ,2.82771 ,27.74552 
152 ,30.6955 ,1.30104 ,2.79007 ,27.37616 
153 ,30.9035 ,1.30310 ,2.80034 ,27.47689 
154 ,31.0959 ,1.30508 ,2.75927 ,27.07395 
155 ,31.3040 ,1.30711 ,2.76954 ,27.17469 
156 ,31.5119 ,1.30910 ,2.73874 ,26.87248 
157 ,31.7041 ,1.31116 ,2.74558 ,26.93964 
158 ,31.8962 ,1.31313 ,2.70109 ,26.50312 
159 ,32.0883 ,1.31501 ,2.70109 ,26.50312 
160 ,32.2802 ,1.31690 ,2.67714 ,26.26807 
161 ,32.4724 ,1.31881 ,2.67372 ,26.23450 
162 ,32.6641 ,1.32072 ,2.65318 ,26.03303 
163 ,32.8567 ,1.32270 ,2.63265 ,25.83156 
164 ,33.0644 ,1.32482 ,2.63949 ,25.89871 
165 ,33.2728 ,1.32684 ,2.59843 ,25.49577 
166 ,33.4647 ,1.32877 ,2.60869 ,25.59651 
167 ,33.6730 ,1.33081 ,2.57447 ,25.26073 
168 ,33.8812 ,1.33291 ,2.56078 ,25.12641 
169 ,34.0890 ,1.33498 ,2.54710 ,24.99210 
170 ,34.2812 ,1.33690 ,2.52998 ,24.82421 
171 ,34.4891 ,1.33901 ,2.51972 ,24.72347 
172 ,34.6815 ,1.34094 ,2.49918 ,24.52200 
173 ,34.8730 ,1.34280 ,2.48207 ,24.35411 
174 ,35.0655 ,1.34476 ,2.47523 ,24.28696 
175 ,35.2896 ,1.34694 ,2.46154 ,24.15264 
176 ,35.4818 ,1.34890 ,2.44101 ,23.95117 
177 ,35.6738 ,1.35083 ,2.42048 ,23.74970 
178 ,35.8659 ,1.35277 ,2.40679 ,23.61539 
179 ,36.0578 ,1.35471 ,2.39652 ,23.51465 
180 ,36.2659 ,1.35666 ,2.37941 ,23.34676 
181 ,36.4581 ,1.35868 ,2.35888 ,23.14529 
182 ,36.6503 ,1.36057 ,2.34519 ,23.01098 
183 ,36.8583 ,1.36261 ,2.33150 ,22.87667 
184 ,37.0499 ,1.36468 ,2.31439 ,22.70877 
185 ,37.2423 ,1.36655 ,2.29728 ,22.54088 
186 ,37.4506 ,1.36857 ,2.30070 ,22.57446 
187 ,37.6425 ,1.37053 ,2.26990 ,22.27226 
188 ,37.8346 ,1.37243 ,2.24594 ,22.03721 
189 ,38.0267 ,1.37433 ,2.25279 ,22.10437 
190 ,38.2188 ,1.37624 ,2.22883 ,21.86932 
191 ,38.4109 ,1.37815 ,2.22883 ,21.86932 
192 ,38.6030 ,1.38007 ,2.19803 ,21.56711 
193 ,38.8112 ,1.38219 ,2.19119 ,21.49996 
194 ,39.0191 ,1.38426 ,2.16039 ,21.19775 
195 ,39.2268 ,1.38631 ,2.17066 ,21.29849 
196 ,39.4194 ,1.38831 ,2.12617 ,20.86197 
197 ,39.6273 ,1.39039 ,2.12617 ,20.86197 
198 ,39.8196 ,1.39230 ,2.10221 ,20.62692 
199 ,40.0115 ,1.39420 ,2.09537 ,20.55976 
200 ,40.2037 ,1.39611 ,2.09195 ,20.52619 
201 ,40.3953 ,1.39801 ,2.06115 ,20.22398 
202 ,40.5878 ,1.39990 ,2.05773 ,20.19040 
203 ,40.7795 ,1.40188 ,2.03377 ,19.95535 
204 ,40.9556 ,1.40374 ,2.03377 ,19.95535 
205 ,41.1476 ,1.40554 ,2.02350 ,19.85462 
206 ,41.3561 ,1.40753 ,1.98586 ,19.48526 
207 ,41.5481 ,1.40956 ,1.99613 ,19.58599 
208 ,41.7403 ,1.41156 ,1.97217 ,19.35094 
209 ,41.9320 ,1.41339 ,1.97559 ,19.38452 
210 ,42.1245 ,1.41529 ,1.95506 ,19.18305 
211 ,42.3163 ,1.41727 ,1.93111 ,18.94801 
212 ,42.5241 ,1.41931 ,1.91742 ,18.81369 
213 ,42.7166 ,1.42126 ,1.89688 ,18.61222 
214 ,42.9247 ,1.42330 ,1.88319 ,18.47791 
215 ,43.1167 ,1.42527 ,1.86951 ,18.34360 
216 ,43.3245 ,1.42721 ,1.86266 ,18.27644 
217 ,43.5170 ,1.42922 ,1.84897 ,18.14213 
218 ,43.6927 ,1.43107 ,1.83871 ,18.04139 
219 ,43.8850 ,1.43292 ,1.81817 ,17.83992 
220 ,44.0929 ,1.43496 ,1.80791 ,17.73919 
221 ,44.2848 ,1.43693 ,1.78053 ,17.47056 
222 ,44.4770 ,1.43884 ,1.78053 ,17.47056 
223 ,44.6856 ,1.44082 ,1.76684 ,17.33625 
224 ,44.9575 ,1.44346 ,1.76342 ,17.30267 
225 ,45.1498 ,1.44553 ,1.73604 ,17.03404 
226 ,45.3579 ,1.44763 ,1.71551 ,16.83257 
227 ,45.5500 ,1.44960 ,1.71551 ,16.83257 
228 ,45.7417 ,1.45148 ,1.67444 ,16.42963 
229 ,45.9179 ,1.45334 ,1.67102 ,16.39605 
230 ,46.1103 ,1.45508 ,1.67444 ,16.42963 
231 ,46.3020 ,1.45706 ,1.64022 ,16.09385 
232 ,46.4943 ,1.45896 ,1.65049 ,16.19458 
233 ,46.6863 ,1.46095 ,1.61969 ,15.89238 
234 ,46.8785 ,1.46286 ,1.60258 ,15.72449 
235 ,47.0864 ,1.46493 ,1.59916 ,15.69091 
236 ,47.2946 ,1.46697 ,1.58204 ,15.52302 
237 ,47.4867 ,1.46894 ,1.55809 ,15.28797 
238 ,47.6787 ,1.47085 ,1.54098 ,15.12008 
239 ,47.8866 ,1.47292 ,1.54782 ,15.18724 
240 ,48.0784 ,1.47497 ,1.53413 ,15.05292 
241 ,48.2710 ,1.47675 ,1.52387 ,14.95219 
242 ,48.4627 ,1.47860 ,1.49649 ,14.68356 
243 ,48.6552 ,1.48053 ,1.48965 ,14.61640 
244 ,48.8472 ,1.48248 ,1.47253 ,14.44851 
245 ,49.0394 ,1.48442 ,1.45200 ,14.24704 
246 ,49.2314 ,1.48634 ,1.45885 ,14.31420 
247 ,49.4396 ,1.48846 ,1.43489 ,14.07915 
248 ,49.6315 ,1.49032 ,1.42462 ,13.97842 
249 ,49.8236 ,1.49229 ,1.39040 ,13.64263 
250 ,50.0476 ,1.49439 ,1.39725 ,13.70979 
251 ,50.2394 ,1.49643 ,1.36987 ,13.44116 
252 ,50.4478 ,1.49840 ,1.37329 ,13.47474 
253 ,50.6400 ,1.50045 ,1.34591 ,13.20612 
254 ,50.8319 ,1.50233 ,1.34591 ,13.20612 
255 ,51.0402 ,1.50443 ,1.32538 ,13.00465 
256 ,51.2321 ,1.50633 ,1.32196 ,12.97107 
257 ,51.4242 ,1.50822 ,1.28774 ,12.63528 
258 ,51.6163 ,1.51017 ,1.28774 ,12.63528 
259 ,51.8086 ,1.51210 ,1.26378 ,12.40024 
260 ,52.0166 ,1.51425 ,1.27063 ,12.46739 
261 ,52.2089 ,1.51615 ,1.24667 ,12.23235 
262 ,52.4163 ,1.51820 ,1.24667 ,12.23235 
263 ,52.6407 ,1.52043 ,1.20561 ,11.82941 
264 ,52.8324 ,1.52236 ,1.20903 ,11.86298 
265 ,53.0250 ,1.52431 ,1.17481 ,11.52720 
266 ,53.2171 ,1.52621 ,1.18507 ,11.62794 
267 ,53.4091 ,1.52810 ,1.15085 ,11.29215 
268 ,53.6010 ,1.53003 ,1.15427 ,11.32573 
269 ,53.7929 ,1.53199 ,1.13716 ,11.15784 
270 ,53.9851 ,1.53390 ,1.11663 ,10.95637 
271 ,54.1775 ,1.53580 ,1.12347 ,11.02353 
272 ,54.3854 ,1.53782 ,1.09267 ,10.72132 
273 ,54.5772 ,1.53976 ,1.09610 ,10.75490 
274 ,54.7696 ,1.54174 ,1.07214 ,10.51985 
275 ,54.9777 ,1.54377 ,1.06530 ,10.45270 
276 ,55.1698 ,1.54569 ,1.04134 ,10.21765 
277 ,55.3779 ,1.54779 ,1.03108 ,10.11691 
278 ,55.5700 ,1.54969 ,1.01054 ,9.91544 
279 ,55.7781 ,1.55180 ,1.00712 ,9.88186 
280 ,55.9862 ,1.55374 ,0.97632 ,9.57966 
281 ,56.1942 ,1.55593 ,0.97632 ,9.57966 
282 ,56.3864 ,1.55791 ,0.94552 ,9.27745 
283 ,56.5943 ,1.55988 ,0.95579 ,9.37819 
284 ,56.7860 ,1.56186 ,0.93183 ,9.14314 
285 ,56.9945 ,1.56383 ,0.93525 ,9.17672 
286 ,57.1867 ,1.56591 ,0.89761 ,8.80736 
287 ,57.3943 ,1.56798 ,0.92157 ,9.04241 
288 ,57.5867 ,1.56985 ,0.87708 ,8.60589 
289 ,57.7787 ,1.57178 ,0.88734 ,8.70662 
290 ,57.9869 ,1.57390 ,0.85997 ,8.43800 
291 ,58.1792 ,1.57584 ,0.85654 ,8.40442 
292 ,58.3870 ,1.57786 ,0.81890 ,8.03506 
293 ,58.5792 ,1.57977 ,0.83259 ,8.16937 
294 ,58.7710 ,1.58171 ,0.81548 ,8.00148 
295 ,58.9789 ,1.58375 ,0.80521 ,7.90074 
296 ,59.1714 ,1.58568 ,0.78810 ,7.73285 
297 ,59.3635 ,1.58764 ,0.75730 ,7.43065 
298 ,59.5555 ,1.58954 ,0.75730 ,7.43065 
299 ,59.7477 ,1.59149 ,0.74019 ,7.26276 
300 ,59.9555 ,1.59349 ,0.74019 ,7.26276 
301 ,60.1478 ,1.59547 ,0.70255 ,6.89340 
302 ,60.3558 ,1.59758 ,0.71966 ,7.06129 
303 ,60.5639 ,1.59962 ,0.70255 ,6.89340 
304 ,60.7561 ,1.60156 ,0.68544 ,6.72550 
305 ,60.9641 ,1.60368 ,0.66490 ,6.52403 
306 ,61.1558 ,1.60554 ,0.66148 ,6.49046 
307 ,61.3483 ,1.60748 ,0.63753 ,6.25541 
308 ,61.5405 ,1.60938 ,0.64095 ,6.28899 
309 ,61.7484 ,1.61146 ,0.61357 ,6.02036 
310 ,61.9566 ,1.61343 ,0.62042 ,6.08752 
311 ,62.1645 ,1.61560 ,0.59988 ,5.88605 
312 ,62.3567 ,1.61754 ,0.59988 ,5.88605 
313 ,62.5648 ,1.61964 ,0.57935 ,5.68458 
314 ,62.7569 ,1.62156 ,0.57593 ,5.65100 
315 ,62.9490 ,1.62350 ,0.53828 ,5.28164 
316 ,63.1728 ,1.62567 ,0.53486 ,5.24806 
317 ,63.3647 ,1.62765 ,0.51775 ,5.08017 
318 ,63.5570 ,1.62955 ,0.51775 ,5.08017 
319 ,63.7653 ,1.63165 ,0.49037 ,4.81154 
320 ,63.9733 ,1.63363 ,0.49037 ,4.81154 
321 ,64.1976 ,1.63584 ,0.49037 ,4.81154 
322 ,64.3892 ,1.63799 ,0.46984 ,4.61007 
323 ,64.5817 ,1.63982 ,0.46642 ,4.57649 
324 ,64.7898 ,1.64188 ,0.44246 ,4.34144 
325 ,64.9977 ,1.64396 ,0.43904 ,4.30787 
326 ,65.1899 ,1.64587 ,0.40824 ,4.00566 
327 ,65.3980 ,1.64799 ,0.40824 ,4.00566 
328 ,65.5900 ,1.64985 ,0.39113 ,3.83777 
329 ,65.7822 ,1.65178 ,0.39797 ,3.90493 
330 ,65.9742 ,1.65368 ,0.37402 ,3.66988 
331 ,66.1663 ,1.65565 ,0.35691 ,3.50199 
332 ,66.3584 ,1.65755 ,0.35691 ,3.50199 
333 ,66.5662 ,1.65968 ,0.33295 ,3.26694 
334 ,66.7746 ,1.66163 ,0.33980 ,3.33410 
335 ,66.9824 ,1.66376 ,0.31584 ,3.09905 
336 ,67.1587 ,1.66564 ,0.30215 ,2.96473 
337 ,67.3669 ,1.66763 ,0.28847 ,2.83042 
338 ,67.5589 ,1.66956 ,0.28504 ,2.79684 
339 ,67.7510 ,1.67144 ,0.25767 ,2.52822 
340 ,67.9430 ,1.67339 ,0.26109 ,2.56179 
341 ,68.1353 ,1.67529 ,0.24740 ,2.42748 
342 ,68.3433 ,1.67738 ,0.23371 ,2.29317 
343 ,68.5353 ,1.67932 ,0.22687 ,2.22601 
344 ,68.7274 ,1.68122 ,0.20633 ,2.02454 
345 ,68.9512 ,1.68332 ,0.20976 ,2.05812 
346 ,69.1432 ,1.68544 ,0.19264 ,1.89023 
347 ,69.3355 ,1.68733 ,0.18580 ,1.82307 
348 ,69.5278 ,1.68925 ,0.16527 ,1.62160 
349 ,69.7195 ,1.69117 ,0.16869 ,1.65518 
350 ,69.8954 ,1.69305 ,0.13789 ,1.35298 
351 ,70.1040 ,1.69492 ,0.13789 ,1.35298 
352 ,70.2961 ,1.69693 ,0.13105 ,1.28582 
353 ,70.5040 ,1.69891 ,0.10025 ,0.98361 
354 ,70.6963 ,1.70098 ,0.11051 ,1.08435 
355 ,70.9040 ,1.70296 ,0.08998 ,0.88288 
356 ,71.1285 ,1.70512 ,0.06602 ,0.64783 
357 ,71.3365 ,1.70732 ,0.06945 ,0.68141 
358 ,71.5286 ,1.70920 ,0.03865 ,0.37920 
359 ,71.7366 ,1.71132 ,0.03865 ,0.37920 
360 ,71.9444 ,1.71330 ,0.03865 ,0.37920 
361 ,72.1208 ,1.71525 ,0.02838 ,0.27847 
362 ,72.3130 ,1.71702 ,0.01127 ,0.11058 
363 ,72.5211 ,1.71916 ,0.01127 ,0.11058 
364 ,72.7292 ,1.72126 ,-0.00926 ,-0.09089 
365 ,72.9212 ,1.72317 ,-0.01611 ,-0.15805 
366 ,73.1132 ,1.72503 ,-0.02295 ,-0.22520 
367 ,73.2893 ,1.72697 ,-0.01953 ,-0.19163 
368 ,73.4815 ,1.72871 ,-0.04006 ,-0.39310 
369 ,73.6733 ,1.73066 ,-0.06402 ,-0.62814 
370 ,73.8656 ,1.73257 ,-0.06744 ,-0.66172 
371 ,74.0737 ,1.73464 ,-0.08455 ,-0.82961 
372 ,74.2653 ,1.73661 ,-0.07428 ,-0.72888 
373 ,74.4579 ,1.73850 ,-0.08797 ,-0.86319 
374 ,74.6660 ,1.74056 ,-0.10508 ,-1.03108 
375 ,74.8581 ,1.74255 ,-0.11535 ,-1.13182 
376 ,75.0818 ,1.74474 ,-0.11535 ,-1.13182 
377 ,75.2740 ,1.74674 ,-0.13931 ,-1.36687 
378 ,75.4821 ,1.74869 ,-0.14273 ,-1.40045 
379 ,75.6904 ,1.75089 ,-0.16668 ,-1.63549 
380 ,75.8824 ,1.75275 ,-0.15642 ,-1.53476 
381 ,76.0746 ,1.75468 ,-0.19748 ,-1.93770 
382 ,76.2665 ,1.75657 ,-0.18037 ,-1.76981 
383 ,76.4584 ,1.75850 ,-0.20090 ,-1.97128 
384 ,76.6510 ,1.76044 ,-0.20775 ,-2.03843 
385 ,76.8424 ,1.76239 ,-0.21802 ,-2.13917 
386 ,77.0348 ,1.76421 ,-0.24197 ,-2.37422 
387 ,77.2270 ,1.76621 ,-0.23170 ,-2.27348 
388 ,77.4190 ,1.76819 ,-0.25224 ,-2.47495 
389 ,77.6111 ,1.77001 ,-0.26935 ,-2.64284 
390 ,77.8029 ,1.77195 ,-0.25566 ,-2.50853 
391 ,78.0113 ,1.77392 ,-0.28646 ,-2.81073 
392 ,78.2191 ,1.77610 ,-0.28646 ,-2.81073 
393 ,78.4270 ,1.77815 ,-0.28646 ,-2.81073 
394 ,78.6190 ,1.78007 ,-0.31041 ,-3.04578 
395 ,78.8117 ,1.78205 ,-0.31041 ,-3.04578 
396 ,79.0033 ,1.78395 ,-0.31041 ,-3.04578 
397 ,79.1957 ,1.78584 ,-0.34464 ,-3.38156 
398 ,79.3874 ,1.78784 ,-0.33437 ,-3.28083 
399 ,79.5799 ,1.78972 ,-0.35490 ,-3.48230 
400 ,79.7880 ,1.79183 ,-0.35832 ,-3.51588 
401 ,79.9961 ,1.79392 ,-0.38228 ,-3.75093 
402 ,80.1880 ,1.79577 ,-0.38570 ,-3.78450 
403 ,80.3799 ,1.79775 ,-0.38570 ,-3.78450 
404 ,80.5724 ,1.79960 ,-0.39597 ,-3.88524 
405 ,80.7799 ,1.80168 ,-0.41308 ,-4.05313 
406 ,80.9724 ,1.80361 ,-0.41308 ,-4.05313 
407 ,81.1802 ,1.80571 ,-0.43361 ,-4.25460 
408 ,81.3726 ,1.80762 ,-0.44730 ,-4.38891 
409 ,81.5807 ,1.80976 ,-0.45757 ,-4.48965 
410 ,81.7727 ,1.81163 ,-0.46441 ,-4.55681 
411 ,81.9646 ,1.81355 ,-0.47126 ,-4.62396 
412 ,82.1569 ,1.81549 ,-0.48494 ,-4.75828 
413 ,82.3490 ,1.81741 ,-0.48152 ,-4.72470 
414 ,82.5570 ,1.81951 ,-0.49179 ,-4.82543 
415 ,82.7652 ,1.82149 ,-0.49521 ,-4.85901 
416 ,82.9569 ,1.82348 ,-0.51574 ,-5.06048 
417 ,83.1492 ,1.82543 ,-0.51574 ,-5.06048 
418 ,83.3574 ,1.82747 ,-0.54312 ,-5.32911 
419 ,83.5494 ,1.82936 ,-0.52943 ,-5.19479 
420 ,83.7417 ,1.83126 ,-0.56023 ,-5.49700 
421 ,83.9496 ,1.83345 ,-0.55681 ,-5.46342 
422 ,84.1417 ,1.83527 ,-0.57734 ,-5.66489 
423 ,84.3336 ,1.83721 ,-0.57734 ,-5.66489 
424 ,84.5259 ,1.83911 ,-0.58077 ,-5.69847 
425 ,84.7180 ,1.84111 ,-0.60130 ,-5.89994 
426 ,84.9103 ,1.84298 ,-0.60130 ,-5.89994 
427 ,85.0860 ,1.84492 ,-0.62183 ,-6.10141 
428 ,85.2781 ,1.84668 ,-0.62868 ,-6.16856 
429 ,85.4862 ,1.84875 ,-0.62183 ,-6.10141 
430 ,85.6784 ,1.85063 ,-0.65605 ,-6.43719 
431 ,85.8705 ,1.85264 ,-0.64579 ,-6.33646 
432 ,86.0946 ,1.85475 ,-0.65947 ,-6.47077 
433 ,86.2863 ,1.85675 ,-0.65605 ,-6.43719 
434 ,86.4948 ,1.85873 ,-0.68685 ,-6.73940 
435 ,86.7027 ,1.86096 ,-0.68001 ,-6.67224 
436 ,86.8949 ,1.86283 ,-0.71081 ,-6.97444 
437 ,87.0870 ,1.86477 ,-0.70054 ,-6.87371 
438 ,87.2790 ,1.86671 ,-0.72107 ,-7.07518 
439 ,87.4711 ,1.86860 ,-0.72107 ,-7.07518 
440 ,87.6631 ,1.87053 ,-0.73476 ,-7.20949 
441 ,87.8711 ,1.87257 ,-0.72792 ,-7.14233 
442 ,88.0635 ,1.87452 ,-0.75530 ,-7.41096 
443 ,88.2553 ,1.87643 ,-0.76556 ,-7.51170 
444 ,88.4472 ,1.87835 ,-0.76556 ,-7.51170 
445 ,88.6394 ,1.88032 ,-0.79294 ,-7.78032 
446 ,88.8318 ,1.88221 ,-0.77925 ,-7.64601 
447 ,89.0394 ,1.88424 ,-0.80663 ,-7.91464 
448 ,89.2317 ,1.88619 ,-0.80321 ,-7.88106 
449 ,89.4400 ,1.88826 ,-0.81689 ,-8.01537 
450 ,89.6320 ,1.89014 ,-0.80663 ,-7.91464 
451 ,89.8242 ,1.89207 ,-0.83743 ,-8.21684 
452 ,90.0162 ,1.89402 ,-0.84769 ,-8.31758 
453 ,90.2081 ,1.89597 ,-0.83401 ,-8.18326 
454 ,90.4004 ,1.89785 ,-0.86138 ,-8.45189 
455 ,90.5922 ,1.89982 ,-0.85112 ,-8.35115 
456 ,90.7844 ,1.90176 ,-0.87165 ,-8.55262 
457 ,90.9925 ,1.90376 ,-0.87849 ,-8.61978 
458 ,91.1847 ,1.90574 ,-0.89218 ,-8.75409 
459 ,91.3768 ,1.90766 ,-0.90587 ,-8.88841 
460 ,91.5689 ,1.90953 ,-0.89560 ,-8.78767 
461 ,91.7605 ,1.91145 ,-0.90587 ,-8.88841 
462 ,91.9528 ,1.91335 ,-0.92298 ,-9.05630 
