Data stamp = , 29-04-2022 14:15:33 266

Calibration Values: 
Slope = , 26.54 , g/V 
Offset Voltage at no contact = , -0.501760 , V 

No , Time , Stage Position ,   Mass , Force 
   ,  (s) ,      (mm)      ,   (g)  , (mN)  

1 ,0.0000 ,0.99942 ,5.44909 ,53.46650 
2 ,0.2265 ,0.99952 ,5.44225 ,53.39934 
3 ,0.5790 ,1.00051 ,5.45251 ,53.50008 
4 ,0.8506 ,1.00271 ,5.44909 ,53.46650 
5 ,1.0748 ,1.00472 ,5.46620 ,53.63439 
6 ,1.2669 ,1.00675 ,5.43883 ,53.36576 
7 ,1.4592 ,1.00867 ,5.43198 ,53.29861 
8 ,1.6509 ,1.01055 ,5.40118 ,52.99640 
9 ,1.8432 ,1.01255 ,5.40803 ,53.06356 
10 ,2.0514 ,1.01460 ,5.36012 ,52.59346 
11 ,2.2433 ,1.01653 ,5.34985 ,52.49273 
12 ,2.4194 ,1.01844 ,5.35327 ,52.52631 
13 ,2.6116 ,1.02022 ,5.31563 ,52.15694 
14 ,2.7873 ,1.02210 ,5.30878 ,52.08979 
15 ,2.9799 ,1.02390 ,5.29510 ,51.95548 
16 ,3.1720 ,1.02586 ,5.27456 ,51.75401 
17 ,3.3800 ,1.02791 ,5.25403 ,51.55254 
18 ,3.5722 ,1.02979 ,5.23007 ,51.31749 
19 ,3.7804 ,1.03192 ,5.21296 ,51.14960 
20 ,3.9720 ,1.03383 ,5.19243 ,50.94813 
21 ,4.1643 ,1.03575 ,5.17874 ,50.81381 
22 ,4.4202 ,1.03822 ,5.14452 ,50.47803 
23 ,4.6123 ,1.04027 ,5.12741 ,50.31014 
24 ,4.8204 ,1.04234 ,5.12399 ,50.27656 
25 ,5.0127 ,1.04425 ,5.09319 ,49.97436 
26 ,5.2044 ,1.04613 ,5.07608 ,49.80646 
27 ,5.3968 ,1.04801 ,5.06923 ,49.73931 
28 ,5.5891 ,1.05004 ,5.03159 ,49.36995 
29 ,5.7967 ,1.05209 ,5.04528 ,49.50426 
30 ,5.9892 ,1.05394 ,4.99394 ,49.00058 
31 ,6.1973 ,1.05600 ,4.97683 ,48.83269 
32 ,6.4049 ,1.05813 ,4.94946 ,48.56407 
33 ,6.6133 ,1.06011 ,4.95630 ,48.63122 
34 ,6.8215 ,1.06235 ,4.90839 ,48.16113 
35 ,7.0293 ,1.06438 ,4.90839 ,48.16113 
36 ,7.2216 ,1.06636 ,4.88101 ,47.89250 
37 ,7.4133 ,1.06829 ,4.87759 ,47.85892 
38 ,7.6057 ,1.07015 ,4.82968 ,47.38883 
39 ,7.7980 ,1.07211 ,4.83310 ,47.42240 
40 ,8.0218 ,1.07428 ,4.79888 ,47.08662 
41 ,8.2301 ,1.07639 ,4.78177 ,46.91873 
42 ,8.4379 ,1.07847 ,4.77493 ,46.85157 
43 ,8.6300 ,1.08041 ,4.74755 ,46.58295 
44 ,8.8218 ,1.08234 ,4.72017 ,46.31432 
45 ,9.0143 ,1.08428 ,4.72359 ,46.34790 
46 ,9.2220 ,1.08629 ,4.68253 ,45.94496 
47 ,9.4142 ,1.08831 ,4.67911 ,45.91138 
48 ,9.6223 ,1.09037 ,4.64488 ,45.57560 
49 ,9.8304 ,1.09239 ,4.64146 ,45.54202 
50 ,10.0227 ,1.09435 ,4.60724 ,45.20624 
51 ,10.2470 ,1.09661 ,4.58671 ,45.00477 
52 ,10.4547 ,1.09863 ,4.59355 ,45.07192 
53 ,10.6468 ,1.10056 ,4.56617 ,44.80330 
54 ,10.8388 ,1.10252 ,4.53195 ,44.46751 
55 ,11.0469 ,1.10459 ,4.51826 ,44.33320 
56 ,11.2391 ,1.10646 ,4.50457 ,44.19889 
57 ,11.4313 ,1.10844 ,4.49431 ,44.09815 
58 ,11.6230 ,1.11032 ,4.47035 ,43.86310 
59 ,11.8314 ,1.11241 ,4.46351 ,43.79595 
60 ,12.0558 ,1.11458 ,4.42244 ,43.39301 
61 ,12.2634 ,1.11672 ,4.40875 ,43.25870 
62 ,12.4556 ,1.11860 ,4.39507 ,43.12438 
63 ,12.6476 ,1.12058 ,4.38822 ,43.05723 
64 ,12.8397 ,1.12243 ,4.35742 ,42.75502 
65 ,13.0316 ,1.12437 ,4.34031 ,42.58713 
66 ,13.2240 ,1.12630 ,4.32320 ,42.41924 
67 ,13.4156 ,1.12832 ,4.31293 ,42.31850 
68 ,13.6080 ,1.13013 ,4.29582 ,42.15061 
69 ,13.8005 ,1.13205 ,4.27187 ,41.91556 
70 ,13.9922 ,1.13404 ,4.27871 ,41.98272 
71 ,14.2002 ,1.13609 ,4.24107 ,41.61336 
72 ,14.3923 ,1.13799 ,4.21711 ,41.37831 
73 ,14.5842 ,1.13993 ,4.20342 ,41.24400 
74 ,14.7922 ,1.14198 ,4.18289 ,41.04253 
75 ,15.0003 ,1.14411 ,4.17605 ,40.97537 
76 ,15.2084 ,1.14609 ,4.16236 ,40.84106 
77 ,15.4166 ,1.14816 ,4.11445 ,40.37096 
78 ,15.6092 ,1.15019 ,4.13156 ,40.53885 
79 ,15.8012 ,1.15207 ,4.08707 ,40.10233 
80 ,16.0095 ,1.15414 ,4.08707 ,40.10233 
81 ,16.2011 ,1.15606 ,4.06654 ,39.90087 
82 ,16.3935 ,1.15797 ,4.05627 ,39.80013 
83 ,16.6013 ,1.16005 ,4.01863 ,39.43077 
84 ,16.7936 ,1.16202 ,4.00494 ,39.29646 
85 ,17.0017 ,1.16400 ,3.99809 ,39.22930 
86 ,17.2099 ,1.16618 ,3.97414 ,38.99425 
87 ,17.4013 ,1.16806 ,3.95703 ,38.82636 
88 ,17.5939 ,1.17004 ,3.94334 ,38.69205 
89 ,17.8018 ,1.17205 ,3.92623 ,38.52415 
90 ,18.0102 ,1.17409 ,3.89201 ,38.18837 
91 ,18.2181 ,1.17622 ,3.87147 ,37.98690 
92 ,18.4101 ,1.17813 ,3.86805 ,37.95332 
93 ,18.6022 ,1.18008 ,3.84410 ,37.71828 
94 ,18.7945 ,1.18206 ,3.82356 ,37.51681 
95 ,18.9866 ,1.18394 ,3.83383 ,37.61754 
96 ,19.1786 ,1.18587 ,3.79276 ,37.21460 
97 ,19.3708 ,1.18784 ,3.77223 ,37.01313 
98 ,19.5624 ,1.18967 ,3.77223 ,37.01313 
99 ,19.7549 ,1.19160 ,3.73459 ,36.64377 
100 ,19.9628 ,1.19374 ,3.73117 ,36.61019 
101 ,20.1709 ,1.19576 ,3.70721 ,36.37514 
102 ,20.3630 ,1.19769 ,3.70379 ,36.34157 
103 ,20.5710 ,1.19974 ,3.67641 ,36.07294 
104 ,20.7792 ,1.20186 ,3.65246 ,35.83789 
105 ,20.9713 ,1.20381 ,3.64561 ,35.77073 
106 ,21.1794 ,1.20584 ,3.62850 ,35.60284 
107 ,21.3713 ,1.20776 ,3.61481 ,35.46853 
108 ,21.5636 ,1.20968 ,3.61139 ,35.43495 
109 ,21.7552 ,1.21158 ,3.56690 ,34.99843 
110 ,21.9477 ,1.21358 ,3.57375 ,35.06559 
111 ,22.1558 ,1.21562 ,3.53268 ,34.66265 
112 ,22.3639 ,1.21761 ,3.54295 ,34.76338 
113 ,22.5719 ,1.21977 ,3.50188 ,34.36045 
114 ,22.7636 ,1.22172 ,3.50872 ,34.42760 
115 ,22.9560 ,1.22363 ,3.46081 ,33.95751 
116 ,23.1480 ,1.22551 ,3.47450 ,34.09182 
117 ,23.3401 ,1.22742 ,3.43344 ,33.68888 
118 ,23.5322 ,1.22932 ,3.42659 ,33.62172 
119 ,23.7244 ,1.23123 ,3.41633 ,33.52099 
120 ,23.9165 ,1.23318 ,3.39237 ,33.28594 
121 ,24.1086 ,1.23515 ,3.37184 ,33.08447 
122 ,24.3166 ,1.23722 ,3.36842 ,33.05089 
123 ,24.4924 ,1.23905 ,3.36157 ,32.98374 
124 ,24.7003 ,1.24102 ,3.33077 ,32.68153 
125 ,24.8928 ,1.24293 ,3.32051 ,32.58080 
126 ,25.1005 ,1.24504 ,3.30339 ,32.41290 
127 ,25.2929 ,1.24692 ,3.27602 ,32.14428 
128 ,25.4691 ,1.24879 ,3.27259 ,32.11070 
129 ,25.6609 ,1.25063 ,3.24864 ,31.87565 
130 ,25.8530 ,1.25258 ,3.22126 ,31.60702 
131 ,26.0454 ,1.25446 ,3.22811 ,31.67418 
132 ,26.2210 ,1.25634 ,3.20415 ,31.43913 
133 ,26.4293 ,1.25831 ,3.19046 ,31.30482 
134 ,26.6211 ,1.26025 ,3.18020 ,31.20409 
135 ,26.7972 ,1.26210 ,3.15282 ,30.93546 
136 ,26.9894 ,1.26389 ,3.13229 ,30.73399 
137 ,27.1818 ,1.26581 ,3.13571 ,30.76757 
138 ,27.3898 ,1.26794 ,3.10149 ,30.43178 
139 ,27.5979 ,1.27001 ,3.09122 ,30.33105 
140 ,27.7899 ,1.27191 ,3.05700 ,29.99527 
141 ,27.9820 ,1.27379 ,3.06042 ,30.02884 
142 ,28.1741 ,1.27578 ,3.05015 ,29.92811 
143 ,28.3660 ,1.27766 ,3.02962 ,29.72664 
144 ,28.5742 ,1.27970 ,3.00224 ,29.45801 
145 ,28.7822 ,1.28182 ,3.00567 ,29.49159 
146 ,28.9583 ,1.28373 ,2.96802 ,29.12223 
147 ,29.1666 ,1.28568 ,2.96460 ,29.08865 
148 ,29.3584 ,1.28762 ,2.95776 ,29.02150 
149 ,29.5507 ,1.28951 ,2.90985 ,28.55140 
150 ,29.7425 ,1.29141 ,2.92011 ,28.65213 
151 ,29.9348 ,1.29336 ,2.88931 ,28.34993 
152 ,30.1429 ,1.29532 ,2.86878 ,28.14846 
153 ,30.3358 ,1.29739 ,2.86536 ,28.11488 
154 ,30.5427 ,1.29943 ,2.85509 ,28.01415 
155 ,30.7671 ,1.30164 ,2.83114 ,27.77910 
156 ,30.9753 ,1.30375 ,2.81402 ,27.61121 
157 ,31.1671 ,1.30569 ,2.79349 ,27.40974 
158 ,31.3593 ,1.30759 ,2.80034 ,27.47689 
159 ,31.5515 ,1.30945 ,2.75927 ,27.07395 
160 ,31.7434 ,1.31144 ,2.75243 ,27.00680 
161 ,31.9356 ,1.31332 ,2.74216 ,26.90606 
162 ,32.1437 ,1.31546 ,2.71820 ,26.67101 
163 ,32.3360 ,1.31735 ,2.70794 ,26.57028 
164 ,32.5280 ,1.31931 ,2.68398 ,26.33523 
165 ,32.7197 ,1.32119 ,2.68740 ,26.36881 
166 ,32.9116 ,1.32315 ,2.65660 ,26.06661 
167 ,33.0881 ,1.32498 ,2.63949 ,25.89871 
168 ,33.2800 ,1.32678 ,2.63949 ,25.89871 
169 ,33.4563 ,1.32866 ,2.61896 ,25.69724 
170 ,33.6484 ,1.33047 ,2.59501 ,25.46220 
171 ,33.8404 ,1.33241 ,2.60185 ,25.52935 
172 ,34.0328 ,1.33438 ,2.58474 ,25.36146 
173 ,34.2408 ,1.33635 ,2.56763 ,25.19357 
174 ,34.4327 ,1.33831 ,2.55052 ,25.02568 
175 ,34.6247 ,1.34027 ,2.51287 ,24.65632 
176 ,34.8168 ,1.34215 ,2.52314 ,24.75705 
177 ,35.0245 ,1.34432 ,2.50603 ,24.58916 
178 ,35.2169 ,1.34614 ,2.49234 ,24.45485 
179 ,35.4090 ,1.34806 ,2.45127 ,24.05191 
180 ,35.6009 ,1.35002 ,2.45470 ,24.08549 
181 ,35.7933 ,1.35197 ,2.45812 ,24.11906 
182 ,35.9854 ,1.35384 ,2.42390 ,23.78328 
183 ,36.1934 ,1.35594 ,2.42732 ,23.81686 
184 ,36.4014 ,1.35799 ,2.40336 ,23.58181 
185 ,36.5936 ,1.35996 ,2.37941 ,23.34676 
186 ,36.8016 ,1.36197 ,2.36572 ,23.21245 
187 ,36.9937 ,1.36391 ,2.36230 ,23.17887 
188 ,37.1854 ,1.36583 ,2.32808 ,22.84309 
189 ,37.3779 ,1.36777 ,2.32465 ,22.80951 
190 ,37.5699 ,1.36967 ,2.31439 ,22.70877 
191 ,37.7620 ,1.37156 ,2.29043 ,22.47373 
192 ,37.9701 ,1.37360 ,2.28359 ,22.40657 
193 ,38.1621 ,1.37558 ,2.25279 ,22.10437 
194 ,38.3383 ,1.37745 ,2.25963 ,22.17152 
195 ,38.5305 ,1.37929 ,2.22199 ,21.80216 
196 ,38.7386 ,1.38138 ,2.20488 ,21.63427 
197 ,38.9305 ,1.38331 ,2.19803 ,21.56711 
198 ,39.1225 ,1.38513 ,2.17408 ,21.33206 
199 ,39.3143 ,1.38711 ,2.19119 ,21.49996 
200 ,39.5227 ,1.38909 ,2.15012 ,21.09702 
201 ,39.6988 ,1.39112 ,2.13644 ,20.96270 
202 ,39.8908 ,1.39287 ,2.12617 ,20.86197 
203 ,40.0990 ,1.39484 ,2.10564 ,20.66050 
204 ,40.2911 ,1.39692 ,2.10221 ,20.62692 
205 ,40.4829 ,1.39873 ,2.07484 ,20.35829 
206 ,40.6753 ,1.40071 ,2.06457 ,20.25756 
207 ,40.8841 ,1.40285 ,2.03377 ,19.95535 
208 ,41.0914 ,1.40491 ,2.04746 ,20.08967 
209 ,41.2995 ,1.40698 ,2.00639 ,19.68673 
210 ,41.4912 ,1.40889 ,2.02008 ,19.82104 
211 ,41.6836 ,1.41081 ,1.97902 ,19.41810 
212 ,41.9077 ,1.41294 ,1.99613 ,19.58599 
213 ,42.0997 ,1.41502 ,1.94822 ,19.11590 
214 ,42.2920 ,1.41690 ,1.95848 ,19.21663 
215 ,42.4836 ,1.41880 ,1.92084 ,18.84727 
216 ,42.6759 ,1.42069 ,1.93453 ,18.98158 
217 ,42.9002 ,1.42284 ,1.89004 ,18.54507 
218 ,43.0922 ,1.42491 ,1.89004 ,18.54507 
219 ,43.2844 ,1.42679 ,1.85582 ,18.20928 
220 ,43.4920 ,1.42886 ,1.86266 ,18.27644 
221 ,43.6843 ,1.43081 ,1.83871 ,18.04139 
222 ,43.8765 ,1.43282 ,1.82844 ,17.94066 
223 ,44.1007 ,1.43496 ,1.80449 ,17.70561 
224 ,44.3085 ,1.43705 ,1.80791 ,17.73919 
225 ,44.5004 ,1.43896 ,1.78395 ,17.50414 
226 ,44.6929 ,1.44091 ,1.78053 ,17.47056 
227 ,44.8850 ,1.44276 ,1.74631 ,17.13478 
228 ,45.0931 ,1.44474 ,1.74631 ,17.13478 
229 ,45.2852 ,1.44683 ,1.72578 ,16.93331 
230 ,45.4773 ,1.44872 ,1.72578 ,16.93331 
231 ,45.6694 ,1.45066 ,1.71209 ,16.79899 
232 ,45.8770 ,1.45273 ,1.67786 ,16.46321 
233 ,46.0696 ,1.45463 ,1.68129 ,16.49679 
234 ,46.2776 ,1.45673 ,1.66418 ,16.32890 
235 ,46.4697 ,1.45866 ,1.65733 ,16.26174 
236 ,46.6617 ,1.46057 ,1.62995 ,15.99311 
237 ,46.8539 ,1.46247 ,1.62653 ,15.95954 
238 ,47.0456 ,1.46455 ,1.59916 ,15.69091 
239 ,47.2380 ,1.46627 ,1.60258 ,15.72449 
240 ,47.4302 ,1.46825 ,1.58547 ,15.55660 
241 ,47.6221 ,1.47019 ,1.55809 ,15.28797 
242 ,47.8299 ,1.47226 ,1.55467 ,15.25439 
243 ,48.0222 ,1.47411 ,1.53071 ,15.01934 
244 ,48.1984 ,1.47604 ,1.52045 ,14.91861 
245 ,48.3903 ,1.47793 ,1.49991 ,14.71714 
246 ,48.5825 ,1.47978 ,1.49307 ,14.64998 
247 ,48.7585 ,1.48168 ,1.47596 ,14.48209 
248 ,48.9505 ,1.48340 ,1.47938 ,14.51567 
249 ,49.1425 ,1.48531 ,1.44858 ,14.21346 
250 ,49.3351 ,1.48732 ,1.43489 ,14.07915 
251 ,49.5430 ,1.48932 ,1.41436 ,13.87768 
252 ,49.7352 ,1.49128 ,1.42462 ,13.97842 
253 ,49.9431 ,1.49325 ,1.41436 ,13.87768 
254 ,50.1354 ,1.49531 ,1.37329 ,13.47474 
255 ,50.3433 ,1.49730 ,1.36987 ,13.44116 
256 ,50.5354 ,1.49926 ,1.35276 ,13.27327 
257 ,50.7435 ,1.50128 ,1.33565 ,13.10538 
258 ,50.9513 ,1.50345 ,1.34249 ,13.17254 
259 ,51.1436 ,1.50539 ,1.32196 ,12.97107 
260 ,51.3512 ,1.50739 ,1.31169 ,12.87033 
261 ,51.5437 ,1.50939 ,1.28432 ,12.60171 
262 ,51.7357 ,1.51135 ,1.28089 ,12.56813 
263 ,51.9280 ,1.51319 ,1.28774 ,12.63528 
264 ,52.1200 ,1.51514 ,1.24325 ,12.19877 
265 ,52.3120 ,1.51707 ,1.23983 ,12.16519 
266 ,52.4877 ,1.51895 ,1.22956 ,12.06445 
267 ,52.6802 ,1.52071 ,1.20903 ,11.86298 
268 ,52.8882 ,1.52280 ,1.21587 ,11.93014 
269 ,53.1122 ,1.52501 ,1.18165 ,11.59436 
270 ,53.3204 ,1.52708 ,1.16112 ,11.39289 
271 ,53.5122 ,1.52903 ,1.14743 ,11.25857 
272 ,53.7042 ,1.53100 ,1.15085 ,11.29215 
273 ,53.8965 ,1.53288 ,1.11663 ,10.95637 
274 ,54.1048 ,1.53495 ,1.11321 ,10.92279 
275 ,54.2970 ,1.53689 ,1.08583 ,10.65416 
276 ,54.4888 ,1.53884 ,1.10294 ,10.82206 
277 ,54.6806 ,1.54072 ,1.07899 ,10.58701 
278 ,54.8727 ,1.54259 ,1.05503 ,10.35196 
279 ,55.0487 ,1.54454 ,1.05845 ,10.38554 
280 ,55.2249 ,1.54628 ,1.02765 ,10.08333 
281 ,55.4170 ,1.54808 ,1.01739 ,9.98260 
282 ,55.6091 ,1.54998 ,1.01739 ,9.98260 
283 ,55.7850 ,1.55190 ,1.00370 ,9.84829 
284 ,55.9772 ,1.55368 ,0.97290 ,9.54608 
285 ,56.1692 ,1.55562 ,0.97632 ,9.57966 
286 ,56.3614 ,1.55753 ,0.96263 ,9.44535 
287 ,56.5694 ,1.55963 ,0.94894 ,9.31103 
288 ,56.7615 ,1.56149 ,0.93183 ,9.14314 
289 ,56.9537 ,1.56342 ,0.91472 ,8.97525 
290 ,57.1457 ,1.56534 ,0.90103 ,8.84094 
291 ,57.3379 ,1.56728 ,0.88734 ,8.70662 
292 ,57.5299 ,1.56923 ,0.88734 ,8.70662 
293 ,57.7218 ,1.57110 ,0.87023 ,8.53873 
294 ,57.9141 ,1.57302 ,0.84970 ,8.33726 
295 ,58.0900 ,1.57495 ,0.85312 ,8.37084 
296 ,58.2821 ,1.57671 ,0.83259 ,8.16937 
297 ,58.4742 ,1.57862 ,0.81206 ,7.96790 
298 ,58.6663 ,1.58052 ,0.80863 ,7.93432 
299 ,58.8584 ,1.58248 ,0.78810 ,7.73285 
300 ,59.0504 ,1.58438 ,0.79495 ,7.80001 
301 ,59.2589 ,1.58642 ,0.77441 ,7.59854 
302 ,59.4667 ,1.58855 ,0.76415 ,7.49780 
303 ,59.6592 ,1.59051 ,0.75046 ,7.36349 
304 ,59.8671 ,1.59248 ,0.72992 ,7.16202 
305 ,60.0592 ,1.59448 ,0.71281 ,6.99413 
306 ,60.2509 ,1.59642 ,0.70255 ,6.89340 
307 ,60.4595 ,1.59847 ,0.68544 ,6.72550 
308 ,60.6674 ,1.60054 ,0.67859 ,6.65835 
309 ,60.8754 ,1.60258 ,0.66833 ,6.55761 
310 ,61.0677 ,1.60461 ,0.67175 ,6.59119 
311 ,61.2595 ,1.60649 ,0.65121 ,6.38972 
312 ,61.4678 ,1.60854 ,0.63753 ,6.25541 
313 ,61.6759 ,1.61066 ,0.61015 ,5.98678 
314 ,61.8840 ,1.61277 ,0.61699 ,6.05394 
315 ,62.0761 ,1.61468 ,0.58619 ,5.75173 
316 ,62.2678 ,1.61659 ,0.57935 ,5.68458 
317 ,62.4603 ,1.61850 ,0.57251 ,5.61742 
318 ,62.6522 ,1.62050 ,0.56908 ,5.58384 
319 ,62.8443 ,1.62232 ,0.56224 ,5.51668 
320 ,63.0365 ,1.62421 ,0.52459 ,5.14732 
321 ,63.2286 ,1.62618 ,0.53828 ,5.28164 
322 ,63.4201 ,1.62808 ,0.54513 ,5.34879 
323 ,63.6124 ,1.62997 ,0.51433 ,5.04659 
324 ,63.8046 ,1.63195 ,0.54513 ,5.34879 
325 ,63.9969 ,1.63382 ,0.52459 ,5.14732 
326 ,64.2048 ,1.63589 ,0.53144 ,5.21448 
327 ,64.4291 ,1.63805 ,0.51091 ,5.01301 
328 ,64.6208 ,1.64013 ,0.52117 ,5.11375 
329 ,64.8292 ,1.64213 ,0.51775 ,5.08017 
330 ,65.0211 ,1.64409 ,0.53144 ,5.21448 
331 ,65.2294 ,1.64605 ,0.49722 ,4.87870 
332 ,65.4213 ,1.64815 ,0.50748 ,4.97943 
333 ,65.6131 ,1.65011 ,0.50064 ,4.91228 
334 ,65.7895 ,1.65188 ,0.51433 ,5.04659 
335 ,65.9815 ,1.65364 ,0.50748 ,4.97943 
336 ,66.1738 ,1.65561 ,0.48353 ,4.74438 
337 ,66.3818 ,1.65771 ,0.49037 ,4.81154 
338 ,66.5740 ,1.65960 ,0.46300 ,4.54291 
339 ,66.7819 ,1.66169 ,0.45957 ,4.50934 
340 ,66.9740 ,1.66364 ,0.43562 ,4.27429 
341 ,67.1661 ,1.66553 ,0.44246 ,4.34144 
342 ,67.3582 ,1.66743 ,0.42193 ,4.13997 
343 ,67.5500 ,1.66932 ,0.40140 ,3.93850 
344 ,67.7421 ,1.67128 ,0.41509 ,4.07282 
345 ,67.9662 ,1.67336 ,0.39455 ,3.87135 
346 ,68.1586 ,1.67543 ,0.39797 ,3.90493 
347 ,68.3503 ,1.67737 ,0.36718 ,3.60272 
348 ,68.5424 ,1.67929 ,0.37060 ,3.63630 
349 ,68.7346 ,1.68119 ,0.33295 ,3.26694 
350 ,68.9269 ,1.68311 ,0.32953 ,3.23336 
351 ,69.1189 ,1.68504 ,0.33295 ,3.26694 
352 ,69.3270 ,1.68711 ,0.30215 ,2.96473 
353 ,69.5190 ,1.68902 ,0.30900 ,3.03189 
354 ,69.7113 ,1.69101 ,0.27820 ,2.72969 
355 ,69.9029 ,1.69286 ,0.27820 ,2.72969 
356 ,70.0953 ,1.69488 ,0.27820 ,2.72969 
357 ,70.3034 ,1.69686 ,0.27135 ,2.66253 
358 ,70.4956 ,1.69884 ,0.24398 ,2.39390 
359 ,70.6877 ,1.70071 ,0.22687 ,2.22601 
360 ,70.8954 ,1.70273 ,0.21318 ,2.09170 
361 ,71.1038 ,1.70489 ,0.20976 ,2.05812 
362 ,71.2960 ,1.70677 ,0.19607 ,1.92381 
363 ,71.4879 ,1.70872 ,0.18580 ,1.82307 
364 ,71.6801 ,1.71069 ,0.17896 ,1.75592 
365 ,71.8878 ,1.71272 ,0.15500 ,1.52087 
366 ,72.0801 ,1.71461 ,0.15842 ,1.55445 
367 ,72.3043 ,1.71680 ,0.13105 ,1.28582 
368 ,72.5122 ,1.71894 ,0.12420 ,1.21866 
369 ,72.7045 ,1.72088 ,0.10709 ,1.05077 
370 ,72.9126 ,1.72296 ,0.10025 ,0.98361 
371 ,73.1047 ,1.72492 ,0.08656 ,0.84930 
372 ,73.3127 ,1.72694 ,0.07287 ,0.71499 
373 ,73.5208 ,1.72900 ,0.08656 ,0.84930 
374 ,73.6968 ,1.73095 ,0.04891 ,0.47994 
375 ,73.8889 ,1.73273 ,0.04549 ,0.44636 
376 ,74.0811 ,1.73462 ,0.04207 ,0.41278 
377 ,74.2888 ,1.73677 ,0.01127 ,0.11058 
378 ,74.4811 ,1.73865 ,0.01469 ,0.14416 
379 ,74.6892 ,1.74072 ,-0.00584 ,-0.05731 
380 ,74.8814 ,1.74265 ,0.00785 ,0.07700 
381 ,75.0894 ,1.74468 ,-0.02295 ,-0.22520 
382 ,75.2974 ,1.74678 ,-0.03664 ,-0.35952 
383 ,75.4891 ,1.74872 ,-0.05375 ,-0.52741 
384 ,75.6811 ,1.75063 ,-0.04348 ,-0.42667 
385 ,75.8573 ,1.75257 ,-0.06402 ,-0.62814 
386 ,76.0656 ,1.75453 ,-0.06744 ,-0.66172 
387 ,76.2737 ,1.75659 ,-0.07428 ,-0.72888 
388 ,76.4818 ,1.75857 ,-0.10166 ,-0.99751 
389 ,76.6740 ,1.76061 ,-0.09824 ,-0.96393 
390 ,76.8662 ,1.76251 ,-0.11877 ,-1.16540 
391 ,77.0581 ,1.76443 ,-0.12219 ,-1.19898 
392 ,77.2663 ,1.76650 ,-0.13588 ,-1.33329 
393 ,77.4584 ,1.76841 ,-0.14273 ,-1.40045 
394 ,77.6500 ,1.77042 ,-0.16326 ,-1.60191 
395 ,77.8426 ,1.77227 ,-0.16326 ,-1.60191 
396 ,78.0348 ,1.77418 ,-0.17353 ,-1.70265 
397 ,78.2266 ,1.77605 ,-0.19064 ,-1.87054 
398 ,78.4185 ,1.77799 ,-0.18379 ,-1.80338 
399 ,78.6106 ,1.77988 ,-0.21802 ,-2.13917 
400 ,78.8026 ,1.78180 ,-0.21117 ,-2.07201 
401 ,78.9949 ,1.78376 ,-0.22144 ,-2.17275 
402 ,79.1871 ,1.78570 ,-0.23513 ,-2.30706 
403 ,79.3791 ,1.78774 ,-0.24197 ,-2.37422 
404 ,79.5869 ,1.78954 ,-0.25566 ,-2.50853 
405 ,79.7791 ,1.79161 ,-0.26593 ,-2.60926 
406 ,79.9872 ,1.79364 ,-0.27277 ,-2.67642 
407 ,80.1794 ,1.79559 ,-0.28304 ,-2.77716 
408 ,80.3716 ,1.79753 ,-0.29330 ,-2.87789 
409 ,80.5792 ,1.79962 ,-0.29673 ,-2.91147 
410 ,80.7718 ,1.80152 ,-0.31384 ,-3.07936 
411 ,80.9798 ,1.80359 ,-0.32752 ,-3.21367 
412 ,81.1719 ,1.80550 ,-0.33437 ,-3.28083 
413 ,81.3800 ,1.80762 ,-0.33437 ,-3.28083 
414 ,81.5721 ,1.80956 ,-0.34121 ,-3.34799 
415 ,81.7802 ,1.81157 ,-0.35490 ,-3.48230 
416 ,81.9719 ,1.81365 ,-0.37544 ,-3.68377 
417 ,82.1644 ,1.81546 ,-0.39597 ,-3.88524 
418 ,82.3885 ,1.81772 ,-0.40623 ,-3.98597 
419 ,82.5965 ,1.81971 ,-0.39597 ,-3.88524 
420 ,82.8205 ,1.82190 ,-0.42335 ,-4.15387 
421 ,83.0448 ,1.82420 ,-0.43361 ,-4.25460 
422 ,83.2529 ,1.82632 ,-0.42677 ,-4.18744 
423 ,83.4610 ,1.82839 ,-0.46099 ,-4.52323 
424 ,83.6529 ,1.83036 ,-0.45072 ,-4.42249 
425 ,83.8610 ,1.83237 ,-0.47468 ,-4.65754 
426 ,84.0532 ,1.83433 ,-0.47126 ,-4.62396 
427 ,84.2451 ,1.83627 ,-0.49179 ,-4.82543 
428 ,84.4534 ,1.83833 ,-0.47810 ,-4.69112 
429 ,84.6454 ,1.84022 ,-0.48494 ,-4.75828 
430 ,84.8376 ,1.84215 ,-0.48152 ,-4.72470 
431 ,85.0456 ,1.84425 ,-0.49521 ,-4.85901 
432 ,85.2375 ,1.84617 ,-0.49179 ,-4.82543 
433 ,85.4298 ,1.84815 ,-0.48494 ,-4.75828 
434 ,85.6536 ,1.85021 ,-0.47810 ,-4.69112 
435 ,85.8457 ,1.85229 ,-0.49179 ,-4.82543 
436 ,86.0540 ,1.85429 ,-0.49179 ,-4.82543 
437 ,86.2461 ,1.85627 ,-0.51232 ,-5.02690 
438 ,86.4540 ,1.85838 ,-0.51232 ,-5.02690 
439 ,86.6618 ,1.86038 ,-0.53285 ,-5.22837 
440 ,86.8539 ,1.86232 ,-0.52601 ,-5.16121 
441 ,87.0459 ,1.86423 ,-0.54654 ,-5.36268 
442 ,87.2385 ,1.86614 ,-0.54654 ,-5.36268 
443 ,87.4306 ,1.86809 ,-0.54654 ,-5.36268 
444 ,87.6226 ,1.87002 ,-0.56708 ,-5.56415 
445 ,87.8147 ,1.87187 ,-0.57050 ,-5.59773 
446 ,88.0067 ,1.87385 ,-0.58077 ,-5.69847 
447 ,88.2148 ,1.87586 ,-0.57734 ,-5.66489 
448 ,88.4069 ,1.87783 ,-0.60472 ,-5.93352 
449 ,88.5986 ,1.87975 ,-0.62183 ,-6.10141 
450 ,88.7908 ,1.88168 ,-0.62183 ,-6.10141 
451 ,88.9989 ,1.88373 ,-0.62183 ,-6.10141 
452 ,89.1910 ,1.88564 ,-0.63210 ,-6.20214 
453 ,89.3993 ,1.88772 ,-0.64921 ,-6.37003 
454 ,89.5910 ,1.88966 ,-0.64579 ,-6.33646 
455 ,89.7834 ,1.89157 ,-0.68001 ,-6.67224 
456 ,89.9916 ,1.89367 ,-0.66290 ,-6.50435 
457 ,90.1996 ,1.89571 ,-0.69712 ,-6.84013 
458 ,90.4078 ,1.89787 ,-0.71081 ,-6.97444 
459 ,90.6155 ,1.89992 ,-0.69712 ,-6.84013 
460 ,90.8077 ,1.90180 ,-0.72792 ,-7.14233 
461 ,90.9999 ,1.90374 ,-0.74503 ,-7.31023 
462 ,91.1921 ,1.90568 ,-0.72792 ,-7.14233 
463 ,91.4002 ,1.90772 ,-0.75530 ,-7.41096 
