Data stamp = , 30-04-2022 20:48:30 350

Calibration Values: 
Slope = , 26.54 , g/V 
Offset Voltage at no contact = , -0.501760 , V 

No , Time , Stage Position ,   Mass , Force 
   ,  (s) ,      (mm)      ,   (g)  , (mN)  

1 ,0.0000 ,0.99948 ,5.42856 ,53.26503 
2 ,0.2155 ,0.99955 ,5.43198 ,53.29861 
3 ,0.7922 ,1.00176 ,5.45251 ,53.50008 
4 ,1.0002 ,1.00424 ,5.42856 ,53.26503 
5 ,1.2081 ,1.00627 ,5.42514 ,53.23145 
6 ,1.4324 ,1.00840 ,5.41487 ,53.13072 
7 ,1.6404 ,1.01061 ,5.39434 ,52.92925 
8 ,1.8325 ,1.01252 ,5.39092 ,52.89567 
9 ,2.0407 ,1.01463 ,5.35327 ,52.52631 
10 ,2.2328 ,1.01657 ,5.33616 ,52.35841 
11 ,2.4247 ,1.01850 ,5.32247 ,52.22410 
12 ,2.6326 ,1.02054 ,5.31563 ,52.15694 
13 ,2.8251 ,1.02245 ,5.28483 ,51.85474 
14 ,3.0170 ,1.02440 ,5.26087 ,51.61969 
15 ,3.1931 ,1.02631 ,5.23692 ,51.38464 
16 ,3.3853 ,1.02806 ,5.23350 ,51.35107 
17 ,3.6093 ,1.03023 ,5.20612 ,51.08244 
18 ,3.8332 ,1.03253 ,5.19585 ,50.98170 
19 ,4.0255 ,1.03451 ,5.17190 ,50.74666 
20 ,4.2175 ,1.03640 ,5.15479 ,50.57876 
21 ,4.4252 ,1.03846 ,5.12399 ,50.27656 
22 ,4.6174 ,1.04037 ,5.10688 ,50.10867 
23 ,4.8098 ,1.04231 ,5.10688 ,50.10867 
24 ,5.0016 ,1.04427 ,5.06923 ,49.73931 
25 ,5.2100 ,1.04632 ,5.06923 ,49.73931 
26 ,5.4020 ,1.04825 ,5.03843 ,49.43710 
27 ,5.5937 ,1.05020 ,5.01790 ,49.23563 
28 ,5.7861 ,1.05208 ,4.99052 ,48.96701 
29 ,5.9942 ,1.05416 ,4.99394 ,49.00058 
30 ,6.1862 ,1.05606 ,4.95288 ,48.59764 
31 ,6.3945 ,1.05814 ,4.94261 ,48.49691 
32 ,6.5865 ,1.06005 ,4.92550 ,48.32902 
33 ,6.7946 ,1.06214 ,4.91523 ,48.22828 
34 ,6.9866 ,1.06403 ,4.87759 ,47.85892 
35 ,7.1788 ,1.06600 ,4.85706 ,47.65745 
36 ,7.3867 ,1.06801 ,4.84337 ,47.52314 
37 ,7.5790 ,1.06995 ,4.81599 ,47.25451 
38 ,7.7707 ,1.07196 ,4.81599 ,47.25451 
39 ,7.9632 ,1.07384 ,4.77150 ,46.81800 
40 ,8.1713 ,1.07594 ,4.76808 ,46.78442 
41 ,8.3634 ,1.07786 ,4.74755 ,46.58295 
42 ,8.5712 ,1.07992 ,4.73044 ,46.41506 
43 ,8.7634 ,1.08183 ,4.70990 ,46.21359 
44 ,8.9391 ,1.08369 ,4.70990 ,46.21359 
45 ,9.1477 ,1.08557 ,4.69279 ,46.04569 
46 ,9.3396 ,1.08763 ,4.65515 ,45.67633 
47 ,9.5479 ,1.08963 ,4.64831 ,45.60918 
48 ,9.7400 ,1.09161 ,4.61751 ,45.30697 
49 ,9.9317 ,1.09353 ,4.62435 ,45.37413 
50 ,10.1240 ,1.09540 ,4.59355 ,45.07192 
51 ,10.3320 ,1.09751 ,4.56960 ,44.83688 
52 ,10.5241 ,1.09942 ,4.55591 ,44.70256 
53 ,10.7321 ,1.10150 ,4.54564 ,44.60183 
54 ,10.9243 ,1.10344 ,4.52169 ,44.36678 
55 ,11.1160 ,1.10537 ,4.49089 ,44.06457 
56 ,11.3085 ,1.10728 ,4.48404 ,43.99742 
57 ,11.5006 ,1.10916 ,4.46351 ,43.79595 
58 ,11.7246 ,1.11137 ,4.45666 ,43.72879 
59 ,11.9328 ,1.11353 ,4.43271 ,43.49374 
60 ,12.1247 ,1.11545 ,4.41560 ,43.32585 
61 ,12.3168 ,1.11732 ,4.37795 ,42.95649 
62 ,12.5411 ,1.11949 ,4.37111 ,42.88933 
63 ,12.7493 ,1.12169 ,4.35400 ,42.72144 
64 ,12.9415 ,1.12362 ,4.33347 ,42.51997 
65 ,13.1331 ,1.12555 ,4.30609 ,42.25135 
66 ,13.3249 ,1.12740 ,4.30609 ,42.25135 
67 ,13.5175 ,1.12937 ,4.28213 ,42.01630 
68 ,13.7096 ,1.13131 ,4.28213 ,42.01630 
69 ,13.9176 ,1.13338 ,4.24449 ,41.64694 
70 ,14.1097 ,1.13530 ,4.24791 ,41.68051 
71 ,14.3177 ,1.13732 ,4.20685 ,41.27758 
72 ,14.5258 ,1.13937 ,4.20000 ,41.21042 
73 ,14.7338 ,1.14154 ,4.17605 ,40.97537 
74 ,14.9259 ,1.14345 ,4.15894 ,40.80748 
75 ,15.1178 ,1.14539 ,4.13156 ,40.53885 
76 ,15.3102 ,1.14733 ,4.13498 ,40.57243 
77 ,15.5019 ,1.14920 ,4.11445 ,40.37096 
78 ,15.6943 ,1.15108 ,4.08365 ,40.06876 
79 ,15.8862 ,1.15306 ,4.09049 ,40.13591 
80 ,16.0784 ,1.15497 ,4.05285 ,39.76655 
81 ,16.2704 ,1.15683 ,4.06312 ,39.86729 
82 ,16.4785 ,1.15896 ,4.02205 ,39.46435 
83 ,16.6707 ,1.16090 ,4.01863 ,39.43077 
84 ,16.8788 ,1.16295 ,3.98783 ,39.12856 
85 ,17.0708 ,1.16489 ,3.96729 ,38.92709 
86 ,17.2629 ,1.16679 ,3.96045 ,38.85994 
87 ,17.4550 ,1.16874 ,3.93650 ,38.62489 
88 ,17.6627 ,1.17078 ,3.93307 ,38.59131 
89 ,17.8550 ,1.17269 ,3.88858 ,38.15479 
90 ,18.0472 ,1.17463 ,3.90570 ,38.32268 
91 ,18.2394 ,1.17658 ,3.87147 ,37.98690 
92 ,18.4475 ,1.17862 ,3.86121 ,37.88617 
93 ,18.6393 ,1.18059 ,3.82356 ,37.51681 
94 ,18.8315 ,1.18246 ,3.82699 ,37.55038 
95 ,19.0396 ,1.18458 ,3.79276 ,37.21460 
96 ,19.2478 ,1.18665 ,3.78934 ,37.18102 
97 ,19.4399 ,1.18856 ,3.76196 ,36.91240 
98 ,19.6477 ,1.19066 ,3.75170 ,36.81166 
99 ,19.8395 ,1.19253 ,3.73117 ,36.61019 
100 ,20.0319 ,1.19448 ,3.71405 ,36.44230 
101 ,20.2399 ,1.19655 ,3.70037 ,36.30799 
102 ,20.4318 ,1.19846 ,3.67641 ,36.07294 
103 ,20.6402 ,1.20062 ,3.64903 ,35.80431 
104 ,20.8317 ,1.20248 ,3.64903 ,35.80431 
105 ,21.0399 ,1.20450 ,3.62508 ,35.56926 
106 ,21.2324 ,1.20651 ,3.60112 ,35.33422 
107 ,21.4886 ,1.20906 ,3.59086 ,35.23348 
108 ,21.6964 ,1.21110 ,3.54979 ,34.83054 
109 ,21.8887 ,1.21301 ,3.56348 ,34.96485 
110 ,22.0808 ,1.21499 ,3.53268 ,34.66265 
111 ,22.2888 ,1.21704 ,3.51899 ,34.52834 
112 ,22.4968 ,1.21903 ,3.49504 ,34.29329 
113 ,22.6890 ,1.22108 ,3.48477 ,34.19255 
114 ,22.8971 ,1.22302 ,3.45397 ,33.89035 
115 ,23.0887 ,1.22508 ,3.45397 ,33.89035 
116 ,23.2813 ,1.22699 ,3.42317 ,33.58814 
117 ,23.4891 ,1.22900 ,3.41975 ,33.55457 
118 ,23.6814 ,1.23095 ,3.40264 ,33.38667 
119 ,23.8894 ,1.23302 ,3.37868 ,33.15163 
120 ,24.0815 ,1.23491 ,3.36157 ,32.98374 
121 ,24.2734 ,1.23687 ,3.33419 ,32.71511 
122 ,24.4655 ,1.23878 ,3.33762 ,32.74869 
123 ,24.6576 ,1.24074 ,3.31366 ,32.51364 
124 ,24.8657 ,1.24283 ,3.29997 ,32.37933 
125 ,25.0578 ,1.24474 ,3.28286 ,32.21143 
126 ,25.2656 ,1.24676 ,3.27602 ,32.14428 
127 ,25.4578 ,1.24869 ,3.24522 ,31.84207 
128 ,25.6662 ,1.25082 ,3.23495 ,31.74134 
129 ,25.8584 ,1.25271 ,3.21442 ,31.53987 
130 ,26.0504 ,1.25468 ,3.19731 ,31.37198 
131 ,26.2423 ,1.25654 ,3.19388 ,31.33840 
132 ,26.4181 ,1.25841 ,3.14940 ,30.90188 
133 ,26.6102 ,1.26028 ,3.15624 ,30.96904 
134 ,26.8187 ,1.26232 ,3.12202 ,30.63325 
135 ,27.0106 ,1.26430 ,3.12202 ,30.63325 
136 ,27.2028 ,1.26619 ,3.09464 ,30.36463 
137 ,27.3948 ,1.26806 ,3.07753 ,30.19674 
138 ,27.6030 ,1.27014 ,3.08095 ,30.23031 
139 ,27.7950 ,1.27217 ,3.04673 ,29.89453 
140 ,27.9871 ,1.27399 ,3.04331 ,29.86095 
141 ,28.1950 ,1.27608 ,3.00224 ,29.45801 
142 ,28.3873 ,1.27796 ,3.00567 ,29.49159 
143 ,28.5950 ,1.28004 ,2.97829 ,29.22297 
144 ,28.7714 ,1.28196 ,2.97487 ,29.18939 
145 ,28.9636 ,1.28377 ,2.97487 ,29.18939 
146 ,29.1716 ,1.28584 ,2.93038 ,28.75287 
147 ,29.3637 ,1.28774 ,2.93722 ,28.82003 
148 ,29.5394 ,1.28963 ,2.90300 ,28.48424 
149 ,29.7315 ,1.29139 ,2.89273 ,28.38351 
150 ,29.9236 ,1.29333 ,2.87562 ,28.21562 
151 ,30.1158 ,1.29526 ,2.85509 ,28.01415 
152 ,30.3398 ,1.29741 ,2.85167 ,27.98057 
153 ,30.5321 ,1.29944 ,2.83456 ,27.81268 
154 ,30.7242 ,1.30135 ,2.82771 ,27.74552 
155 ,30.9321 ,1.30340 ,2.79007 ,27.37616 
156 ,31.1405 ,1.30556 ,2.79691 ,27.44332 
157 ,31.3484 ,1.30757 ,2.76611 ,27.14111 
158 ,31.5562 ,1.30969 ,2.74558 ,26.93964 
159 ,31.7487 ,1.31155 ,2.75585 ,27.04038 
160 ,31.9407 ,1.31353 ,2.72847 ,26.77175 
161 ,32.1327 ,1.31543 ,2.70109 ,26.50312 
162 ,32.3409 ,1.31740 ,2.70109 ,26.50312 
163 ,32.5491 ,1.31948 ,2.65660 ,26.06661 
164 ,32.7411 ,1.32152 ,2.67029 ,26.20092 
165 ,32.9328 ,1.32356 ,2.64634 ,25.96587 
166 ,33.1251 ,1.32541 ,2.63265 ,25.83156 
167 ,33.3495 ,1.32748 ,2.59501 ,25.46220 
168 ,33.5574 ,1.32966 ,2.60527 ,25.56293 
169 ,33.7496 ,1.33161 ,2.58132 ,25.32788 
170 ,33.9573 ,1.33368 ,2.56421 ,25.15999 
171 ,34.1497 ,1.33554 ,2.54367 ,24.95852 
172 ,34.3577 ,1.33764 ,2.52656 ,24.79063 
173 ,34.5498 ,1.33954 ,2.50261 ,24.55558 
174 ,34.7420 ,1.34151 ,2.50945 ,24.62274 
175 ,34.9338 ,1.34344 ,2.47523 ,24.28696 
176 ,35.1258 ,1.34535 ,2.48550 ,24.38769 
177 ,35.3501 ,1.34748 ,2.44785 ,24.01833 
178 ,35.5423 ,1.34957 ,2.43074 ,23.85044 
179 ,35.7343 ,1.35145 ,2.42048 ,23.74970 
180 ,35.9261 ,1.35337 ,2.41363 ,23.68255 
181 ,36.1185 ,1.35528 ,2.39652 ,23.51465 
182 ,36.3105 ,1.35722 ,2.38968 ,23.44750 
183 ,36.5027 ,1.35913 ,2.37599 ,23.31318 
184 ,36.6948 ,1.36105 ,2.35888 ,23.14529 
185 ,36.9027 ,1.36309 ,2.33834 ,22.94382 
186 ,37.0949 ,1.36502 ,2.31439 ,22.70877 
187 ,37.3027 ,1.36713 ,2.32123 ,22.77593 
188 ,37.4950 ,1.36902 ,2.29728 ,22.54088 
189 ,37.7032 ,1.37112 ,2.29043 ,22.47373 
190 ,37.8949 ,1.37302 ,2.26990 ,22.27226 
191 ,38.0872 ,1.37491 ,2.25279 ,22.10437 
192 ,38.3113 ,1.37707 ,2.24252 ,22.00363 
193 ,38.5033 ,1.37912 ,2.22199 ,21.80216 
194 ,38.6952 ,1.38099 ,2.20488 ,21.63427 
195 ,38.8875 ,1.38294 ,2.18777 ,21.46638 
196 ,39.0796 ,1.38485 ,2.17066 ,21.29849 
197 ,39.2875 ,1.38695 ,2.16381 ,21.23133 
198 ,39.4798 ,1.38888 ,2.16039 ,21.19775 
199 ,39.6873 ,1.39100 ,2.13301 ,20.92912 
200 ,39.8955 ,1.39296 ,2.11932 ,20.79481 
201 ,40.0875 ,1.39497 ,2.11590 ,20.76123 
202 ,40.2796 ,1.39688 ,2.09195 ,20.52619 
203 ,40.4717 ,1.39879 ,2.06457 ,20.25756 
204 ,40.6638 ,1.40071 ,2.05773 ,20.19040 
205 ,40.8719 ,1.40274 ,2.04061 ,20.02251 
206 ,41.0640 ,1.40469 ,2.03719 ,19.98893 
207 ,41.2401 ,1.40660 ,2.02693 ,19.88820 
208 ,41.4321 ,1.40836 ,2.00639 ,19.68673 
209 ,41.6242 ,1.41029 ,2.00982 ,19.72031 
210 ,41.8163 ,1.41224 ,1.98586 ,19.48526 
211 ,41.9924 ,1.41412 ,1.96533 ,19.28379 
212 ,42.1844 ,1.41590 ,1.96533 ,19.28379 
213 ,42.3604 ,1.41779 ,1.94822 ,19.11590 
214 ,42.5526 ,1.41954 ,1.91399 ,18.78011 
215 ,42.7287 ,1.42150 ,1.92426 ,18.88085 
216 ,42.9207 ,1.42326 ,1.91057 ,18.74654 
217 ,43.1128 ,1.42521 ,1.88662 ,18.51149 
218 ,43.3049 ,1.42708 ,1.87977 ,18.44433 
219 ,43.4810 ,1.42903 ,1.85240 ,18.17570 
220 ,43.6731 ,1.43078 ,1.84555 ,18.10855 
221 ,43.8651 ,1.43272 ,1.83871 ,18.04139 
222 ,44.0732 ,1.43473 ,1.82502 ,17.90708 
223 ,44.2654 ,1.43671 ,1.80449 ,17.70561 
224 ,44.4739 ,1.43878 ,1.79080 ,17.57129 
225 ,44.6656 ,1.44071 ,1.78395 ,17.50414 
226 ,44.8580 ,1.44263 ,1.77026 ,17.36983 
227 ,45.0656 ,1.44471 ,1.74631 ,17.13478 
228 ,45.2582 ,1.44661 ,1.73604 ,17.03404 
229 ,45.4662 ,1.44865 ,1.71551 ,16.83257 
230 ,45.6584 ,1.45072 ,1.71209 ,16.79899 
231 ,45.8660 ,1.45273 ,1.71209 ,16.79899 
232 ,46.0584 ,1.45460 ,1.68471 ,16.53037 
233 ,46.2504 ,1.45656 ,1.66075 ,16.29532 
234 ,46.4586 ,1.45858 ,1.65391 ,16.22816 
235 ,46.6506 ,1.46056 ,1.62995 ,15.99311 
236 ,46.8428 ,1.46248 ,1.64364 ,16.12743 
237 ,47.0348 ,1.46438 ,1.60258 ,15.72449 
238 ,47.2265 ,1.46635 ,1.61284 ,15.82522 
239 ,47.4190 ,1.46824 ,1.58889 ,15.59018 
240 ,47.6427 ,1.47044 ,1.59231 ,15.62375 
241 ,47.8348 ,1.47238 ,1.54098 ,15.12008 
242 ,48.0272 ,1.47429 ,1.55467 ,15.25439 
243 ,48.2353 ,1.47640 ,1.52387 ,14.95219 
244 ,48.4271 ,1.47836 ,1.52045 ,14.91861 
245 ,48.6194 ,1.48022 ,1.51702 ,14.88503 
246 ,48.8115 ,1.48217 ,1.48965 ,14.61640 
247 ,49.0035 ,1.48408 ,1.49649 ,14.68356 
248 ,49.2118 ,1.48621 ,1.47253 ,14.44851 
249 ,49.4194 ,1.48825 ,1.45885 ,14.31420 
250 ,49.6118 ,1.49016 ,1.44174 ,14.14631 
251 ,49.8040 ,1.49207 ,1.42805 ,14.01199 
252 ,49.9956 ,1.49401 ,1.40751 ,13.81053 
253 ,50.1881 ,1.49593 ,1.39725 ,13.70979 
254 ,50.3802 ,1.49787 ,1.39725 ,13.70979 
255 ,50.5721 ,1.49977 ,1.35960 ,13.34043 
256 ,50.7804 ,1.50185 ,1.38014 ,13.54190 
257 ,50.9723 ,1.50376 ,1.34249 ,13.17254 
258 ,51.1645 ,1.50570 ,1.34934 ,13.23969 
259 ,51.3565 ,1.50759 ,1.31854 ,12.93749 
260 ,51.5646 ,1.50966 ,1.31512 ,12.90391 
261 ,51.7728 ,1.51165 ,1.27747 ,12.53455 
262 ,51.9808 ,1.51385 ,1.28089 ,12.56813 
263 ,52.1729 ,1.51576 ,1.26378 ,12.40024 
264 ,52.3808 ,1.51787 ,1.26378 ,12.40024 
265 ,52.5730 ,1.51976 ,1.21929 ,11.96372 
266 ,52.7651 ,1.52164 ,1.23298 ,12.09803 
267 ,52.9412 ,1.52354 ,1.21587 ,11.93014 
268 ,53.1329 ,1.52535 ,1.20218 ,11.79583 
269 ,53.3252 ,1.52723 ,1.20218 ,11.79583 
270 ,53.5173 ,1.52918 ,1.18165 ,11.59436 
271 ,53.7095 ,1.53113 ,1.15427 ,11.32573 
272 ,53.9173 ,1.53319 ,1.14401 ,11.22500 
273 ,54.1255 ,1.53529 ,1.15085 ,11.29215 
274 ,54.3178 ,1.53714 ,1.11663 ,10.95637 
275 ,54.5257 ,1.53927 ,1.12005 ,10.98995 
276 ,54.7178 ,1.54118 ,1.09952 ,10.78848 
277 ,54.9095 ,1.54313 ,1.07899 ,10.58701 
278 ,55.1019 ,1.54504 ,1.08583 ,10.65416 
279 ,55.2940 ,1.54696 ,1.05503 ,10.35196 
280 ,55.4860 ,1.54889 ,1.05845 ,10.38554 
281 ,55.6783 ,1.55084 ,1.03450 ,10.15049 
282 ,55.8863 ,1.55288 ,1.02423 ,10.04976 
283 ,56.0783 ,1.55479 ,1.01739 ,9.98260 
284 ,56.2864 ,1.55687 ,1.00370 ,9.84829 
285 ,56.4785 ,1.55880 ,0.97974 ,9.61324 
286 ,56.6705 ,1.56069 ,0.97632 ,9.57966 
287 ,56.9108 ,1.56300 ,0.94894 ,9.31103 
288 ,57.1024 ,1.56505 ,0.95921 ,9.41177 
289 ,57.2948 ,1.56693 ,0.92841 ,9.10956 
290 ,57.4868 ,1.56885 ,0.93525 ,9.17672 
291 ,57.6950 ,1.57098 ,0.89761 ,8.80736 
292 ,57.9030 ,1.57294 ,0.89419 ,8.77378 
293 ,58.0950 ,1.57498 ,0.88050 ,8.63947 
294 ,58.2873 ,1.57696 ,0.87366 ,8.57231 
295 ,58.4953 ,1.57891 ,0.84970 ,8.33726 
296 ,58.6873 ,1.58088 ,0.84628 ,8.30368 
297 ,58.8795 ,1.58280 ,0.82575 ,8.10221 
298 ,59.0877 ,1.58477 ,0.81206 ,7.96790 
299 ,59.2956 ,1.58691 ,0.79837 ,7.83359 
300 ,59.4878 ,1.58888 ,0.79837 ,7.83359 
301 ,59.7119 ,1.59108 ,0.78468 ,7.69927 
302 ,59.9039 ,1.59301 ,0.77441 ,7.59854 
303 ,60.0958 ,1.59495 ,0.74019 ,7.26276 
304 ,60.2877 ,1.59690 ,0.74019 ,7.26276 
305 ,60.4960 ,1.59891 ,0.71966 ,7.06129 
306 ,60.7042 ,1.60101 ,0.74361 ,7.29633 
307 ,60.8964 ,1.60296 ,0.69570 ,6.82624 
308 ,61.1044 ,1.60505 ,0.70255 ,6.89340 
309 ,61.2965 ,1.60696 ,0.67859 ,6.65835 
310 ,61.5045 ,1.60907 ,0.67517 ,6.62477 
311 ,61.7284 ,1.61115 ,0.64437 ,6.32256 
312 ,61.9367 ,1.61334 ,0.64095 ,6.28899 
313 ,62.1287 ,1.61529 ,0.62726 ,6.15467 
314 ,62.3210 ,1.61722 ,0.61699 ,6.05394 
315 ,62.5127 ,1.61913 ,0.60330 ,5.91962 
316 ,62.7051 ,1.62105 ,0.60330 ,5.91962 
317 ,62.8969 ,1.62294 ,0.58619 ,5.75173 
318 ,63.0893 ,1.62487 ,0.56566 ,5.55026 
319 ,63.2975 ,1.62685 ,0.56224 ,5.51668 
320 ,63.4894 ,1.62889 ,0.54513 ,5.34879 
321 ,63.6814 ,1.63087 ,0.51775 ,5.08017 
322 ,63.8736 ,1.63271 ,0.51775 ,5.08017 
323 ,64.0657 ,1.63463 ,0.52459 ,5.14732 
324 ,64.2577 ,1.63653 ,0.48695 ,4.77796 
325 ,64.4659 ,1.63867 ,0.49380 ,4.84512 
326 ,64.6735 ,1.64067 ,0.47668 ,4.67723 
327 ,64.8660 ,1.64261 ,0.47668 ,4.67723 
328 ,65.0742 ,1.64468 ,0.45273 ,4.44218 
329 ,65.2823 ,1.64667 ,0.45273 ,4.44218 
330 ,65.4903 ,1.64892 ,0.42877 ,4.20713 
331 ,65.6821 ,1.65084 ,0.42535 ,4.17355 
332 ,65.9385 ,1.65323 ,0.39113 ,3.83777 
333 ,66.1466 ,1.65545 ,0.39455 ,3.87135 
334 ,66.3386 ,1.65740 ,0.37402 ,3.66988 
335 ,66.5307 ,1.65930 ,0.36375 ,3.56914 
336 ,66.7228 ,1.66123 ,0.36375 ,3.56914 
337 ,66.9146 ,1.66313 ,0.32611 ,3.19978 
338 ,67.1068 ,1.66500 ,0.35006 ,3.43483 
339 ,67.2989 ,1.66692 ,0.32269 ,3.16620 
340 ,67.4910 ,1.66883 ,0.30900 ,3.03189 
341 ,67.6833 ,1.67083 ,0.31242 ,3.06547 
342 ,67.8751 ,1.67272 ,0.28504 ,2.79684 
343 ,68.0674 ,1.67463 ,0.29189 ,2.86400 
344 ,68.2752 ,1.67670 ,0.27135 ,2.66253 
345 ,68.4675 ,1.67862 ,0.27135 ,2.66253 
346 ,68.6752 ,1.68063 ,0.23371 ,2.29317 
347 ,68.8677 ,1.68265 ,0.24740 ,2.42748 
348 ,69.0593 ,1.68457 ,0.21660 ,2.12528 
349 ,69.2519 ,1.68647 ,0.21318 ,2.09170 
350 ,69.4438 ,1.68842 ,0.20633 ,2.02454 
351 ,69.6361 ,1.69031 ,0.18238 ,1.78949 
352 ,69.8440 ,1.69244 ,0.18922 ,1.85665 
353 ,70.0359 ,1.69429 ,0.16185 ,1.58802 
354 ,70.2121 ,1.69622 ,0.17553 ,1.72234 
355 ,70.4042 ,1.69798 ,0.15500 ,1.52087 
356 ,70.5963 ,1.69987 ,0.13789 ,1.35298 
357 ,70.7885 ,1.70187 ,0.14131 ,1.38655 
358 ,70.9804 ,1.70374 ,0.11051 ,1.08435 
359 ,71.1885 ,1.70572 ,0.10367 ,1.01719 
360 ,71.3966 ,1.70788 ,0.08998 ,0.88288 
361 ,71.6049 ,1.70998 ,0.09682 ,0.95004 
362 ,71.7969 ,1.71190 ,0.06602 ,0.64783 
363 ,71.9890 ,1.71385 ,0.06602 ,0.64783 
364 ,72.1970 ,1.71589 ,0.04891 ,0.47994 
365 ,72.4049 ,1.71796 ,0.05234 ,0.51352 
366 ,72.5971 ,1.71990 ,0.02496 ,0.24489 
367 ,72.8050 ,1.72201 ,0.03180 ,0.31205 
368 ,72.9973 ,1.72397 ,0.00100 ,0.00984 
369 ,73.1895 ,1.72585 ,0.00443 ,0.04342 
370 ,73.3812 ,1.72776 ,-0.00584 ,-0.05731 
371 ,73.5732 ,1.72973 ,-0.01611 ,-0.15805 
372 ,73.7657 ,1.73159 ,-0.01953 ,-0.19163 
373 ,73.9577 ,1.73347 ,-0.06060 ,-0.59457 
374 ,74.1498 ,1.73542 ,-0.03664 ,-0.35952 
375 ,74.3580 ,1.73748 ,-0.05033 ,-0.49383 
376 ,74.5502 ,1.73943 ,-0.05717 ,-0.56099 
377 ,74.7740 ,1.74159 ,-0.08797 ,-0.86319 
378 ,74.9823 ,1.74375 ,-0.09824 ,-0.96393 
379 ,75.1903 ,1.74583 ,-0.10166 ,-0.99751 
380 ,75.3824 ,1.74780 ,-0.11877 ,-1.16540 
381 ,75.5901 ,1.74983 ,-0.11535 ,-1.13182 
382 ,75.7985 ,1.75182 ,-0.13588 ,-1.33329 
383 ,75.9905 ,1.75386 ,-0.13246 ,-1.29971 
384 ,76.1985 ,1.75590 ,-0.15984 ,-1.56834 
385 ,76.3905 ,1.75783 ,-0.15642 ,-1.53476 
386 ,76.5988 ,1.75991 ,-0.17011 ,-1.66907 
387 ,76.7907 ,1.76185 ,-0.18037 ,-1.76981 
388 ,76.9990 ,1.76392 ,-0.20775 ,-2.03843 
389 ,77.1911 ,1.76587 ,-0.19748 ,-1.93770 
390 ,77.3832 ,1.76778 ,-0.22486 ,-2.20632 
391 ,77.5749 ,1.76969 ,-0.22144 ,-2.17275 
392 ,77.7510 ,1.77157 ,-0.22144 ,-2.17275 
393 ,77.9431 ,1.77332 ,-0.24881 ,-2.44137 
394 ,78.1355 ,1.77523 ,-0.25908 ,-2.54211 
395 ,78.3273 ,1.77720 ,-0.24881 ,-2.44137 
396 ,78.5354 ,1.77927 ,-0.27619 ,-2.71000 
397 ,78.7277 ,1.78124 ,-0.27277 ,-2.67642 
398 ,78.9356 ,1.78326 ,-0.28646 ,-2.81073 
399 ,79.1439 ,1.78530 ,-0.31384 ,-3.07936 
400 ,79.3521 ,1.78740 ,-0.30015 ,-2.94505 
401 ,79.5441 ,1.78937 ,-0.31041 ,-3.04578 
402 ,79.7356 ,1.79129 ,-0.33779 ,-3.31441 
403 ,79.9276 ,1.79319 ,-0.33437 ,-3.28083 
404 ,80.1202 ,1.79510 ,-0.36175 ,-3.54946 
405 ,80.3122 ,1.79706 ,-0.33779 ,-3.31441 
406 ,80.5043 ,1.79893 ,-0.37886 ,-3.71735 
407 ,80.6962 ,1.80084 ,-0.38228 ,-3.75093 
408 ,80.8885 ,1.80282 ,-0.36859 ,-3.61661 
409 ,81.0804 ,1.80472 ,-0.41308 ,-4.05313 
410 ,81.2723 ,1.80660 ,-0.40623 ,-3.98597 
411 ,81.4643 ,1.80856 ,-0.41992 ,-4.12029 
412 ,81.6884 ,1.81069 ,-0.41650 ,-4.08671 
413 ,81.9290 ,1.81313 ,-0.42335 ,-4.15387 
414 ,82.1368 ,1.81525 ,-0.45072 ,-4.42249 
415 ,82.3451 ,1.81734 ,-0.46441 ,-4.55681 
416 ,82.5372 ,1.81932 ,-0.47126 ,-4.62396 
417 ,82.7293 ,1.82120 ,-0.47126 ,-4.62396 
418 ,82.9212 ,1.82318 ,-0.49521 ,-4.85901 
419 ,83.1132 ,1.82501 ,-0.48152 ,-4.72470 
420 ,83.3054 ,1.82693 ,-0.50206 ,-4.92617 
421 ,83.5135 ,1.82900 ,-0.50548 ,-4.95975 
422 ,83.7053 ,1.83098 ,-0.52259 ,-5.12764 
423 ,83.8977 ,1.83286 ,-0.54312 ,-5.32911 
424 ,84.1055 ,1.83493 ,-0.54312 ,-5.32911 
425 ,84.2977 ,1.83684 ,-0.55339 ,-5.42984 
426 ,84.4897 ,1.83881 ,-0.55339 ,-5.42984 
427 ,84.6822 ,1.84072 ,-0.57734 ,-5.66489 
428 ,84.8901 ,1.84283 ,-0.57050 ,-5.59773 
429 ,85.0982 ,1.84489 ,-0.59103 ,-5.79920 
430 ,85.2899 ,1.84685 ,-0.59788 ,-5.86636 
431 ,85.4984 ,1.84876 ,-0.62183 ,-6.10141 
432 ,85.7064 ,1.85091 ,-0.61499 ,-6.03425 
433 ,85.8984 ,1.85289 ,-0.62868 ,-6.16856 
434 ,86.0905 ,1.85481 ,-0.62868 ,-6.16856 
435 ,86.2828 ,1.85674 ,-0.65947 ,-6.47077 
436 ,86.4743 ,1.85869 ,-0.64921 ,-6.37003 
437 ,86.6668 ,1.86053 ,-0.66632 ,-6.53793 
438 ,86.8429 ,1.86248 ,-0.67659 ,-6.63866 
439 ,87.0351 ,1.86426 ,-0.66974 ,-6.57150 
440 ,87.2271 ,1.86621 ,-0.68343 ,-6.70582 
441 ,87.4192 ,1.86812 ,-0.69370 ,-6.80655 
442 ,87.6113 ,1.87004 ,-0.70054 ,-6.87371 
443 ,87.8193 ,1.87208 ,-0.70396 ,-6.90729 
444 ,88.0113 ,1.87402 ,-0.70739 ,-6.94086 
445 ,88.2035 ,1.87589 ,-0.74503 ,-7.31023 
446 ,88.3955 ,1.87784 ,-0.73476 ,-7.20949 
447 ,88.5872 ,1.87980 ,-0.75187 ,-7.37738 
448 ,88.7797 ,1.88170 ,-0.75872 ,-7.44454 
449 ,88.9878 ,1.88376 ,-0.76214 ,-7.47812 
450 ,89.2121 ,1.88590 ,-0.77241 ,-7.57885 
451 ,89.4199 ,1.88805 ,-0.77583 ,-7.61243 
452 ,89.6117 ,1.88997 ,-0.78952 ,-7.74674 
453 ,89.8036 ,1.89188 ,-0.81347 ,-7.98179 
454 ,89.9957 ,1.89379 ,-0.79636 ,-7.81390 
455 ,90.1880 ,1.89580 ,-0.82716 ,-8.11611 
456 ,90.3963 ,1.89785 ,-0.81347 ,-7.98179 
457 ,90.5885 ,1.89984 ,-0.82374 ,-8.08253 
458 ,90.7961 ,1.90182 ,-0.83743 ,-8.21684 
459 ,90.9883 ,1.90380 ,-0.85112 ,-8.35115 
460 ,91.1805 ,1.90573 ,-0.86481 ,-8.48547 
461 ,91.3728 ,1.90758 ,-0.86481 ,-8.48547 
462 ,91.5649 ,1.90947 ,-0.89218 ,-8.75409 
463 ,91.7889 ,1.91166 ,-0.88192 ,-8.65336 
