Data stamp = , 01-05-2022 13:04:55 917

Calibration Values: 
Slope = , 26.54 , g/V 
Offset Voltage at no contact = , -0.501760 , V 

No , Time , Stage Position ,   Mass , Force 
   ,  (s) ,      (mm)      ,   (g)  , (mN)  

1 ,0.0000 ,0.99948 ,5.40803 ,53.06356 
2 ,0.2277 ,0.99956 ,5.42172 ,53.19787 
3 ,0.9163 ,1.00246 ,5.40118 ,52.99640 
4 ,1.1244 ,1.00548 ,5.39776 ,52.96282 
5 ,1.3163 ,1.00736 ,5.43198 ,53.29861 
6 ,1.5245 ,1.00943 ,5.38065 ,52.79493 
7 ,1.7164 ,1.01137 ,5.37038 ,52.69420 
8 ,1.9085 ,1.01331 ,5.34985 ,52.49273 
9 ,2.1006 ,1.01523 ,5.32589 ,52.25768 
10 ,2.3088 ,1.01732 ,5.31221 ,52.12337 
11 ,2.5012 ,1.01924 ,5.29510 ,51.95548 
12 ,2.6932 ,1.02116 ,5.27798 ,51.78758 
13 ,2.8858 ,1.02309 ,5.25403 ,51.55254 
14 ,3.0769 ,1.02506 ,5.24376 ,51.45180 
15 ,3.2854 ,1.02704 ,5.20954 ,51.11602 
16 ,3.4773 ,1.02901 ,5.19927 ,51.01528 
17 ,3.6697 ,1.03091 ,5.17532 ,50.78023 
18 ,3.8616 ,1.03287 ,5.15479 ,50.57876 
19 ,4.0532 ,1.03475 ,5.15821 ,50.61234 
20 ,4.2454 ,1.03667 ,5.11030 ,50.14225 
21 ,4.4374 ,1.03857 ,5.11372 ,50.17583 
22 ,4.6618 ,1.04067 ,5.07608 ,49.80646 
23 ,4.8701 ,1.04294 ,5.07265 ,49.77289 
24 ,5.0622 ,1.04483 ,5.02817 ,49.33637 
25 ,5.2701 ,1.04698 ,5.02474 ,49.30279 
26 ,5.4783 ,1.04902 ,5.00079 ,49.06774 
27 ,5.6704 ,1.05091 ,4.98710 ,48.93343 
28 ,5.8784 ,1.05300 ,4.97341 ,48.79911 
29 ,6.0705 ,1.05492 ,4.94603 ,48.53049 
30 ,6.2784 ,1.05703 ,4.93235 ,48.39618 
31 ,6.4706 ,1.05886 ,4.91523 ,48.22828 
32 ,6.6626 ,1.06085 ,4.87075 ,47.79177 
33 ,6.8546 ,1.06279 ,4.88101 ,47.89250 
34 ,7.0467 ,1.06473 ,4.84337 ,47.52314 
35 ,7.2388 ,1.06655 ,4.85706 ,47.65745 
36 ,7.4310 ,1.06851 ,4.80915 ,47.18736 
37 ,7.6391 ,1.07062 ,4.81257 ,47.22093 
38 ,7.8468 ,1.07269 ,4.78177 ,46.91873 
39 ,8.0391 ,1.07458 ,4.77150 ,46.81800 
40 ,8.2469 ,1.07668 ,4.73044 ,46.41506 
41 ,8.4389 ,1.07861 ,4.73044 ,46.41506 
42 ,8.6633 ,1.08075 ,4.69964 ,46.11285 
43 ,8.8716 ,1.08280 ,4.69622 ,46.07927 
44 ,9.0636 ,1.08496 ,4.67226 ,45.84422 
45 ,9.2554 ,1.08678 ,4.66542 ,45.77707 
46 ,9.4475 ,1.08868 ,4.62777 ,45.40771 
47 ,9.6720 ,1.09082 ,4.63119 ,45.44128 
48 ,9.8805 ,1.09306 ,4.60382 ,45.17266 
49 ,10.0721 ,1.09493 ,4.57986 ,44.93761 
50 ,10.2802 ,1.09704 ,4.56275 ,44.76972 
51 ,10.4722 ,1.09887 ,4.54564 ,44.60183 
52 ,10.6643 ,1.10079 ,4.51484 ,44.29962 
53 ,10.8564 ,1.10280 ,4.51484 ,44.29962 
54 ,11.0645 ,1.10480 ,4.48404 ,43.99742 
55 ,11.2562 ,1.10682 ,4.48062 ,43.96384 
56 ,11.4645 ,1.10881 ,4.45666 ,43.72879 
57 ,11.6564 ,1.11073 ,4.44298 ,43.59448 
58 ,11.8487 ,1.11271 ,4.40875 ,43.25870 
59 ,12.0566 ,1.11474 ,4.41218 ,43.29227 
60 ,12.2489 ,1.11665 ,4.37453 ,42.92291 
61 ,12.4410 ,1.11859 ,4.36769 ,42.85576 
62 ,12.6490 ,1.12067 ,4.34031 ,42.58713 
63 ,12.8251 ,1.12257 ,4.34031 ,42.58713 
64 ,13.0172 ,1.12431 ,4.32320 ,42.41924 
65 ,13.2093 ,1.12625 ,4.29240 ,42.11703 
66 ,13.4172 ,1.12835 ,4.29582 ,42.15061 
67 ,13.6094 ,1.13031 ,4.25476 ,41.74767 
68 ,13.8173 ,1.13236 ,4.25476 ,41.74767 
69 ,14.0097 ,1.13428 ,4.21027 ,41.31115 
70 ,14.2175 ,1.13637 ,4.21369 ,41.34473 
71 ,14.4098 ,1.13829 ,4.18631 ,41.07611 
72 ,14.6180 ,1.14035 ,4.17947 ,41.00895 
73 ,14.8099 ,1.14227 ,4.14867 ,40.70674 
74 ,15.0019 ,1.14420 ,4.15209 ,40.74032 
75 ,15.2262 ,1.14646 ,4.12129 ,40.43812 
76 ,15.4343 ,1.14854 ,4.11787 ,40.40454 
77 ,15.6264 ,1.15046 ,4.08365 ,40.06876 
78 ,15.8344 ,1.15252 ,4.05969 ,39.83371 
79 ,16.0261 ,1.15440 ,4.04258 ,39.66582 
80 ,16.2346 ,1.15644 ,4.03574 ,39.59866 
81 ,16.4585 ,1.15870 ,4.02889 ,39.53150 
82 ,16.6508 ,1.16068 ,3.98783 ,39.12856 
83 ,16.8588 ,1.16275 ,3.97414 ,38.99425 
84 ,17.0509 ,1.16473 ,3.95361 ,38.79278 
85 ,17.2591 ,1.16674 ,3.95018 ,38.75920 
86 ,17.4671 ,1.16884 ,3.92281 ,38.49058 
87 ,17.6589 ,1.17081 ,3.90912 ,38.35626 
88 ,17.8673 ,1.17281 ,3.88174 ,38.08764 
89 ,18.0593 ,1.17475 ,3.87147 ,37.98690 
90 ,18.2513 ,1.17666 ,3.84752 ,37.75185 
91 ,18.4435 ,1.17865 ,3.85094 ,37.78543 
92 ,18.6355 ,1.18053 ,3.82356 ,37.51681 
93 ,18.8277 ,1.18246 ,3.80645 ,37.34891 
94 ,19.0198 ,1.18444 ,3.78592 ,37.14744 
95 ,19.2119 ,1.18629 ,3.77565 ,37.04671 
96 ,19.4199 ,1.18829 ,3.76196 ,36.91240 
97 ,19.6276 ,1.19047 ,3.72432 ,36.54303 
98 ,19.8200 ,1.19231 ,3.72090 ,36.50946 
99 ,20.0122 ,1.19429 ,3.69694 ,36.27441 
100 ,20.2040 ,1.19625 ,3.69694 ,36.27441 
101 ,20.4122 ,1.19829 ,3.65246 ,35.83789 
102 ,20.6043 ,1.20018 ,3.66614 ,35.97220 
103 ,20.7965 ,1.20212 ,3.62166 ,35.53569 
104 ,20.9885 ,1.20406 ,3.61481 ,35.46853 
105 ,21.2128 ,1.20619 ,3.58743 ,35.19990 
106 ,21.4206 ,1.20840 ,3.58401 ,35.16632 
107 ,21.6288 ,1.21041 ,3.56690 ,34.99843 
108 ,21.8372 ,1.21251 ,3.54979 ,34.83054 
109 ,22.0290 ,1.21442 ,3.52926 ,34.62907 
110 ,22.2368 ,1.21652 ,3.51557 ,34.49476 
111 ,22.4292 ,1.21846 ,3.49161 ,34.25971 
112 ,22.6371 ,1.22054 ,3.47108 ,34.05824 
113 ,22.8454 ,1.22263 ,3.46766 ,34.02466 
114 ,23.0373 ,1.22449 ,3.44028 ,33.75604 
115 ,23.2455 ,1.22665 ,3.44028 ,33.75604 
116 ,23.4377 ,1.22853 ,3.40264 ,33.38667 
117 ,23.6454 ,1.23060 ,3.38895 ,33.25236 
118 ,23.8378 ,1.23255 ,3.38553 ,33.21878 
119 ,24.0458 ,1.23459 ,3.37526 ,33.11805 
120 ,24.2376 ,1.23649 ,3.34446 ,32.81584 
121 ,24.4300 ,1.23846 ,3.34104 ,32.78227 
122 ,24.6380 ,1.24054 ,3.29997 ,32.37933 
123 ,24.8142 ,1.24238 ,3.30339 ,32.41290 
124 ,25.0064 ,1.24420 ,3.29313 ,32.31217 
125 ,25.2143 ,1.24633 ,3.24522 ,31.84207 
126 ,25.4225 ,1.24838 ,3.24864 ,31.87565 
127 ,25.6304 ,1.25045 ,3.23495 ,31.74134 
128 ,25.8222 ,1.25240 ,3.20757 ,31.47271 
129 ,26.0144 ,1.25430 ,3.19388 ,31.33840 
130 ,26.2067 ,1.25618 ,3.18704 ,31.27124 
131 ,26.3987 ,1.25809 ,3.16309 ,31.03619 
132 ,26.6068 ,1.26023 ,3.14940 ,30.90188 
133 ,26.7991 ,1.26216 ,3.12886 ,30.70041 
134 ,27.0070 ,1.26421 ,3.12544 ,30.66683 
135 ,27.1992 ,1.26611 ,3.09464 ,30.36463 
136 ,27.3918 ,1.26809 ,3.08438 ,30.26389 
137 ,27.5833 ,1.26998 ,3.07069 ,30.12958 
138 ,27.7755 ,1.27189 ,3.05015 ,29.92811 
139 ,27.9673 ,1.27385 ,3.05015 ,29.92811 
140 ,28.1756 ,1.27592 ,3.01593 ,29.59233 
141 ,28.3843 ,1.27797 ,3.00567 ,29.49159 
142 ,28.5758 ,1.27988 ,2.97487 ,29.18939 
143 ,28.7679 ,1.28182 ,2.98513 ,29.29012 
144 ,28.9600 ,1.28373 ,2.94749 ,28.92076 
145 ,29.1518 ,1.28562 ,2.93722 ,28.82003 
146 ,29.3602 ,1.28762 ,2.93380 ,28.78645 
147 ,29.5682 ,1.28975 ,2.91669 ,28.61856 
148 ,29.7603 ,1.29173 ,2.89273 ,28.38351 
149 ,29.9523 ,1.29362 ,2.88931 ,28.34993 
150 ,30.1444 ,1.29552 ,2.86193 ,28.08130 
151 ,30.3526 ,1.29763 ,2.82771 ,27.74552 
152 ,30.5606 ,1.29973 ,2.82429 ,27.71194 
153 ,30.7368 ,1.30166 ,2.81745 ,27.64479 
154 ,30.9448 ,1.30354 ,2.79349 ,27.40974 
155 ,31.1369 ,1.30547 ,2.77980 ,27.27542 
156 ,31.3445 ,1.30757 ,2.76611 ,27.14111 
157 ,31.5370 ,1.30947 ,2.74558 ,26.93964 
158 ,31.7450 ,1.31158 ,2.75243 ,27.00680 
159 ,31.9371 ,1.31345 ,2.72163 ,26.70459 
160 ,32.1613 ,1.31563 ,2.72163 ,26.70459 
161 ,32.3528 ,1.31763 ,2.68740 ,26.36881 
162 ,32.5453 ,1.31960 ,2.67714 ,26.26807 
163 ,32.7533 ,1.32165 ,2.65318 ,26.03303 
164 ,32.9456 ,1.32358 ,2.65318 ,26.03303 
165 ,33.1536 ,1.32563 ,2.62923 ,25.79798 
166 ,33.3613 ,1.32773 ,2.60869 ,25.59651 
167 ,33.5536 ,1.32958 ,2.59843 ,25.49577 
168 ,33.7457 ,1.33155 ,2.57789 ,25.29430 
169 ,33.9379 ,1.33356 ,2.55736 ,25.09283 
170 ,34.1621 ,1.33562 ,2.57105 ,25.22715 
171 ,34.3702 ,1.33785 ,2.53683 ,24.89136 
172 ,34.5617 ,1.33981 ,2.50603 ,24.58916 
173 ,34.7543 ,1.34165 ,2.49918 ,24.52200 
174 ,34.9464 ,1.34355 ,2.48892 ,24.42127 
175 ,35.1383 ,1.34546 ,2.45127 ,24.05191 
176 ,35.3306 ,1.34738 ,2.46154 ,24.15264 
177 ,35.5383 ,1.34943 ,2.42390 ,23.78328 
178 ,35.7307 ,1.35139 ,2.43074 ,23.85044 
179 ,35.9227 ,1.35337 ,2.40679 ,23.61539 
180 ,36.1149 ,1.35521 ,2.39652 ,23.51465 
181 ,36.3066 ,1.35717 ,2.38968 ,23.44750 
182 ,36.4991 ,1.35910 ,2.35888 ,23.14529 
183 ,36.7227 ,1.36131 ,2.34519 ,23.01098 
184 ,36.9152 ,1.36322 ,2.32123 ,22.77593 
185 ,37.1074 ,1.36515 ,2.33150 ,22.87667 
186 ,37.3154 ,1.36727 ,2.29728 ,22.54088 
187 ,37.5074 ,1.36918 ,2.27332 ,22.30584 
188 ,37.7154 ,1.37121 ,2.28359 ,22.40657 
189 ,37.9072 ,1.37312 ,2.27674 ,22.33941 
190 ,38.1154 ,1.37523 ,2.25279 ,22.10437 
191 ,38.3235 ,1.37730 ,2.23568 ,21.93647 
192 ,38.5159 ,1.37924 ,2.21172 ,21.70143 
193 ,38.7239 ,1.38138 ,2.18777 ,21.46638 
194 ,38.9155 ,1.38335 ,2.18777 ,21.46638 
195 ,39.1079 ,1.38516 ,2.18435 ,21.43280 
196 ,39.3002 ,1.38707 ,2.15012 ,21.09702 
197 ,39.4923 ,1.38902 ,2.14670 ,21.06344 
198 ,39.7003 ,1.39111 ,2.11932 ,20.79481 
199 ,39.8928 ,1.39304 ,2.12275 ,20.82839 
200 ,40.1005 ,1.39511 ,2.09195 ,20.52619 
201 ,40.3084 ,1.39715 ,2.08510 ,20.45903 
202 ,40.5007 ,1.39908 ,2.05088 ,20.12325 
203 ,40.6926 ,1.40105 ,2.06799 ,20.29114 
204 ,40.8847 ,1.40293 ,2.03035 ,19.92178 
205 ,41.0604 ,1.40481 ,2.03035 ,19.92178 
206 ,41.2525 ,1.40661 ,2.02350 ,19.85462 
207 ,41.4445 ,1.40851 ,1.98928 ,19.51884 
208 ,41.6369 ,1.41045 ,1.98928 ,19.51884 
209 ,41.8291 ,1.41233 ,1.97559 ,19.38452 
210 ,42.0530 ,1.41453 ,1.96533 ,19.28379 
211 ,42.2613 ,1.41663 ,1.93453 ,18.98158 
212 ,42.4695 ,1.41870 ,1.92426 ,18.88085 
213 ,42.6615 ,1.42068 ,1.90031 ,18.64580 
214 ,42.8534 ,1.42265 ,1.91742 ,18.81369 
215 ,43.0617 ,1.42472 ,1.86951 ,18.34360 
216 ,43.2694 ,1.42679 ,1.87293 ,18.37717 
217 ,43.4619 ,1.42868 ,1.84555 ,18.10855 
218 ,43.6538 ,1.43063 ,1.84897 ,18.14213 
219 ,43.8461 ,1.43252 ,1.82160 ,17.87350 
220 ,44.0379 ,1.43444 ,1.81817 ,17.83992 
221 ,44.2303 ,1.43641 ,1.80449 ,17.70561 
222 ,44.4223 ,1.43829 ,1.78053 ,17.47056 
223 ,44.6144 ,1.44023 ,1.78053 ,17.47056 
224 ,44.8225 ,1.44231 ,1.74973 ,17.16836 
225 ,45.0146 ,1.44422 ,1.75315 ,17.20193 
226 ,45.2707 ,1.44665 ,1.72578 ,16.93331 
227 ,45.4623 ,1.44883 ,1.71551 ,16.83257 
228 ,45.6547 ,1.45063 ,1.71209 ,16.79899 
229 ,45.8629 ,1.45275 ,1.67786 ,16.46321 
230 ,46.0549 ,1.45463 ,1.69155 ,16.59752 
231 ,46.2468 ,1.45649 ,1.66075 ,16.29532 
232 ,46.4388 ,1.45852 ,1.65733 ,16.26174 
233 ,46.6471 ,1.46050 ,1.63338 ,16.02669 
234 ,46.8551 ,1.46261 ,1.62311 ,15.92596 
235 ,47.0473 ,1.46455 ,1.59916 ,15.69091 
236 ,47.2393 ,1.46646 ,1.58889 ,15.59018 
237 ,47.4313 ,1.46839 ,1.57862 ,15.48944 
238 ,47.6233 ,1.47038 ,1.57178 ,15.42228 
239 ,47.8158 ,1.47222 ,1.56836 ,15.38871 
240 ,48.0237 ,1.47429 ,1.53413 ,15.05292 
241 ,48.2637 ,1.47665 ,1.51018 ,14.81787 
242 ,48.4555 ,1.47860 ,1.51360 ,14.85145 
243 ,48.6477 ,1.48053 ,1.48965 ,14.61640 
244 ,48.8561 ,1.48266 ,1.49307 ,14.64998 
245 ,49.0642 ,1.48471 ,1.45200 ,14.24704 
246 ,49.2723 ,1.48674 ,1.45885 ,14.31420 
247 ,49.4643 ,1.48866 ,1.44174 ,14.14631 
248 ,49.6563 ,1.49064 ,1.43147 ,14.04557 
249 ,49.8482 ,1.49267 ,1.41094 ,13.84410 
250 ,50.0405 ,1.49446 ,1.40067 ,13.74337 
251 ,50.2326 ,1.49636 ,1.39383 ,13.67621 
252 ,50.4247 ,1.49829 ,1.36645 ,13.40759 
253 ,50.6168 ,1.50022 ,1.36645 ,13.40759 
254 ,50.8247 ,1.50232 ,1.34249 ,13.17254 
255 ,51.0169 ,1.50424 ,1.34591 ,13.20612 
256 ,51.4487 ,1.50840 ,1.30827 ,12.83675 
257 ,51.6412 ,1.51045 ,1.29116 ,12.66886 
258 ,51.8491 ,1.51251 ,1.28774 ,12.63528 
259 ,52.0413 ,1.51443 ,1.27063 ,12.46739 
260 ,52.2334 ,1.51635 ,1.26378 ,12.40024 
261 ,52.4415 ,1.51837 ,1.22956 ,12.06445 
262 ,52.6492 ,1.52052 ,1.22614 ,12.03088 
263 ,52.8417 ,1.52246 ,1.21245 ,11.89656 
264 ,53.0335 ,1.52440 ,1.20218 ,11.79583 
265 ,53.2417 ,1.52645 ,1.18507 ,11.62794 
266 ,53.4499 ,1.52851 ,1.17823 ,11.56078 
267 ,53.6579 ,1.53058 ,1.16796 ,11.46004 
268 ,53.8500 ,1.53252 ,1.14058 ,11.19142 
269 ,54.0580 ,1.53466 ,1.14401 ,11.22500 
270 ,54.2500 ,1.53653 ,1.11321 ,10.92279 
271 ,54.4423 ,1.53846 ,1.10294 ,10.82206 
272 ,54.6344 ,1.54036 ,1.09952 ,10.78848 
273 ,54.8267 ,1.54233 ,1.07556 ,10.55343 
274 ,55.0506 ,1.54459 ,1.06187 ,10.41912 
275 ,55.2422 ,1.54648 ,1.07214 ,10.51985 
276 ,55.4503 ,1.54848 ,1.02765 ,10.08333 
277 ,55.6426 ,1.55048 ,1.03792 ,10.18407 
278 ,55.8670 ,1.55268 ,1.00712 ,9.88186 
279 ,56.0590 ,1.55463 ,1.00370 ,9.84829 
280 ,56.2509 ,1.55651 ,0.97974 ,9.61324 
281 ,56.4432 ,1.55846 ,0.97290 ,9.54608 
282 ,56.6512 ,1.56047 ,0.95579 ,9.37819 
283 ,56.8433 ,1.56250 ,0.95579 ,9.37819 
284 ,57.0514 ,1.56453 ,0.92841 ,9.10956 
285 ,57.2435 ,1.56644 ,0.92499 ,9.07598 
286 ,57.4511 ,1.56853 ,0.89761 ,8.80736 
287 ,57.6437 ,1.57043 ,0.88734 ,8.70662 
288 ,57.8518 ,1.57253 ,0.88050 ,8.63947 
289 ,58.0596 ,1.57458 ,0.88050 ,8.63947 
290 ,58.2520 ,1.57655 ,0.85997 ,8.43800 
291 ,58.4437 ,1.57845 ,0.84970 ,8.33726 
292 ,58.6361 ,1.58034 ,0.83601 ,8.20295 
293 ,58.8603 ,1.58254 ,0.81890 ,8.03506 
294 ,59.0682 ,1.58467 ,0.80521 ,7.90074 
295 ,59.2604 ,1.58662 ,0.80863 ,7.93432 
296 ,59.4682 ,1.58869 ,0.76415 ,7.49780 
297 ,59.6925 ,1.59079 ,0.76072 ,7.46423 
298 ,59.9007 ,1.59302 ,0.76757 ,7.53138 
299 ,60.0927 ,1.59495 ,0.74019 ,7.26276 
300 ,60.2849 ,1.59685 ,0.72992 ,7.16202 
301 ,60.4770 ,1.59876 ,0.72650 ,7.12844 
302 ,60.6525 ,1.60064 ,0.70597 ,6.92697 
303 ,60.8449 ,1.60245 ,0.69228 ,6.79266 
304 ,61.0529 ,1.60459 ,0.67859 ,6.65835 
305 ,61.2450 ,1.60650 ,0.67859 ,6.65835 
306 ,61.4372 ,1.60835 ,0.67517 ,6.62477 
307 ,61.6130 ,1.61025 ,0.63753 ,6.25541 
308 ,61.8051 ,1.61203 ,0.64779 ,6.35614 
309 ,61.9973 ,1.61394 ,0.63068 ,6.18825 
310 ,62.1897 ,1.61592 ,0.61357 ,6.02036 
311 ,62.3822 ,1.61787 ,0.60673 ,5.95320 
312 ,62.5738 ,1.61978 ,0.59988 ,5.88605 
313 ,62.7818 ,1.62185 ,0.58962 ,5.78531 
314 ,62.9899 ,1.62392 ,0.55197 ,5.41595 
315 ,63.2141 ,1.62605 ,0.55539 ,5.44953 
316 ,63.4218 ,1.62825 ,0.55539 ,5.44953 
317 ,63.6139 ,1.63016 ,0.52117 ,5.11375 
318 ,63.8220 ,1.63217 ,0.53828 ,5.28164 
319 ,64.0140 ,1.63414 ,0.50748 ,4.97943 
320 ,64.2061 ,1.63599 ,0.50406 ,4.94585 
321 ,64.3827 ,1.63794 ,0.48011 ,4.71081 
322 ,64.5744 ,1.63975 ,0.46300 ,4.54291 
323 ,64.7827 ,1.64182 ,0.46984 ,4.61007 
324 ,64.9746 ,1.64377 ,0.44588 ,4.37502 
325 ,65.1663 ,1.64565 ,0.44246 ,4.34144 
326 ,65.3583 ,1.64761 ,0.43562 ,4.27429 
327 ,65.5503 ,1.64955 ,0.41509 ,4.07282 
328 ,65.7425 ,1.65143 ,0.41851 ,4.10640 
329 ,65.9349 ,1.65336 ,0.38771 ,3.80419 
330 ,66.1427 ,1.65540 ,0.38771 ,3.80419 
331 ,66.3510 ,1.65739 ,0.36033 ,3.53557 
332 ,66.5429 ,1.65943 ,0.37060 ,3.63630 
333 ,66.7354 ,1.66131 ,0.35006 ,3.43483 
334 ,66.9272 ,1.66326 ,0.33638 ,3.30052 
335 ,67.1195 ,1.66520 ,0.33638 ,3.30052 
336 ,67.3273 ,1.66727 ,0.31584 ,3.09905 
337 ,67.5355 ,1.66931 ,0.29531 ,2.89758 
338 ,67.7279 ,1.67123 ,0.30215 ,2.96473 
339 ,67.9358 ,1.67333 ,0.27820 ,2.72969 
340 ,68.1278 ,1.67527 ,0.26109 ,2.56179 
341 ,68.3035 ,1.67708 ,0.26451 ,2.59537 
342 ,68.4959 ,1.67896 ,0.23371 ,2.29317 
343 ,68.7041 ,1.68103 ,0.24740 ,2.42748 
344 ,68.9123 ,1.68313 ,0.21660 ,2.12528 
345 ,69.1041 ,1.68507 ,0.22687 ,2.22601 
346 ,69.2964 ,1.68695 ,0.19949 ,1.95738 
347 ,69.4882 ,1.68887 ,0.19607 ,1.92381 
348 ,69.6806 ,1.69079 ,0.18580 ,1.82307 
349 ,69.8727 ,1.69269 ,0.16527 ,1.62160 
350 ,70.0647 ,1.69461 ,0.16869 ,1.65518 
351 ,70.2566 ,1.69655 ,0.14473 ,1.42013 
352 ,70.4649 ,1.69853 ,0.13789 ,1.35298 
353 ,70.6890 ,1.70073 ,0.11736 ,1.15151 
354 ,70.8969 ,1.70292 ,0.12078 ,1.18508 
355 ,71.0892 ,1.70487 ,0.10367 ,1.01719 
356 ,71.2973 ,1.70694 ,0.07971 ,0.78214 
357 ,71.4892 ,1.70888 ,0.09340 ,0.91646 
358 ,71.6813 ,1.71079 ,0.06945 ,0.68141 
359 ,71.8736 ,1.71267 ,0.05234 ,0.51352 
360 ,72.0492 ,1.71455 ,0.06945 ,0.68141 
361 ,72.2417 ,1.71640 ,0.05576 ,0.54710 
362 ,72.4496 ,1.71843 ,0.03522 ,0.34563 
363 ,72.6416 ,1.72038 ,0.03865 ,0.37920 
364 ,72.8496 ,1.72247 ,0.00443 ,0.04342 
365 ,73.0419 ,1.72439 ,0.01811 ,0.17773 
366 ,73.2341 ,1.72631 ,-0.01269 ,-0.12447 
367 ,73.4419 ,1.72840 ,0.00443 ,0.04342 
368 ,73.6342 ,1.73032 ,-0.03322 ,-0.32594 
369 ,73.8258 ,1.73223 ,-0.02980 ,-0.29236 
370 ,74.0183 ,1.73413 ,-0.04006 ,-0.39310 
371 ,74.1943 ,1.73604 ,-0.04691 ,-0.46025 
372 ,74.3865 ,1.73779 ,-0.04691 ,-0.46025 
373 ,74.5785 ,1.73972 ,-0.08455 ,-0.82961 
374 ,74.7704 ,1.74169 ,-0.08113 ,-0.79604 
375 ,74.9625 ,1.74359 ,-0.08455 ,-0.82961 
376 ,75.1709 ,1.74555 ,-0.10851 ,-1.06466 
377 ,75.3630 ,1.74760 ,-0.10851 ,-1.06466 
378 ,75.5550 ,1.74952 ,-0.13246 ,-1.29971 
379 ,75.7629 ,1.75157 ,-0.12904 ,-1.26613 
380 ,75.9548 ,1.75350 ,-0.14957 ,-1.46760 
381 ,76.1473 ,1.75541 ,-0.14957 ,-1.46760 
382 ,76.3552 ,1.75748 ,-0.16326 ,-1.60191 
383 ,76.5472 ,1.75939 ,-0.16668 ,-1.63549 
384 ,76.7394 ,1.76141 ,-0.18379 ,-1.80338 
385 ,76.9314 ,1.76325 ,-0.18722 ,-1.83696 
386 ,77.1231 ,1.76520 ,-0.19748 ,-1.93770 
387 ,77.3157 ,1.76711 ,-0.22144 ,-2.17275 
388 ,77.5235 ,1.76915 ,-0.22144 ,-2.17275 
389 ,77.7158 ,1.77105 ,-0.23170 ,-2.27348 
390 ,77.9076 ,1.77300 ,-0.23855 ,-2.34064 
391 ,78.1158 ,1.77498 ,-0.26250 ,-2.57569 
392 ,78.3080 ,1.77701 ,-0.25908 ,-2.54211 
393 ,78.4999 ,1.77896 ,-0.27961 ,-2.74358 
394 ,78.6922 ,1.78084 ,-0.27619 ,-2.71000 
395 ,78.9000 ,1.78280 ,-0.28988 ,-2.84431 
396 ,79.0923 ,1.78485 ,-0.29330 ,-2.87789 
397 ,79.2841 ,1.78680 ,-0.30699 ,-3.01220 
398 ,79.4766 ,1.78871 ,-0.32752 ,-3.21367 
399 ,79.6846 ,1.79074 ,-0.31726 ,-3.11294 
400 ,79.8768 ,1.79266 ,-0.34806 ,-3.41514 
401 ,80.0851 ,1.79478 ,-0.34121 ,-3.34799 
402 ,80.2770 ,1.79667 ,-0.37201 ,-3.65019 
403 ,80.4850 ,1.79880 ,-0.36859 ,-3.61661 
404 ,80.6932 ,1.80082 ,-0.36859 ,-3.61661 
405 ,80.8851 ,1.80276 ,-0.37201 ,-3.65019 
406 ,81.0768 ,1.80466 ,-0.39939 ,-3.91882 
407 ,81.3012 ,1.80695 ,-0.40623 ,-3.98597 
408 ,81.4930 ,1.80887 ,-0.41650 ,-4.08671 
409 ,81.6856 ,1.81079 ,-0.41650 ,-4.08671 
410 ,81.9096 ,1.81292 ,-0.42677 ,-4.18744 
411 ,82.1014 ,1.81499 ,-0.45757 ,-4.48965 
412 ,82.3096 ,1.81693 ,-0.45757 ,-4.48965 
413 ,82.5019 ,1.81896 ,-0.47468 ,-4.65754 
414 ,82.7099 ,1.82100 ,-0.47468 ,-4.65754 
415 ,82.9177 ,1.82305 ,-0.49179 ,-4.82543 
416 ,83.1100 ,1.82502 ,-0.48152 ,-4.72470 
417 ,83.3022 ,1.82696 ,-0.50206 ,-4.92617 
418 ,83.4943 ,1.82887 ,-0.49863 ,-4.89259 
419 ,83.7018 ,1.83095 ,-0.52601 ,-5.16121 
420 ,83.8942 ,1.83285 ,-0.52259 ,-5.12764 
421 ,84.0860 ,1.83476 ,-0.52943 ,-5.19479 
422 ,84.2784 ,1.83674 ,-0.55681 ,-5.46342 
423 ,84.4865 ,1.83874 ,-0.54997 ,-5.39626 
424 ,84.6785 ,1.84072 ,-0.56708 ,-5.56415 
425 ,84.8545 ,1.84257 ,-0.56708 ,-5.56415 
426 ,85.0467 ,1.84436 ,-0.58077 ,-5.69847 
427 ,85.2388 ,1.84630 ,-0.60130 ,-5.89994 
428 ,85.4309 ,1.84822 ,-0.59445 ,-5.83278 
429 ,85.6548 ,1.85045 ,-0.61841 ,-6.06783 
430 ,85.8466 ,1.85252 ,-0.61841 ,-6.06783 
431 ,86.0550 ,1.85436 ,-0.62183 ,-6.10141 
432 ,86.2633 ,1.85653 ,-0.64236 ,-6.30288 
433 ,86.4714 ,1.85859 ,-0.63210 ,-6.20214 
434 ,86.6472 ,1.86054 ,-0.66632 ,-6.53793 
435 ,86.8393 ,1.86232 ,-0.66974 ,-6.57150 
436 ,87.0316 ,1.86418 ,-0.66290 ,-6.50435 
437 ,87.2237 ,1.86614 ,-0.69027 ,-6.77297 
438 ,87.4475 ,1.86825 ,-0.68001 ,-6.67224 
439 ,87.6398 ,1.87031 ,-0.71081 ,-6.97444 
440 ,87.8477 ,1.87242 ,-0.72107 ,-7.07518 
441 ,88.0555 ,1.87442 ,-0.71423 ,-7.00802 
442 ,88.2479 ,1.87638 ,-0.73134 ,-7.17591 
443 ,88.4561 ,1.87850 ,-0.73818 ,-7.24307 
444 ,88.6481 ,1.88039 ,-0.74845 ,-7.34380 
445 ,88.8400 ,1.88233 ,-0.76214 ,-7.47812 
446 ,89.0324 ,1.88421 ,-0.75872 ,-7.44454 
447 ,89.2245 ,1.88614 ,-0.77241 ,-7.57885 
448 ,89.4326 ,1.88823 ,-0.77583 ,-7.61243 
449 ,89.6406 ,1.89029 ,-0.79636 ,-7.81390 
450 ,89.8485 ,1.89233 ,-0.79294 ,-7.78032 
451 ,90.0407 ,1.89431 ,-0.80663 ,-7.91464 
452 ,90.2485 ,1.89637 ,-0.82032 ,-8.04895 
453 ,90.4408 ,1.89831 ,-0.83058 ,-8.14968 
454 ,90.6331 ,1.90023 ,-0.82374 ,-8.08253 
455 ,90.8249 ,1.90214 ,-0.85454 ,-8.38473 
456 ,91.0332 ,1.90424 ,-0.83743 ,-8.21684 
457 ,91.2411 ,1.90624 ,-0.86481 ,-8.48547 
458 ,91.4333 ,1.90817 ,-0.86823 ,-8.51904 
459 ,91.6251 ,1.91011 ,-0.88534 ,-8.68694 
460 ,91.8335 ,1.91218 ,-0.87507 ,-8.58620 
461 ,92.0254 ,1.91412 ,-0.90245 ,-8.85483 
462 ,92.2337 ,1.91622 ,-0.88534 ,-8.68694 
463 ,92.4253 ,1.91813 ,-0.91272 ,-8.95556 
