Data stamp = , 02-05-2022 00:46:06 265

Calibration Values: 
Slope = , 26.54 , g/V 
Offset Voltage at no contact = , -0.501760 , V 

No , Time , Stage Position ,   Mass , Force 
   ,  (s) ,      (mm)      ,   (g)  , (mN)  

1 ,0.0000 ,0.99956 ,5.35669 ,52.55988 
2 ,0.2276 ,0.99966 ,5.35327 ,52.52631 
3 ,0.6921 ,1.00109 ,5.35669 ,52.55988 
4 ,0.9162 ,1.00344 ,5.34643 ,52.45915 
5 ,1.1404 ,1.00548 ,5.34643 ,52.45915 
6 ,1.3484 ,1.00774 ,5.35327 ,52.52631 
7 ,1.5405 ,1.00961 ,5.31563 ,52.15694 
8 ,1.7645 ,1.01192 ,5.30536 ,52.05621 
9 ,1.9722 ,1.01395 ,5.28483 ,51.85474 
10 ,2.1647 ,1.01596 ,5.26087 ,51.61969 
11 ,2.3725 ,1.01806 ,5.26087 ,51.61969 
12 ,2.5647 ,1.01994 ,5.22665 ,51.28391 
13 ,2.7728 ,1.02202 ,5.21981 ,51.21675 
14 ,2.9811 ,1.02405 ,5.18216 ,50.84739 
15 ,3.2051 ,1.02624 ,5.17532 ,50.78023 
16 ,3.3971 ,1.02825 ,5.14452 ,50.47803 
17 ,3.5894 ,1.03019 ,5.13768 ,50.41087 
18 ,3.7653 ,1.03205 ,5.10003 ,50.04151 
19 ,3.9576 ,1.03384 ,5.08634 ,49.90720 
20 ,4.1496 ,1.03578 ,5.07950 ,49.84004 
21 ,4.3579 ,1.03784 ,5.04870 ,49.53784 
22 ,4.5496 ,1.03979 ,5.03843 ,49.43710 
23 ,4.7417 ,1.04170 ,5.01106 ,49.16848 
24 ,4.9498 ,1.04376 ,5.00421 ,49.10132 
25 ,5.1581 ,1.04587 ,4.96657 ,48.73196 
26 ,5.3658 ,1.04794 ,4.94946 ,48.56407 
27 ,5.5583 ,1.04982 ,4.92208 ,48.29544 
28 ,5.7662 ,1.05193 ,4.91523 ,48.22828 
29 ,5.9582 ,1.05383 ,4.89470 ,48.02681 
30 ,6.1984 ,1.05612 ,4.86048 ,47.69103 
31 ,6.3904 ,1.05833 ,4.85706 ,47.65745 
32 ,6.5824 ,1.06004 ,4.82626 ,47.35525 
33 ,6.7904 ,1.06209 ,4.82626 ,47.35525 
34 ,6.9662 ,1.06406 ,4.80573 ,47.15378 
35 ,7.1588 ,1.06587 ,4.77835 ,46.88515 
36 ,7.3668 ,1.06794 ,4.75782 ,46.68368 
37 ,7.5905 ,1.07006 ,4.74413 ,46.54937 
38 ,7.7828 ,1.07208 ,4.72017 ,46.31432 
39 ,7.9910 ,1.07418 ,4.71333 ,46.24716 
40 ,8.1831 ,1.07611 ,4.68253 ,45.94496 
41 ,8.3909 ,1.07817 ,4.68253 ,45.94496 
42 ,8.5833 ,1.08006 ,4.65515 ,45.67633 
43 ,8.7753 ,1.08200 ,4.64488 ,45.57560 
44 ,8.9674 ,1.08393 ,4.62435 ,45.37413 
45 ,9.1591 ,1.08582 ,4.59355 ,45.07192 
46 ,9.3518 ,1.08780 ,4.60382 ,45.17266 
47 ,9.5596 ,1.08984 ,4.56960 ,44.83688 
48 ,9.7516 ,1.09174 ,4.54906 ,44.63541 
49 ,9.9599 ,1.09381 ,4.51826 ,44.33320 
50 ,10.1675 ,1.09595 ,4.51826 ,44.33320 
51 ,10.3601 ,1.09785 ,4.48404 ,43.99742 
52 ,10.5521 ,1.09974 ,4.47378 ,43.89668 
53 ,10.7602 ,1.10185 ,4.44298 ,43.59448 
54 ,10.9523 ,1.10378 ,4.46009 ,43.76237 
55 ,11.1602 ,1.10582 ,4.40533 ,43.22512 
56 ,11.3523 ,1.10776 ,4.41218 ,43.29227 
57 ,11.5445 ,1.10970 ,4.38138 ,42.99007 
58 ,11.7367 ,1.11165 ,4.37453 ,42.92291 
59 ,11.9448 ,1.11370 ,4.35742 ,42.75502 
60 ,12.1367 ,1.11561 ,4.33347 ,42.51997 
61 ,12.3288 ,1.11751 ,4.32662 ,42.45282 
62 ,12.5208 ,1.11948 ,4.28556 ,42.04988 
63 ,12.7291 ,1.12156 ,4.29582 ,42.15061 
64 ,12.9372 ,1.12362 ,4.26160 ,41.81483 
65 ,13.1292 ,1.12554 ,4.26160 ,41.81483 
66 ,13.3369 ,1.12758 ,4.22738 ,41.47905 
67 ,13.5294 ,1.12949 ,4.22396 ,41.44547 
68 ,13.7213 ,1.13144 ,4.18974 ,41.10968 
69 ,13.9298 ,1.13354 ,4.18289 ,41.04253 
70 ,14.1377 ,1.13561 ,4.15551 ,40.77390 
71 ,14.3298 ,1.13755 ,4.15209 ,40.74032 
72 ,14.5215 ,1.13946 ,4.11103 ,40.33738 
73 ,14.7139 ,1.14143 ,4.11445 ,40.37096 
74 ,14.9220 ,1.14348 ,4.08707 ,40.10233 
75 ,15.0980 ,1.14533 ,4.08707 ,40.10233 
76 ,15.2898 ,1.14713 ,4.07338 ,39.96802 
77 ,15.4821 ,1.14905 ,4.03574 ,39.59866 
78 ,15.6898 ,1.15112 ,4.03232 ,39.56508 
79 ,15.8821 ,1.15310 ,4.00494 ,39.29646 
80 ,16.0743 ,1.15495 ,3.98441 ,39.09499 
81 ,16.2666 ,1.15692 ,3.98098 ,39.06141 
82 ,16.5065 ,1.15934 ,3.95703 ,38.82636 
83 ,16.7145 ,1.16137 ,3.92965 ,38.55773 
84 ,16.9066 ,1.16333 ,3.91938 ,38.45700 
85 ,17.0986 ,1.16535 ,3.90570 ,38.32268 
86 ,17.2905 ,1.16712 ,3.90227 ,38.28911 
87 ,17.4830 ,1.16903 ,3.86121 ,37.88617 
88 ,17.6908 ,1.17115 ,3.86121 ,37.88617 
89 ,17.8830 ,1.17306 ,3.82356 ,37.51681 
90 ,18.0749 ,1.17495 ,3.81330 ,37.41607 
91 ,18.2674 ,1.17692 ,3.80303 ,37.31534 
92 ,18.4749 ,1.17891 ,3.78250 ,37.11387 
93 ,18.6674 ,1.18093 ,3.77908 ,37.08029 
94 ,18.8596 ,1.18282 ,3.73801 ,36.67735 
95 ,19.0676 ,1.18489 ,3.73801 ,36.67735 
96 ,19.2758 ,1.18695 ,3.71405 ,36.44230 
97 ,19.5157 ,1.18938 ,3.70037 ,36.30799 
98 ,19.7078 ,1.19125 ,3.69010 ,36.20725 
99 ,19.8997 ,1.19323 ,3.65588 ,35.87147 
100 ,20.0760 ,1.19506 ,3.64903 ,35.80431 
101 ,20.2841 ,1.19702 ,3.61823 ,35.50211 
102 ,20.4760 ,1.19904 ,3.59770 ,35.30064 
103 ,20.6684 ,1.20094 ,3.59086 ,35.23348 
104 ,20.8764 ,1.20302 ,3.57375 ,35.06559 
105 ,21.0681 ,1.20495 ,3.57375 ,35.06559 
106 ,21.2766 ,1.20696 ,3.54295 ,34.76338 
107 ,21.4846 ,1.20904 ,3.52584 ,34.59549 
108 ,21.6767 ,1.21095 ,3.49846 ,34.32687 
109 ,21.8688 ,1.21292 ,3.50530 ,34.39402 
110 ,22.0608 ,1.21481 ,3.47792 ,34.12540 
111 ,22.2687 ,1.21687 ,3.47108 ,34.05824 
112 ,22.4928 ,1.21911 ,3.44370 ,33.78961 
113 ,22.7009 ,1.22126 ,3.41633 ,33.52099 
114 ,22.8931 ,1.22318 ,3.40264 ,33.38667 
115 ,23.0851 ,1.22506 ,3.40264 ,33.38667 
116 ,23.2769 ,1.22697 ,3.35815 ,32.95016 
117 ,23.4692 ,1.22892 ,3.36499 ,33.01731 
118 ,23.6775 ,1.23096 ,3.33419 ,32.71511 
119 ,23.8694 ,1.23292 ,3.34104 ,32.78227 
120 ,24.0775 ,1.23491 ,3.29655 ,32.34575 
121 ,24.2693 ,1.23687 ,3.29997 ,32.37933 
122 ,24.4615 ,1.23876 ,3.27259 ,32.11070 
123 ,24.6539 ,1.24076 ,3.24864 ,31.87565 
124 ,24.8459 ,1.24268 ,3.25206 ,31.90923 
125 ,25.0377 ,1.24456 ,3.21784 ,31.57345 
126 ,25.2462 ,1.24659 ,3.22126 ,31.60702 
127 ,25.4538 ,1.24878 ,3.19046 ,31.30482 
128 ,25.6464 ,1.25071 ,3.18020 ,31.20409 
129 ,25.8545 ,1.25277 ,3.14940 ,30.90188 
130 ,26.0464 ,1.25471 ,3.16309 ,31.03619 
131 ,26.2386 ,1.25657 ,3.12202 ,30.63325 
132 ,26.4467 ,1.25859 ,3.12544 ,30.66683 
133 ,26.6386 ,1.26055 ,3.08780 ,30.29747 
134 ,26.8306 ,1.26251 ,3.07411 ,30.16316 
135 ,27.0229 ,1.26439 ,3.06384 ,30.06242 
136 ,27.2465 ,1.26667 ,3.05358 ,29.96169 
137 ,27.4386 ,1.26863 ,3.02620 ,29.69306 
138 ,27.6467 ,1.27068 ,3.02620 ,29.69306 
139 ,27.8547 ,1.27271 ,2.99198 ,29.35728 
140 ,28.0629 ,1.27479 ,2.98171 ,29.25654 
141 ,28.2713 ,1.27685 ,2.96460 ,29.08865 
142 ,28.5271 ,1.27943 ,2.95433 ,28.98792 
143 ,28.7351 ,1.28166 ,2.93038 ,28.75287 
144 ,28.9276 ,1.28349 ,2.91669 ,28.61856 
145 ,29.1358 ,1.28555 ,2.87905 ,28.24919 
146 ,29.3274 ,1.28746 ,2.88589 ,28.31635 
147 ,29.5355 ,1.28950 ,2.84825 ,27.94699 
148 ,29.7275 ,1.29150 ,2.84825 ,27.94699 
149 ,29.9038 ,1.29332 ,2.82429 ,27.71194 
150 ,30.1119 ,1.29532 ,2.81060 ,27.57763 
151 ,30.3363 ,1.29740 ,2.80376 ,27.51047 
152 ,30.5283 ,1.29950 ,2.79691 ,27.44332 
153 ,30.7524 ,1.30163 ,2.75927 ,27.07395 
154 ,30.9601 ,1.30381 ,2.74900 ,26.97322 
155 ,31.1524 ,1.30568 ,2.72847 ,26.77175 
156 ,31.3606 ,1.30773 ,2.72847 ,26.77175 
157 ,31.5529 ,1.30975 ,2.69767 ,26.46954 
158 ,31.7607 ,1.31176 ,2.70109 ,26.50312 
159 ,31.9529 ,1.31372 ,2.65660 ,26.06661 
160 ,32.1450 ,1.31562 ,2.66003 ,26.10018 
161 ,32.3528 ,1.31766 ,2.64292 ,25.93229 
162 ,32.5452 ,1.31961 ,2.64292 ,25.93229 
163 ,32.7373 ,1.32155 ,2.60185 ,25.52935 
164 ,32.9454 ,1.32361 ,2.60869 ,25.59651 
165 ,33.1371 ,1.32552 ,2.57447 ,25.26073 
166 ,33.3292 ,1.32750 ,2.57447 ,25.26073 
167 ,33.5214 ,1.32941 ,2.55736 ,25.09283 
168 ,33.7297 ,1.33145 ,2.52998 ,24.82421 
169 ,33.9377 ,1.33353 ,2.52314 ,24.75705 
170 ,34.1299 ,1.33543 ,2.50261 ,24.55558 
171 ,34.3218 ,1.33741 ,2.49918 ,24.52200 
172 ,34.5141 ,1.33928 ,2.46839 ,24.21980 
173 ,34.7061 ,1.34124 ,2.46496 ,24.18622 
174 ,34.9143 ,1.34327 ,2.43759 ,23.91759 
175 ,35.1063 ,1.34525 ,2.45127 ,24.05191 
176 ,35.2980 ,1.34715 ,2.40336 ,23.58181 
177 ,35.5059 ,1.34919 ,2.39994 ,23.54823 
178 ,35.6984 ,1.35111 ,2.39310 ,23.48108 
179 ,35.9066 ,1.35322 ,2.39310 ,23.48108 
180 ,36.0985 ,1.35518 ,2.36230 ,23.17887 
181 ,36.3067 ,1.35725 ,2.33492 ,22.91024 
182 ,36.4987 ,1.35914 ,2.32808 ,22.84309 
183 ,36.6907 ,1.36109 ,2.29385 ,22.50731 
184 ,36.9150 ,1.36328 ,2.29385 ,22.50731 
185 ,37.1229 ,1.36541 ,2.28359 ,22.40657 
186 ,37.3151 ,1.36730 ,2.25279 ,22.10437 
187 ,37.5069 ,1.36917 ,2.23568 ,21.93647 
188 ,37.6992 ,1.37118 ,2.23226 ,21.90290 
189 ,37.9074 ,1.37319 ,2.21515 ,21.73500 
190 ,38.0993 ,1.37516 ,2.21172 ,21.70143 
191 ,38.3075 ,1.37720 ,2.19119 ,21.49996 
192 ,38.5156 ,1.37929 ,2.17750 ,21.36564 
193 ,38.6915 ,1.38118 ,2.16723 ,21.26491 
194 ,38.8836 ,1.38299 ,2.17066 ,21.29849 
195 ,39.0757 ,1.38490 ,2.12959 ,20.89555 
196 ,39.2518 ,1.38675 ,2.11590 ,20.76123 
197 ,39.4439 ,1.38857 ,2.11248 ,20.72766 
198 ,39.6359 ,1.39049 ,2.08168 ,20.42545 
199 ,39.8275 ,1.39237 ,2.07141 ,20.32472 
200 ,40.0202 ,1.39431 ,2.06799 ,20.29114 
201 ,40.2283 ,1.39641 ,2.04061 ,20.02251 
202 ,40.4203 ,1.39836 ,2.04061 ,20.02251 
203 ,40.6123 ,1.40027 ,2.02008 ,19.82104 
204 ,40.8041 ,1.40218 ,2.00982 ,19.72031 
205 ,41.0283 ,1.40431 ,1.98244 ,19.45168 
206 ,41.2525 ,1.40656 ,1.97902 ,19.41810 
207 ,41.4448 ,1.40858 ,1.96533 ,19.28379 
208 ,41.6686 ,1.41078 ,1.93453 ,18.98158 
209 ,41.8766 ,1.41279 ,1.93111 ,18.94801 
210 ,42.0849 ,1.41497 ,1.91057 ,18.74654 
211 ,42.2930 ,1.41709 ,1.89346 ,18.57864 
212 ,42.5011 ,1.41903 ,1.87635 ,18.41075 
213 ,42.6930 ,1.42103 ,1.85924 ,18.24286 
214 ,42.8847 ,1.42303 ,1.85924 ,18.24286 
215 ,43.0774 ,1.42488 ,1.83871 ,18.04139 
216 ,43.2694 ,1.42679 ,1.81817 ,17.83992 
217 ,43.4934 ,1.42906 ,1.80106 ,17.67203 
218 ,43.7016 ,1.43113 ,1.79764 ,17.63845 
219 ,43.8935 ,1.43310 ,1.77026 ,17.36983 
220 ,44.0854 ,1.43498 ,1.77026 ,17.36983 
221 ,44.2938 ,1.43711 ,1.74973 ,17.16836 
222 ,44.5017 ,1.43918 ,1.74631 ,17.13478 
223 ,44.7097 ,1.44119 ,1.71893 ,16.86615 
224 ,44.9182 ,1.44327 ,1.70524 ,16.73184 
225 ,45.1262 ,1.44539 ,1.70182 ,16.69826 
226 ,45.3183 ,1.44729 ,1.69155 ,16.59752 
227 ,45.5263 ,1.44936 ,1.66760 ,16.36248 
228 ,45.7185 ,1.45129 ,1.66760 ,16.36248 
229 ,45.9261 ,1.45340 ,1.63338 ,16.02669 
230 ,46.1185 ,1.45524 ,1.62653 ,15.95954 
231 ,46.3103 ,1.45718 ,1.60258 ,15.72449 
232 ,46.5187 ,1.45928 ,1.60600 ,15.75807 
233 ,46.7268 ,1.46140 ,1.57178 ,15.42228 
234 ,46.9186 ,1.46330 ,1.56493 ,15.35513 
235 ,47.1269 ,1.46540 ,1.54782 ,15.18724 
236 ,47.3190 ,1.46732 ,1.55467 ,15.25439 
237 ,47.4946 ,1.46920 ,1.51360 ,14.85145 
238 ,47.6872 ,1.47099 ,1.49991 ,14.71714 
239 ,47.8949 ,1.47306 ,1.50676 ,14.78430 
240 ,48.0872 ,1.47499 ,1.47938 ,14.51567 
241 ,48.2794 ,1.47693 ,1.48965 ,14.61640 
242 ,48.4874 ,1.47895 ,1.45542 ,14.28062 
243 ,48.6796 ,1.48094 ,1.45885 ,14.31420 
244 ,48.9355 ,1.48335 ,1.43489 ,14.07915 
245 ,49.1436 ,1.48551 ,1.41094 ,13.84410 
246 ,49.3356 ,1.48742 ,1.41436 ,13.87768 
247 ,49.5438 ,1.48952 ,1.38698 ,13.60906 
248 ,49.7355 ,1.49146 ,1.38356 ,13.57548 
249 ,49.9281 ,1.49337 ,1.34934 ,13.23969 
250 ,50.1040 ,1.49529 ,1.36645 ,13.40759 
251 ,50.3121 ,1.49717 ,1.32196 ,12.97107 
252 ,50.5040 ,1.49911 ,1.33223 ,13.07180 
253 ,50.6963 ,1.50111 ,1.32880 ,13.03822 
254 ,50.9045 ,1.50313 ,1.28774 ,12.63528 
255 ,51.1122 ,1.50516 ,1.29458 ,12.70244 
256 ,51.3047 ,1.50716 ,1.27405 ,12.50097 
257 ,51.4964 ,1.50908 ,1.26720 ,12.43381 
258 ,51.7047 ,1.51112 ,1.23983 ,12.16519 
259 ,51.8962 ,1.51306 ,1.23983 ,12.16519 
260 ,52.0888 ,1.51498 ,1.21245 ,11.89656 
261 ,52.2968 ,1.51708 ,1.20903 ,11.86298 
262 ,52.5371 ,1.51933 ,1.17823 ,11.56078 
263 ,52.7289 ,1.52141 ,1.16796 ,11.46004 
264 ,52.9208 ,1.52328 ,1.16454 ,11.42647 
265 ,53.1453 ,1.52538 ,1.14058 ,11.19142 
266 ,53.3537 ,1.52762 ,1.15427 ,11.32573 
267 ,53.5452 ,1.52956 ,1.10979 ,10.88921 
268 ,53.7532 ,1.53161 ,1.12005 ,10.98995 
269 ,53.9452 ,1.53352 ,1.08925 ,10.68774 
270 ,54.1374 ,1.53540 ,1.09267 ,10.72132 
271 ,54.3457 ,1.53743 ,1.05845 ,10.38554 
272 ,54.5534 ,1.53963 ,1.05845 ,10.38554 
273 ,54.7457 ,1.54157 ,1.03792 ,10.18407 
274 ,54.9543 ,1.54368 ,1.04134 ,10.21765 
275 ,55.1457 ,1.54555 ,1.00712 ,9.88186 
276 ,55.3378 ,1.54746 ,1.02081 ,10.01618 
277 ,55.5302 ,1.54953 ,0.98317 ,9.64682 
278 ,55.7225 ,1.55131 ,0.97290 ,9.54608 
279 ,55.9143 ,1.55322 ,0.97632 ,9.57966 
280 ,56.1065 ,1.55515 ,0.93868 ,9.21030 
281 ,56.2982 ,1.55714 ,0.96263 ,9.44535 
282 ,56.4906 ,1.55896 ,0.93525 ,9.17672 
283 ,56.6826 ,1.56093 ,0.91472 ,8.97525 
284 ,56.8750 ,1.56284 ,0.92157 ,9.04241 
285 ,57.0828 ,1.56489 ,0.89419 ,8.77378 
286 ,57.2750 ,1.56684 ,0.88734 ,8.70662 
287 ,57.4672 ,1.56878 ,0.86339 ,8.47158 
288 ,57.6753 ,1.57085 ,0.87023 ,8.53873 
289 ,57.8673 ,1.57272 ,0.84286 ,8.27011 
290 ,58.0590 ,1.57469 ,0.83601 ,8.20295 
291 ,58.2510 ,1.57658 ,0.82917 ,8.13579 
292 ,58.4431 ,1.57846 ,0.80521 ,7.90074 
293 ,58.6355 ,1.58041 ,0.80521 ,7.90074 
294 ,58.8276 ,1.58232 ,0.78126 ,7.66570 
295 ,59.0199 ,1.58423 ,0.78126 ,7.66570 
296 ,59.2118 ,1.58620 ,0.77099 ,7.56496 
297 ,59.4198 ,1.58825 ,0.75388 ,7.39707 
298 ,59.6117 ,1.59015 ,0.74361 ,7.29633 
299 ,59.8041 ,1.59212 ,0.71966 ,7.06129 
300 ,59.9961 ,1.59404 ,0.72308 ,7.09486 
301 ,60.2043 ,1.59611 ,0.68544 ,6.72550 
302 ,60.3963 ,1.59806 ,0.70255 ,6.89340 
303 ,60.5880 ,1.59993 ,0.67517 ,6.62477 
304 ,60.7805 ,1.60190 ,0.67859 ,6.65835 
305 ,60.9886 ,1.60397 ,0.63410 ,6.22183 
306 ,61.1806 ,1.60585 ,0.64095 ,6.28899 
307 ,61.3727 ,1.60776 ,0.64095 ,6.28899 
308 ,61.5648 ,1.60971 ,0.61357 ,6.02036 
309 ,61.7724 ,1.61172 ,0.61699 ,6.05394 
310 ,61.9648 ,1.61370 ,0.58277 ,5.71815 
311 ,62.1571 ,1.61563 ,0.58277 ,5.71815 
312 ,62.3652 ,1.61773 ,0.55539 ,5.44953 
313 ,62.5574 ,1.61964 ,0.56908 ,5.58384 
314 ,62.7493 ,1.62157 ,0.53486 ,5.24806 
315 ,62.9731 ,1.62369 ,0.53486 ,5.24806 
316 ,63.1814 ,1.62587 ,0.51775 ,5.08017 
317 ,63.3735 ,1.62780 ,0.52117 ,5.11375 
318 ,63.5815 ,1.62980 ,0.49037 ,4.81154 
319 ,63.7736 ,1.63178 ,0.50064 ,4.91228 
320 ,63.9815 ,1.63382 ,0.47668 ,4.67723 
321 ,64.1738 ,1.63576 ,0.46984 ,4.61007 
322 ,64.3817 ,1.63775 ,0.44931 ,4.40860 
323 ,64.5737 ,1.63978 ,0.44931 ,4.40860 
324 ,64.7819 ,1.64188 ,0.42535 ,4.17355 
325 ,64.9738 ,1.64379 ,0.43562 ,4.27429 
326 ,65.1822 ,1.64583 ,0.40482 ,3.97208 
327 ,65.3905 ,1.64797 ,0.40482 ,3.97208 
328 ,65.5825 ,1.64990 ,0.39455 ,3.87135 
329 ,65.7903 ,1.65196 ,0.38086 ,3.73703 
330 ,65.9826 ,1.65385 ,0.35349 ,3.46841 
331 ,66.1905 ,1.65593 ,0.35691 ,3.50199 
332 ,66.3987 ,1.65804 ,0.34664 ,3.40125 
333 ,66.5906 ,1.65991 ,0.33295 ,3.26694 
334 ,66.7828 ,1.66188 ,0.31926 ,3.13263 
335 ,66.9749 ,1.66381 ,0.32953 ,3.23336 
336 ,67.1666 ,1.66570 ,0.28847 ,2.83042 
337 ,67.3588 ,1.66765 ,0.29189 ,2.86400 
338 ,67.5672 ,1.66970 ,0.27820 ,2.72969 
339 ,67.7752 ,1.67179 ,0.27820 ,2.72969 
340 ,67.9674 ,1.67373 ,0.25424 ,2.49464 
341 ,68.1755 ,1.67582 ,0.24398 ,2.39390 
342 ,68.3673 ,1.67771 ,0.21660 ,2.12528 
343 ,68.5596 ,1.67957 ,0.22344 ,2.19243 
344 ,68.7515 ,1.68157 ,0.22344 ,2.19243 
345 ,68.9436 ,1.68345 ,0.18922 ,1.85665 
346 ,69.1358 ,1.68542 ,0.19607 ,1.92381 
347 ,69.3278 ,1.68730 ,0.17896 ,1.75592 
348 ,69.5359 ,1.68926 ,0.17896 ,1.75592 
349 ,69.7440 ,1.69149 ,0.14816 ,1.45371 
350 ,69.9361 ,1.69339 ,0.15842 ,1.55445 
351 ,70.1599 ,1.69555 ,0.12762 ,1.25224 
352 ,70.3839 ,1.69767 ,0.13447 ,1.31940 
353 ,70.5760 ,1.69974 ,0.12420 ,1.21866 
354 ,70.7684 ,1.70171 ,0.11051 ,1.08435 
355 ,70.9604 ,1.70361 ,0.08314 ,0.81572 
356 ,71.1527 ,1.70557 ,0.08314 ,0.81572 
357 ,71.3609 ,1.70761 ,0.05918 ,0.58067 
358 ,71.5683 ,1.70968 ,0.04549 ,0.44636 
359 ,71.7608 ,1.71161 ,0.03865 ,0.37920 
360 ,71.9529 ,1.71355 ,0.04891 ,0.47994 
361 ,72.1607 ,1.71562 ,0.03522 ,0.34563 
362 ,72.3530 ,1.71757 ,0.03180 ,0.31205 
363 ,72.5451 ,1.71946 ,-0.00242 ,-0.02373 
364 ,72.7371 ,1.72139 ,0.00100 ,0.00984 
365 ,72.9293 ,1.72334 ,-0.01269 ,-0.12447 
366 ,73.1213 ,1.72521 ,-0.03664 ,-0.35952 
367 ,73.3294 ,1.72729 ,-0.02637 ,-0.25878 
368 ,73.5536 ,1.72959 ,-0.03664 ,-0.35952 
369 ,73.7451 ,1.73158 ,-0.06060 ,-0.59457 
370 ,73.9376 ,1.73338 ,-0.07428 ,-0.72888 
371 ,74.1297 ,1.73528 ,-0.06402 ,-0.62814 
372 ,74.3218 ,1.73722 ,-0.08797 ,-0.86319 
373 ,74.5139 ,1.73911 ,-0.08797 ,-0.86319 
374 ,74.7059 ,1.74105 ,-0.10851 ,-1.06466 
375 ,74.8978 ,1.74297 ,-0.10166 ,-0.99751 
376 ,75.1061 ,1.74506 ,-0.12219 ,-1.19898 
377 ,75.3142 ,1.74707 ,-0.12219 ,-1.19898 
378 ,75.5063 ,1.74905 ,-0.15299 ,-1.50118 
379 ,75.6983 ,1.75109 ,-0.13931 ,-1.36687 
380 ,75.8741 ,1.75289 ,-0.15984 ,-1.56834 
381 ,76.0664 ,1.75469 ,-0.17011 ,-1.66907 
382 ,76.2587 ,1.75659 ,-0.18379 ,-1.80338 
383 ,76.4507 ,1.75850 ,-0.18379 ,-1.80338 
384 ,76.6427 ,1.76041 ,-0.21802 ,-2.13917 
385 ,76.8349 ,1.76233 ,-0.21117 ,-2.07201 
386 ,77.0266 ,1.76427 ,-0.22144 ,-2.17275 
387 ,77.2189 ,1.76615 ,-0.24197 ,-2.37422 
388 ,77.4107 ,1.76809 ,-0.24197 ,-2.37422 
389 ,77.6031 ,1.77004 ,-0.26593 ,-2.60926 
390 ,77.7953 ,1.77191 ,-0.25224 ,-2.47495 
391 ,77.9873 ,1.77389 ,-0.26935 ,-2.64284 
392 ,78.1793 ,1.77577 ,-0.28988 ,-2.84431 
393 ,78.4194 ,1.77810 ,-0.30015 ,-2.94505 
394 ,78.6275 ,1.78024 ,-0.30015 ,-2.94505 
395 ,78.8196 ,1.78217 ,-0.31726 ,-3.11294 
396 ,79.0117 ,1.78411 ,-0.31041 ,-3.04578 
397 ,79.2035 ,1.78599 ,-0.32752 ,-3.21367 
398 ,79.3958 ,1.78793 ,-0.33779 ,-3.31441 
399 ,79.5879 ,1.78986 ,-0.33437 ,-3.28083 
400 ,79.7801 ,1.79179 ,-0.36175 ,-3.54946 
401 ,79.9721 ,1.79374 ,-0.35148 ,-3.44872 
402 ,80.1802 ,1.79578 ,-0.37886 ,-3.71735 
403 ,80.4043 ,1.79794 ,-0.39255 ,-3.85166 
404 ,80.6120 ,1.80007 ,-0.38570 ,-3.78450 
405 ,80.8043 ,1.80202 ,-0.40623 ,-3.98597 
406 ,80.9962 ,1.80393 ,-0.42677 ,-4.18744 
407 ,81.1887 ,1.80585 ,-0.41308 ,-4.05313 
408 ,81.3804 ,1.80778 ,-0.43703 ,-4.28818 
409 ,81.5727 ,1.80966 ,-0.44046 ,-4.32176 
410 ,81.7808 ,1.81177 ,-0.45757 ,-4.48965 
411 ,81.9730 ,1.81374 ,-0.45757 ,-4.48965 
412 ,82.1809 ,1.81578 ,-0.48837 ,-4.79185 
413 ,82.4208 ,1.81802 ,-0.47126 ,-4.62396 
414 ,82.6132 ,1.82011 ,-0.48152 ,-4.72470 
415 ,82.8211 ,1.82224 ,-0.50890 ,-4.99332 
416 ,83.0133 ,1.82407 ,-0.51232 ,-5.02690 
417 ,83.2055 ,1.82604 ,-0.51232 ,-5.02690 
418 ,83.3975 ,1.82796 ,-0.53628 ,-5.26195 
419 ,83.5895 ,1.82982 ,-0.53628 ,-5.26195 
420 ,83.7818 ,1.83180 ,-0.55339 ,-5.42984 
421 ,83.9738 ,1.83369 ,-0.54654 ,-5.36268 
422 ,84.1659 ,1.83566 ,-0.56365 ,-5.53058 
423 ,84.3740 ,1.83773 ,-0.57050 ,-5.59773 
424 ,84.5658 ,1.83965 ,-0.59788 ,-5.86636 
425 ,84.7741 ,1.84169 ,-0.59445 ,-5.83278 
426 ,84.9662 ,1.84362 ,-0.60814 ,-5.96709 
427 ,85.1584 ,1.84556 ,-0.62525 ,-6.13499 
428 ,85.3503 ,1.84748 ,-0.61499 ,-6.03425 
429 ,85.5744 ,1.84971 ,-0.63552 ,-6.23572 
430 ,85.7665 ,1.85174 ,-0.63894 ,-6.26930 
431 ,85.9587 ,1.85353 ,-0.66974 ,-6.57150 
432 ,86.1506 ,1.85550 ,-0.64236 ,-6.30288 
433 ,86.3427 ,1.85736 ,-0.66974 ,-6.57150 
434 ,86.5510 ,1.85951 ,-0.66290 ,-6.50435 
435 ,86.7586 ,1.86156 ,-0.69712 ,-6.84013 
436 ,86.9509 ,1.86350 ,-0.68343 ,-6.70582 
437 ,87.1590 ,1.86560 ,-0.71423 ,-7.00802 
438 ,87.3511 ,1.86745 ,-0.70054 ,-6.87371 
439 ,87.5432 ,1.86940 ,-0.71765 ,-7.04160 
440 ,87.7354 ,1.87130 ,-0.74503 ,-7.31023 
441 ,87.9274 ,1.87319 ,-0.72792 ,-7.14233 
442 ,88.1030 ,1.87510 ,-0.76214 ,-7.47812 
443 ,88.2955 ,1.87691 ,-0.76556 ,-7.51170 
444 ,88.4876 ,1.87882 ,-0.74161 ,-7.27665 
445 ,88.6796 ,1.88074 ,-0.78267 ,-7.67959 
446 ,88.8718 ,1.88268 ,-0.77241 ,-7.57885 
447 ,89.0640 ,1.88461 ,-0.78952 ,-7.74674 
448 ,89.2720 ,1.88666 ,-0.79636 ,-7.81390 
449 ,89.4797 ,1.88870 ,-0.80663 ,-7.91464 
450 ,89.6721 ,1.89061 ,-0.82374 ,-8.08253 
451 ,89.8798 ,1.89271 ,-0.82716 ,-8.11611 
452 ,90.0718 ,1.89468 ,-0.83401 ,-8.18326 
453 ,90.2642 ,1.89666 ,-0.84427 ,-8.28400 
454 ,90.5205 ,1.89912 ,-0.85454 ,-8.38473 
455 ,90.7445 ,1.90140 ,-0.84427 ,-8.28400 
456 ,90.9367 ,1.90331 ,-0.88534 ,-8.68694 
457 ,91.1284 ,1.90523 ,-0.87849 ,-8.61978 
458 ,91.3369 ,1.90727 ,-0.91272 ,-8.95556 
459 ,91.5448 ,1.90941 ,-0.88876 ,-8.72051 
460 ,91.7371 ,1.91132 ,-0.91272 ,-8.95556 
461 ,91.9292 ,1.91328 ,-0.90245 ,-8.85483 
462 ,92.1211 ,1.91517 ,-0.93325 ,-9.15703 
463 ,92.3291 ,1.91727 ,-0.92983 ,-9.12345 
