Data stamp = , 01-05-2022 15:38:07 582

Calibration Values: 
Slope = , 26.54 , g/V 
Offset Voltage at no contact = , -0.501760 , V 

No , Time , Stage Position ,   Mass , Force 
   ,  (s) ,      (mm)      ,   (g)  , (mN)  

1 ,0.0000 ,0.99942 ,5.38407 ,52.82851 
2 ,0.2198 ,0.99949 ,5.37723 ,52.76135 
3 ,0.7323 ,1.00155 ,5.38407 ,52.82851 
4 ,0.9405 ,1.00361 ,5.38407 ,52.82851 
5 ,1.1484 ,1.00552 ,5.36696 ,52.66062 
6 ,1.3406 ,1.00751 ,5.38407 ,52.82851 
7 ,1.5485 ,1.00950 ,5.35327 ,52.52631 
8 ,1.7568 ,1.01173 ,5.32589 ,52.25768 
9 ,1.9808 ,1.01382 ,5.30536 ,52.05621 
10 ,2.1725 ,1.01603 ,5.28483 ,51.85474 
11 ,2.3650 ,1.01781 ,5.27114 ,51.72043 
12 ,2.5569 ,1.01972 ,5.25403 ,51.55254 
13 ,2.7492 ,1.02164 ,5.21639 ,51.18317 
14 ,2.9412 ,1.02351 ,5.21639 ,51.18317 
15 ,3.1334 ,1.02549 ,5.20612 ,51.08244 
16 ,3.3415 ,1.02758 ,5.18901 ,50.91455 
17 ,3.5496 ,1.02968 ,5.14110 ,50.44445 
18 ,3.7416 ,1.03161 ,5.13768 ,50.41087 
19 ,3.9336 ,1.03354 ,5.11714 ,50.20940 
20 ,4.1258 ,1.03537 ,5.09319 ,49.97436 
21 ,4.3174 ,1.03734 ,5.07950 ,49.84004 
22 ,4.5260 ,1.03931 ,5.05212 ,49.57142 
23 ,4.7341 ,1.04154 ,5.03159 ,49.36995 
24 ,4.9261 ,1.04341 ,5.01448 ,49.20205 
25 ,5.1183 ,1.04533 ,5.01448 ,49.20205 
26 ,5.3102 ,1.04724 ,4.98026 ,48.86627 
27 ,5.5023 ,1.04919 ,4.97683 ,48.83269 
28 ,5.6943 ,1.05119 ,4.93919 ,48.46333 
29 ,5.8865 ,1.05301 ,4.92892 ,48.36260 
30 ,6.0945 ,1.05512 ,4.90839 ,48.16113 
31 ,6.2867 ,1.05702 ,4.87075 ,47.79177 
32 ,6.4784 ,1.05893 ,4.88444 ,47.92608 
33 ,6.6867 ,1.06100 ,4.84679 ,47.55672 
34 ,6.8788 ,1.06294 ,4.84679 ,47.55672 
35 ,7.0710 ,1.06489 ,4.81599 ,47.25451 
36 ,7.2791 ,1.06690 ,4.80915 ,47.18736 
37 ,7.5032 ,1.06923 ,4.79204 ,47.01946 
38 ,7.6952 ,1.07113 ,4.76124 ,46.71726 
39 ,7.9192 ,1.07321 ,4.75097 ,46.61653 
40 ,8.1110 ,1.07528 ,4.71333 ,46.24716 
41 ,8.3198 ,1.07724 ,4.70648 ,46.18001 
42 ,8.5272 ,1.07941 ,4.67568 ,45.87780 
43 ,8.7192 ,1.08132 ,4.67226 ,45.84422 
44 ,8.9117 ,1.08327 ,4.63804 ,45.50844 
45 ,9.1039 ,1.08519 ,4.63119 ,45.44128 
46 ,9.3118 ,1.08726 ,4.60040 ,45.13908 
47 ,9.5039 ,1.08916 ,4.61066 ,45.23981 
48 ,9.6960 ,1.09108 ,4.57986 ,44.93761 
49 ,9.9041 ,1.09312 ,4.55591 ,44.70256 
50 ,10.1122 ,1.09525 ,4.52853 ,44.43394 
51 ,10.3039 ,1.09718 ,4.53537 ,44.50109 
52 ,10.5284 ,1.09942 ,4.48062 ,43.96384 
53 ,10.7364 ,1.10149 ,4.48062 ,43.96384 
54 ,10.9124 ,1.10340 ,4.44640 ,43.62806 
55 ,11.1045 ,1.10518 ,4.44298 ,43.59448 
56 ,11.2965 ,1.10710 ,4.42929 ,43.46016 
57 ,11.4886 ,1.10900 ,4.40875 ,43.25870 
58 ,11.6805 ,1.11093 ,4.40533 ,43.22512 
59 ,11.8728 ,1.11286 ,4.37111 ,42.88933 
60 ,12.0650 ,1.11478 ,4.36427 ,42.82218 
61 ,12.2888 ,1.11697 ,4.34373 ,42.62071 
62 ,12.4811 ,1.11897 ,4.33004 ,42.48639 
63 ,12.6731 ,1.12086 ,4.29582 ,42.15061 
64 ,12.8654 ,1.12273 ,4.29924 ,42.18419 
65 ,13.0731 ,1.12480 ,4.27187 ,41.91556 
66 ,13.2654 ,1.12673 ,4.26160 ,41.81483 
67 ,13.4895 ,1.12891 ,4.22053 ,41.41189 
68 ,13.6971 ,1.13108 ,4.22053 ,41.41189 
69 ,13.8894 ,1.13299 ,4.18289 ,41.04253 
70 ,14.0974 ,1.13504 ,4.17605 ,40.97537 
71 ,14.2897 ,1.13704 ,4.15551 ,40.77390 
72 ,14.4977 ,1.13917 ,4.15551 ,40.77390 
73 ,14.6900 ,1.14102 ,4.12471 ,40.47170 
74 ,14.8981 ,1.14307 ,4.11103 ,40.33738 
75 ,15.1222 ,1.14516 ,4.09391 ,40.16949 
76 ,15.3302 ,1.14745 ,4.06654 ,39.90087 
77 ,15.5383 ,1.14950 ,4.06312 ,39.86729 
78 ,15.7304 ,1.15147 ,4.03232 ,39.56508 
79 ,15.9385 ,1.15351 ,4.01863 ,39.43077 
80 ,16.1305 ,1.15540 ,3.99809 ,39.22930 
81 ,16.3222 ,1.15733 ,4.00152 ,39.26288 
82 ,16.5308 ,1.15934 ,3.96387 ,38.89352 
83 ,16.7388 ,1.16157 ,3.95018 ,38.75920 
84 ,16.9466 ,1.16357 ,3.93650 ,38.62489 
85 ,17.1390 ,1.16549 ,3.91596 ,38.42342 
86 ,17.3469 ,1.16758 ,3.90570 ,38.32268 
87 ,17.5553 ,1.16967 ,3.87490 ,38.02048 
88 ,17.7631 ,1.17177 ,3.87832 ,38.05406 
89 ,17.9713 ,1.17383 ,3.83725 ,37.65112 
90 ,18.1634 ,1.17574 ,3.84067 ,37.68470 
91 ,18.3555 ,1.17768 ,3.80303 ,37.31534 
92 ,18.5472 ,1.17960 ,3.79619 ,37.24818 
93 ,18.7398 ,1.18155 ,3.78250 ,37.11387 
94 ,18.9319 ,1.18349 ,3.75854 ,36.87882 
95 ,19.1399 ,1.18553 ,3.74143 ,36.71093 
96 ,19.3640 ,1.18756 ,3.72090 ,36.50946 
97 ,19.5562 ,1.18969 ,3.70037 ,36.30799 
98 ,19.7802 ,1.19179 ,3.71748 ,36.47588 
99 ,19.9880 ,1.19402 ,3.68325 ,36.14010 
100 ,20.1803 ,1.19591 ,3.65930 ,35.90505 
101 ,20.3724 ,1.19785 ,3.62166 ,35.53569 
102 ,20.5646 ,1.19974 ,3.63877 ,35.70358 
103 ,20.7725 ,1.20178 ,3.59770 ,35.30064 
104 ,20.9647 ,1.20378 ,3.60454 ,35.36779 
105 ,21.1568 ,1.20568 ,3.57375 ,35.06559 
106 ,21.3489 ,1.20760 ,3.57032 ,35.03201 
107 ,21.5410 ,1.20949 ,3.54295 ,34.76338 
108 ,21.7325 ,1.21142 ,3.50872 ,34.42760 
109 ,21.9252 ,1.21334 ,3.50872 ,34.42760 
110 ,22.1330 ,1.21544 ,3.48135 ,34.15898 
111 ,22.3250 ,1.21732 ,3.49161 ,34.25971 
112 ,22.5493 ,1.21958 ,3.46081 ,33.95751 
113 ,22.7571 ,1.22167 ,3.42317 ,33.58814 
114 ,22.9334 ,1.22357 ,3.41975 ,33.55457 
115 ,23.1413 ,1.22538 ,3.42659 ,33.62172 
116 ,23.3336 ,1.22744 ,3.39237 ,33.28594 
117 ,23.5415 ,1.22943 ,3.37868 ,33.15163 
118 ,23.7338 ,1.23146 ,3.35130 ,32.88300 
119 ,23.9416 ,1.23353 ,3.34104 ,32.78227 
120 ,24.1340 ,1.23545 ,3.31366 ,32.51364 
121 ,24.3421 ,1.23751 ,3.31366 ,32.51364 
122 ,24.5502 ,1.23946 ,3.28628 ,32.24501 
123 ,24.7581 ,1.24168 ,3.26575 ,32.04354 
124 ,24.9663 ,1.24372 ,3.26575 ,32.04354 
125 ,25.1581 ,1.24564 ,3.22811 ,31.67418 
126 ,25.3501 ,1.24758 ,3.23153 ,31.70776 
127 ,25.5424 ,1.24950 ,3.21100 ,31.50629 
128 ,25.7346 ,1.25141 ,3.18362 ,31.23766 
129 ,25.9268 ,1.25335 ,3.19731 ,31.37198 
130 ,26.1345 ,1.25545 ,3.15282 ,30.93546 
131 ,26.3429 ,1.25756 ,3.14255 ,30.83472 
132 ,26.5509 ,1.25961 ,3.12544 ,30.66683 
133 ,26.7911 ,1.26197 ,3.12202 ,30.63325 
134 ,26.9991 ,1.26401 ,3.09464 ,30.36463 
135 ,27.1911 ,1.26602 ,3.07069 ,30.12958 
136 ,27.3829 ,1.26787 ,3.06384 ,30.06242 
137 ,27.5913 ,1.26990 ,3.05015 ,29.92811 
138 ,27.7831 ,1.27186 ,3.04331 ,29.86095 
139 ,27.9755 ,1.27380 ,2.99540 ,29.39086 
140 ,28.1833 ,1.27593 ,3.00567 ,29.49159 
141 ,28.3592 ,1.27780 ,2.97487 ,29.18939 
142 ,28.5516 ,1.27957 ,2.96802 ,29.12223 
143 ,28.7598 ,1.28167 ,2.94064 ,28.85360 
144 ,28.9682 ,1.28364 ,2.93722 ,28.82003 
145 ,29.1600 ,1.28572 ,2.91669 ,28.61856 
146 ,29.3683 ,1.28777 ,2.90642 ,28.51782 
147 ,29.5602 ,1.28966 ,2.87220 ,28.18204 
148 ,29.7682 ,1.29173 ,2.86878 ,28.14846 
149 ,29.9763 ,1.29381 ,2.83798 ,27.84625 
150 ,30.1683 ,1.29569 ,2.84140 ,27.87983 
151 ,30.3765 ,1.29784 ,2.81745 ,27.64479 
152 ,30.5682 ,1.29970 ,2.80718 ,27.54405 
153 ,30.7606 ,1.30164 ,2.78665 ,27.34258 
154 ,30.9527 ,1.30362 ,2.75927 ,27.07395 
155 ,31.1449 ,1.30546 ,2.75927 ,27.07395 
156 ,31.3367 ,1.30741 ,2.73874 ,26.87248 
157 ,31.5610 ,1.30972 ,2.73531 ,26.83891 
158 ,31.7691 ,1.31173 ,2.72163 ,26.70459 
159 ,31.9772 ,1.31386 ,2.68740 ,26.36881 
160 ,32.1693 ,1.31579 ,2.69083 ,26.40239 
161 ,32.3772 ,1.31788 ,2.66345 ,26.13376 
162 ,32.5694 ,1.31974 ,2.65660 ,26.06661 
163 ,32.7614 ,1.32167 ,2.63265 ,25.83156 
164 ,32.9536 ,1.32359 ,2.62923 ,25.79798 
165 ,33.1614 ,1.32566 ,2.59843 ,25.49577 
166 ,33.3537 ,1.32761 ,2.58132 ,25.32788 
167 ,33.5617 ,1.32955 ,2.57447 ,25.26073 
168 ,33.7695 ,1.33177 ,2.56763 ,25.19357 
169 ,33.9617 ,1.33372 ,2.53683 ,24.89136 
170 ,34.1700 ,1.33576 ,2.52314 ,24.75705 
171 ,34.3618 ,1.33764 ,2.51972 ,24.72347 
172 ,34.5862 ,1.33993 ,2.50603 ,24.58916 
173 ,34.7944 ,1.34194 ,2.47181 ,24.25338 
174 ,34.9862 ,1.34390 ,2.47181 ,24.25338 
175 ,35.1943 ,1.34595 ,2.44785 ,24.01833 
176 ,35.4026 ,1.34793 ,2.44443 ,23.98475 
177 ,35.5945 ,1.35000 ,2.42390 ,23.78328 
178 ,35.8026 ,1.35203 ,2.39652 ,23.51465 
179 ,35.9944 ,1.35395 ,2.39310 ,23.48108 
180 ,36.1868 ,1.35589 ,2.38283 ,23.38034 
181 ,36.3788 ,1.35780 ,2.35545 ,23.11171 
182 ,36.5866 ,1.35990 ,2.35545 ,23.11171 
183 ,36.7626 ,1.36182 ,2.32123 ,22.77593 
184 ,36.9708 ,1.36370 ,2.31097 ,22.67520 
185 ,37.1627 ,1.36577 ,2.28701 ,22.44015 
186 ,37.3548 ,1.36760 ,2.28359 ,22.40657 
187 ,37.5789 ,1.36984 ,2.25279 ,22.10437 
188 ,37.7873 ,1.37187 ,2.24252 ,22.00363 
189 ,38.0276 ,1.37436 ,2.23910 ,21.97005 
190 ,38.2353 ,1.37638 ,2.21857 ,21.76858 
191 ,38.4277 ,1.37829 ,2.21515 ,21.73500 
192 ,38.6200 ,1.38025 ,2.18435 ,21.43280 
193 ,38.8278 ,1.38220 ,2.18435 ,21.43280 
194 ,39.0201 ,1.38424 ,2.15697 ,21.16417 
195 ,39.2121 ,1.38618 ,2.16039 ,21.19775 
196 ,39.4042 ,1.38802 ,2.13301 ,20.92912 
197 ,39.5962 ,1.39000 ,2.10906 ,20.69408 
198 ,39.7884 ,1.39192 ,2.11932 ,20.79481 
199 ,39.9963 ,1.39399 ,2.08510 ,20.45903 
200 ,40.2046 ,1.39597 ,2.08168 ,20.42545 
201 ,40.4122 ,1.39819 ,2.07141 ,20.32472 
202 ,40.6207 ,1.40013 ,2.03719 ,19.98893 
203 ,40.8127 ,1.40218 ,2.04061 ,20.02251 
204 ,41.0208 ,1.40411 ,2.01666 ,19.78746 
205 ,41.2287 ,1.40634 ,2.01666 ,19.78746 
206 ,41.4367 ,1.40836 ,1.99613 ,19.58599 
207 ,41.6768 ,1.41054 ,1.96533 ,19.28379 
208 ,41.8852 ,1.41288 ,1.94822 ,19.11590 
209 ,42.0931 ,1.41495 ,1.94479 ,19.08232 
210 ,42.2853 ,1.41685 ,1.92426 ,18.88085 
211 ,42.4934 ,1.41886 ,1.92084 ,18.84727 
212 ,42.6853 ,1.42083 ,1.87977 ,18.44433 
213 ,42.8775 ,1.42279 ,1.86951 ,18.34360 
214 ,43.0696 ,1.42475 ,1.86266 ,18.27644 
215 ,43.2617 ,1.42663 ,1.83871 ,18.04139 
216 ,43.4539 ,1.42854 ,1.84897 ,18.14213 
217 ,43.6455 ,1.43046 ,1.81475 ,17.80634 
218 ,43.8540 ,1.43253 ,1.81817 ,17.83992 
219 ,44.0783 ,1.43472 ,1.78737 ,17.53772 
220 ,44.2860 ,1.43687 ,1.77711 ,17.43698 
221 ,44.4781 ,1.43878 ,1.76000 ,17.26909 
222 ,44.7020 ,1.44093 ,1.74289 ,17.10120 
223 ,44.9104 ,1.44314 ,1.74289 ,17.10120 
224 ,45.1022 ,1.44506 ,1.71551 ,16.83257 
225 ,45.3105 ,1.44700 ,1.71893 ,16.86615 
226 ,45.5184 ,1.44912 ,1.69155 ,16.59752 
227 ,45.7103 ,1.45113 ,1.68813 ,16.56395 
228 ,45.9022 ,1.45299 ,1.66760 ,16.36248 
229 ,46.0948 ,1.45498 ,1.65733 ,16.26174 
230 ,46.3027 ,1.45703 ,1.64022 ,16.09385 
231 ,46.5109 ,1.45900 ,1.62995 ,15.99311 
232 ,46.7191 ,1.46120 ,1.60942 ,15.79164 
233 ,46.9111 ,1.46311 ,1.59916 ,15.69091 
234 ,47.1031 ,1.46509 ,1.56493 ,15.35513 
235 ,47.3114 ,1.46713 ,1.57862 ,15.48944 
236 ,47.5193 ,1.46911 ,1.55124 ,15.22081 
237 ,47.7274 ,1.47127 ,1.53413 ,15.05292 
238 ,47.9356 ,1.47330 ,1.53071 ,15.01934 
239 ,48.1437 ,1.47543 ,1.51018 ,14.81787 
240 ,48.3518 ,1.47750 ,1.50676 ,14.78430 
241 ,48.5598 ,1.47964 ,1.48622 ,14.58283 
242 ,48.7518 ,1.48153 ,1.48280 ,14.54925 
243 ,48.9440 ,1.48340 ,1.43489 ,14.07915 
244 ,49.1357 ,1.48531 ,1.45885 ,14.31420 
245 ,49.3281 ,1.48728 ,1.43147 ,14.04557 
246 ,49.5361 ,1.48933 ,1.42120 ,13.94484 
247 ,49.7440 ,1.49139 ,1.40409 ,13.77695 
248 ,49.9524 ,1.49354 ,1.39383 ,13.67621 
249 ,50.1444 ,1.49547 ,1.35618 ,13.30685 
250 ,50.3364 ,1.49743 ,1.36987 ,13.44116 
251 ,50.5286 ,1.49923 ,1.34934 ,13.23969 
252 ,50.7367 ,1.50133 ,1.34591 ,13.20612 
253 ,50.9287 ,1.50324 ,1.31854 ,12.93749 
254 ,51.1209 ,1.50517 ,1.30485 ,12.80318 
255 ,51.3128 ,1.50711 ,1.31169 ,12.87033 
256 ,51.5051 ,1.50907 ,1.28774 ,12.63528 
257 ,51.7289 ,1.51121 ,1.28774 ,12.63528 
258 ,51.9372 ,1.51325 ,1.25352 ,12.29950 
259 ,52.1292 ,1.51526 ,1.23641 ,12.13161 
260 ,52.3210 ,1.51717 ,1.22614 ,12.03088 
261 ,52.5130 ,1.51908 ,1.22614 ,12.03088 
262 ,52.7052 ,1.52099 ,1.19876 ,11.76225 
263 ,52.8973 ,1.52291 ,1.20561 ,11.82941 
264 ,53.0897 ,1.52490 ,1.18165 ,11.59436 
265 ,53.2976 ,1.52691 ,1.16454 ,11.42647 
266 ,53.4899 ,1.52887 ,1.16112 ,11.39289 
267 ,53.6978 ,1.53093 ,1.13032 ,11.09068 
268 ,53.9060 ,1.53301 ,1.11663 ,10.95637 
269 ,54.0979 ,1.53494 ,1.10979 ,10.88921 
270 ,54.2902 ,1.53686 ,1.10294 ,10.82206 
271 ,54.4822 ,1.53881 ,1.08241 ,10.62059 
272 ,54.6739 ,1.54071 ,1.08241 ,10.62059 
273 ,54.8664 ,1.54260 ,1.05845 ,10.38554 
274 ,55.0744 ,1.54472 ,1.05161 ,10.31838 
275 ,55.2504 ,1.54655 ,1.03108 ,10.11691 
276 ,55.4745 ,1.54852 ,1.01396 ,9.94902 
277 ,55.6666 ,1.55064 ,1.01054 ,9.91544 
278 ,55.8587 ,1.55254 ,0.99685 ,9.78113 
279 ,56.0666 ,1.55461 ,0.99001 ,9.71397 
280 ,56.2749 ,1.55674 ,0.97632 ,9.57966 
281 ,56.4670 ,1.55864 ,0.94894 ,9.31103 
282 ,56.6750 ,1.56071 ,0.94894 ,9.31103 
283 ,56.8509 ,1.56256 ,0.92499 ,9.07598 
284 ,57.0432 ,1.56437 ,0.92157 ,9.04241 
285 ,57.2513 ,1.56648 ,0.90446 ,8.87451 
286 ,57.4431 ,1.56840 ,0.88392 ,8.67305 
287 ,57.6354 ,1.57028 ,0.89419 ,8.77378 
288 ,57.8114 ,1.57221 ,0.86681 ,8.50515 
289 ,58.0033 ,1.57397 ,0.84628 ,8.30368 
290 ,58.1957 ,1.57589 ,0.84970 ,8.33726 
291 ,58.3876 ,1.57779 ,0.83943 ,8.23653 
292 ,58.6275 ,1.58019 ,0.80521 ,7.90074 
293 ,58.8359 ,1.58229 ,0.81548 ,8.00148 
294 ,59.0276 ,1.58422 ,0.80179 ,7.86717 
295 ,59.2197 ,1.58617 ,0.77441 ,7.59854 
296 ,59.4277 ,1.58820 ,0.77784 ,7.63212 
297 ,59.6199 ,1.59015 ,0.75388 ,7.39707 
298 ,59.8122 ,1.59210 ,0.74361 ,7.29633 
299 ,60.0524 ,1.59448 ,0.73335 ,7.19560 
300 ,60.2445 ,1.59645 ,0.70597 ,6.92697 
301 ,60.4526 ,1.59844 ,0.71624 ,7.02771 
302 ,60.6445 ,1.60037 ,0.68544 ,6.72550 
303 ,60.8525 ,1.60251 ,0.69913 ,6.85982 
304 ,61.0449 ,1.60440 ,0.67175 ,6.59119 
305 ,61.2366 ,1.60630 ,0.66148 ,6.49046 
306 ,61.4290 ,1.60828 ,0.63753 ,6.25541 
307 ,61.6210 ,1.61016 ,0.61699 ,6.05394 
308 ,61.8291 ,1.61216 ,0.63068 ,6.18825 
309 ,62.0213 ,1.61413 ,0.60330 ,5.91962 
310 ,62.2134 ,1.61605 ,0.61357 ,6.02036 
311 ,62.4051 ,1.61797 ,0.58619 ,5.75173 
312 ,62.5974 ,1.61991 ,0.57251 ,5.61742 
313 ,62.7895 ,1.62181 ,0.56566 ,5.55026 
314 ,63.0137 ,1.62399 ,0.56566 ,5.55026 
315 ,63.2219 ,1.62615 ,0.53486 ,5.24806 
316 ,63.4295 ,1.62824 ,0.53486 ,5.24806 
317 ,63.6537 ,1.63032 ,0.49722 ,4.87870 
318 ,63.8617 ,1.63255 ,0.48353 ,4.74438 
319 ,64.0539 ,1.63450 ,0.50064 ,4.91228 
320 ,64.2621 ,1.63653 ,0.46300 ,4.54291 
321 ,64.4539 ,1.63848 ,0.45615 ,4.47576 
322 ,64.6464 ,1.64035 ,0.44931 ,4.40860 
323 ,64.8382 ,1.64230 ,0.43562 ,4.27429 
324 ,65.0304 ,1.64428 ,0.43562 ,4.27429 
325 ,65.2383 ,1.64627 ,0.41166 ,4.03924 
326 ,65.4307 ,1.64823 ,0.42193 ,4.13997 
327 ,65.6223 ,1.65026 ,0.38771 ,3.80419 
328 ,65.8308 ,1.65217 ,0.39455 ,3.87135 
329 ,66.0388 ,1.65430 ,0.37060 ,3.63630 
330 ,66.2310 ,1.65622 ,0.37402 ,3.66988 
331 ,66.4233 ,1.65814 ,0.34322 ,3.36767 
332 ,66.6152 ,1.66007 ,0.34322 ,3.36767 
333 ,66.8067 ,1.66198 ,0.33295 ,3.26694 
334 ,66.9994 ,1.66395 ,0.30900 ,3.03189 
335 ,67.1910 ,1.66584 ,0.31926 ,3.13263 
336 ,67.3835 ,1.66775 ,0.28847 ,2.83042 
337 ,67.6071 ,1.66998 ,0.28162 ,2.76326 
338 ,67.7836 ,1.67188 ,0.25767 ,2.52822 
339 ,67.9758 ,1.67368 ,0.25767 ,2.52822 
340 ,68.1839 ,1.67580 ,0.25082 ,2.46106 
341 ,68.3918 ,1.67782 ,0.25082 ,2.46106 
342 ,68.6000 ,1.67977 ,0.22344 ,2.19243 
343 ,68.7920 ,1.68184 ,0.23029 ,2.25959 
344 ,68.9837 ,1.68377 ,0.21660 ,2.12528 
345 ,69.1763 ,1.68568 ,0.21318 ,2.09170 
346 ,69.3844 ,1.68778 ,0.18922 ,1.85665 
347 ,69.5764 ,1.68967 ,0.17896 ,1.75592 
348 ,69.8005 ,1.69180 ,0.15500 ,1.52087 
349 ,69.9927 ,1.69385 ,0.16527 ,1.62160 
350 ,70.2168 ,1.69604 ,0.13789 ,1.35298 
351 ,70.4243 ,1.69815 ,0.12078 ,1.18508 
352 ,70.6489 ,1.70037 ,0.12078 ,1.18508 
353 ,70.8566 ,1.70245 ,0.10367 ,1.01719 
354 ,71.0490 ,1.70442 ,0.09682 ,0.95004 
355 ,71.2567 ,1.70646 ,0.08656 ,0.84930 
356 ,71.4491 ,1.70831 ,0.08656 ,0.84930 
357 ,71.6410 ,1.71030 ,0.05234 ,0.51352 
358 ,71.8334 ,1.71223 ,0.06945 ,0.68141 
359 ,72.0413 ,1.71428 ,0.03865 ,0.37920 
360 ,72.2332 ,1.71626 ,0.04891 ,0.47994 
361 ,72.4259 ,1.71815 ,0.03180 ,0.31205 
362 ,72.6336 ,1.72025 ,0.02154 ,0.21131 
363 ,72.8259 ,1.72213 ,-0.00242 ,-0.02373 
364 ,73.0178 ,1.72411 ,-0.00242 ,-0.02373 
365 ,73.2096 ,1.72602 ,-0.00926 ,-0.09089 
366 ,73.4015 ,1.72792 ,-0.03322 ,-0.32594 
367 ,73.5939 ,1.72983 ,-0.02637 ,-0.25878 
368 ,73.7861 ,1.73172 ,-0.05375 ,-0.52741 
369 ,73.9781 ,1.73370 ,-0.05717 ,-0.56099 
370 ,74.1861 ,1.73579 ,-0.07086 ,-0.69530 
371 ,74.3783 ,1.73773 ,-0.07428 ,-0.72888 
372 ,74.5543 ,1.73956 ,-0.07086 ,-0.69530 
373 ,74.7465 ,1.74139 ,-0.09482 ,-0.93035 
374 ,74.9385 ,1.74327 ,-0.09482 ,-0.93035 
375 ,75.1466 ,1.74538 ,-0.12219 ,-1.19898 
376 ,75.3386 ,1.74738 ,-0.11877 ,-1.16540 
377 ,75.5304 ,1.74917 ,-0.12904 ,-1.26613 
378 ,75.7228 ,1.75112 ,-0.15642 ,-1.53476 
379 ,75.9309 ,1.75315 ,-0.15984 ,-1.56834 
380 ,76.1386 ,1.75529 ,-0.18037 ,-1.76981 
381 ,76.3310 ,1.75717 ,-0.17011 ,-1.66907 
382 ,76.5391 ,1.75923 ,-0.18722 ,-1.83696 
383 ,76.7312 ,1.76121 ,-0.19406 ,-1.90412 
384 ,76.9237 ,1.76312 ,-0.21459 ,-2.10559 
385 ,77.1314 ,1.76522 ,-0.20433 ,-2.00485 
386 ,77.3237 ,1.76714 ,-0.23513 ,-2.30706 
387 ,77.5473 ,1.76925 ,-0.21802 ,-2.13917 
388 ,77.7552 ,1.77147 ,-0.23855 ,-2.34064 
389 ,77.9474 ,1.77341 ,-0.25566 ,-2.50853 
390 ,78.1558 ,1.77538 ,-0.25566 ,-2.50853 
391 ,78.3477 ,1.77733 ,-0.27277 ,-2.67642 
392 ,78.5560 ,1.77941 ,-0.27277 ,-2.67642 
393 ,78.7477 ,1.78131 ,-0.30015 ,-2.94505 
394 ,78.9402 ,1.78326 ,-0.31041 ,-3.04578 
395 ,79.1643 ,1.78537 ,-0.31726 ,-3.11294 
396 ,79.3723 ,1.78760 ,-0.32410 ,-3.18010 
397 ,79.6125 ,1.79002 ,-0.32752 ,-3.21367 
398 ,79.8204 ,1.79208 ,-0.35832 ,-3.51588 
399 ,80.0124 ,1.79400 ,-0.34464 ,-3.38156 
400 ,80.2207 ,1.79606 ,-0.37544 ,-3.68377 
401 ,80.4128 ,1.79804 ,-0.36859 ,-3.61661 
402 ,80.6049 ,1.79991 ,-0.38570 ,-3.78450 
403 ,80.7970 ,1.80183 ,-0.39255 ,-3.85166 
404 ,81.0048 ,1.80392 ,-0.41992 ,-4.12029 
405 ,81.2132 ,1.80600 ,-0.40623 ,-3.98597 
406 ,81.4214 ,1.80810 ,-0.42677 ,-4.18744 
407 ,81.6134 ,1.81004 ,-0.42677 ,-4.18744 
408 ,81.8052 ,1.81192 ,-0.44730 ,-4.38891 
409 ,81.9974 ,1.81381 ,-0.44388 ,-4.35534 
410 ,82.1731 ,1.81571 ,-0.47126 ,-4.62396 
411 ,82.3656 ,1.81751 ,-0.48152 ,-4.72470 
412 ,82.6219 ,1.81995 ,-0.49863 ,-4.89259 
413 ,82.8298 ,1.82219 ,-0.49521 ,-4.85901 
414 ,83.0219 ,1.82407 ,-0.49863 ,-4.89259 
415 ,83.2136 ,1.82603 ,-0.49863 ,-4.89259 
416 ,83.4221 ,1.82799 ,-0.52943 ,-5.19479 
417 ,83.6302 ,1.83018 ,-0.52943 ,-5.19479 
418 ,83.8380 ,1.83221 ,-0.52943 ,-5.19479 
419 ,84.0301 ,1.83416 ,-0.56023 ,-5.49700 
420 ,84.2380 ,1.83623 ,-0.54997 ,-5.39626 
421 ,84.4301 ,1.83811 ,-0.57050 ,-5.59773 
422 ,84.6225 ,1.84003 ,-0.59103 ,-5.79920 
423 ,84.8304 ,1.84207 ,-0.57392 ,-5.63131 
424 ,85.0387 ,1.84422 ,-0.60130 ,-5.89994 
425 ,85.2304 ,1.84613 ,-0.61499 ,-6.03425 
426 ,85.4225 ,1.84804 ,-0.62183 ,-6.10141 
427 ,85.6149 ,1.85003 ,-0.62525 ,-6.13499 
428 ,85.8232 ,1.85209 ,-0.63552 ,-6.23572 
429 ,86.0151 ,1.85403 ,-0.64921 ,-6.37003 
430 ,86.2231 ,1.85607 ,-0.66974 ,-6.57150 
431 ,86.4153 ,1.85799 ,-0.65605 ,-6.43719 
432 ,86.6070 ,1.85989 ,-0.67659 ,-6.63866 
433 ,86.8153 ,1.86198 ,-0.65947 ,-6.47077 
434 ,87.0074 ,1.86392 ,-0.69370 ,-6.80655 
435 ,87.2314 ,1.86614 ,-0.69370 ,-6.80655 
436 ,87.4237 ,1.86806 ,-0.71423 ,-7.00802 
437 ,87.6153 ,1.87000 ,-0.69712 ,-6.84013 
438 ,87.8076 ,1.87191 ,-0.73818 ,-7.24307 
439 ,88.0478 ,1.87415 ,-0.73134 ,-7.17591 
440 ,88.2561 ,1.87641 ,-0.74503 ,-7.31023 
441 ,88.4481 ,1.87844 ,-0.76898 ,-7.54527 
442 ,88.6400 ,1.88025 ,-0.75872 ,-7.44454 
443 ,88.8321 ,1.88217 ,-0.77241 ,-7.57885 
444 ,89.0402 ,1.88423 ,-0.77241 ,-7.57885 
445 ,89.2323 ,1.88616 ,-0.79294 ,-7.78032 
446 ,89.4403 ,1.88826 ,-0.78610 ,-7.71317 
447 ,89.6326 ,1.89020 ,-0.80321 ,-7.88106 
448 ,89.8402 ,1.89220 ,-0.81005 ,-7.94821 
449 ,90.0326 ,1.89420 ,-0.83058 ,-8.14968 
450 ,90.2408 ,1.89625 ,-0.82716 ,-8.11611 
451 ,90.4487 ,1.89828 ,-0.85796 ,-8.41831 
452 ,90.6411 ,1.90026 ,-0.84085 ,-8.25042 
453 ,90.8492 ,1.90234 ,-0.86138 ,-8.45189 
454 ,91.0412 ,1.90422 ,-0.85796 ,-8.41831 
455 ,91.2491 ,1.90634 ,-0.88534 ,-8.68694 
456 ,91.4409 ,1.90822 ,-0.88192 ,-8.65336 
457 ,91.6655 ,1.91042 ,-0.90245 ,-8.85483 
458 ,91.8737 ,1.91255 ,-0.91272 ,-8.95556 
459 ,92.0813 ,1.91465 ,-0.91614 ,-8.98914 
460 ,92.2737 ,1.91653 ,-0.91272 ,-8.95556 
461 ,92.4498 ,1.91842 ,-0.93667 ,-9.19061 
462 ,92.6418 ,1.92026 ,-0.92983 ,-9.12345 
463 ,92.8499 ,1.92228 ,-0.95720 ,-9.39208 
