Data stamp = , 30-04-2022 09:15:19 015

Calibration Values: 
Slope = , 26.54 , g/V 
Offset Voltage at no contact = , -0.501760 , V 

No , Time , Stage Position ,   Mass , Force 
   ,  (s) ,      (mm)      ,   (g)  , (mN)  

1 ,0.0000 ,0.99942 ,5.39434 ,52.92925 
2 ,0.2179 ,0.99950 ,5.38407 ,52.82851 
3 ,0.7787 ,1.00181 ,5.38065 ,52.79493 
4 ,1.0023 ,1.00411 ,5.38407 ,52.82851 
5 ,1.2111 ,1.00617 ,5.39776 ,52.96282 
6 ,1.4027 ,1.00812 ,5.36012 ,52.59346 
7 ,1.5949 ,1.01014 ,5.35327 ,52.52631 
8 ,1.7870 ,1.01204 ,5.32932 ,52.29126 
9 ,2.0111 ,1.01418 ,5.31905 ,52.19052 
10 ,2.2031 ,1.01615 ,5.28483 ,51.85474 
11 ,2.4273 ,1.01831 ,5.29167 ,51.92190 
12 ,2.6194 ,1.02036 ,5.26087 ,51.61969 
13 ,2.8271 ,1.02243 ,5.22323 ,51.25033 
14 ,3.0194 ,1.02436 ,5.23007 ,51.31749 
15 ,3.2112 ,1.02624 ,5.19927 ,51.01528 
16 ,3.4036 ,1.02816 ,5.16848 ,50.71308 
17 ,3.5957 ,1.03013 ,5.16505 ,50.67950 
18 ,3.8038 ,1.03218 ,5.13768 ,50.41087 
19 ,4.0116 ,1.03418 ,5.13083 ,50.34372 
20 ,4.2039 ,1.03622 ,5.09319 ,49.97436 
21 ,4.4281 ,1.03839 ,5.08292 ,49.87362 
22 ,4.6362 ,1.04062 ,5.06581 ,49.70573 
23 ,4.8283 ,1.04243 ,5.03501 ,49.40352 
24 ,5.0203 ,1.04435 ,5.02132 ,49.26921 
25 ,5.2284 ,1.04650 ,4.99737 ,49.03416 
26 ,5.4200 ,1.04829 ,4.99052 ,48.96701 
27 ,5.6122 ,1.05023 ,4.97683 ,48.83269 
28 ,5.8046 ,1.05215 ,4.92892 ,48.36260 
29 ,5.9968 ,1.05412 ,4.93919 ,48.46333 
30 ,6.2048 ,1.05623 ,4.90497 ,48.12755 
31 ,6.3967 ,1.05811 ,4.90155 ,48.09397 
32 ,6.6049 ,1.06020 ,4.85364 ,47.62387 
33 ,6.7971 ,1.06218 ,4.86048 ,47.69103 
34 ,6.9892 ,1.06406 ,4.82284 ,47.32167 
35 ,7.1972 ,1.06614 ,4.82968 ,47.38883 
36 ,7.3894 ,1.06802 ,4.79546 ,47.05304 
37 ,7.5970 ,1.07011 ,4.78519 ,46.95231 
38 ,7.8055 ,1.07212 ,4.76466 ,46.75084 
39 ,7.9976 ,1.07418 ,4.74755 ,46.58295 
40 ,8.1896 ,1.07610 ,4.72017 ,46.31432 
41 ,8.3974 ,1.07799 ,4.70990 ,46.21359 
42 ,8.5896 ,1.08005 ,4.67568 ,45.87780 
43 ,8.7818 ,1.08191 ,4.66542 ,45.77707 
44 ,8.9737 ,1.08388 ,4.65857 ,45.70991 
45 ,9.1659 ,1.08584 ,4.63462 ,45.47486 
46 ,9.3742 ,1.08783 ,4.62435 ,45.37413 
47 ,9.5664 ,1.08981 ,4.58671 ,45.00477 
48 ,9.7740 ,1.09191 ,4.58328 ,44.97119 
49 ,9.9666 ,1.09382 ,4.56617 ,44.80330 
50 ,10.1903 ,1.09591 ,4.54906 ,44.63541 
51 ,10.3827 ,1.09798 ,4.52511 ,44.40036 
52 ,10.5746 ,1.09989 ,4.51826 ,44.33320 
53 ,10.7826 ,1.10187 ,4.48746 ,44.03100 
54 ,10.9908 ,1.10401 ,4.46009 ,43.76237 
55 ,11.1829 ,1.10591 ,4.44298 ,43.59448 
56 ,11.3754 ,1.10784 ,4.43613 ,43.52732 
57 ,11.5827 ,1.10994 ,4.42586 ,43.42659 
58 ,11.7753 ,1.11191 ,4.41218 ,43.29227 
59 ,11.9670 ,1.11381 ,4.37795 ,42.95649 
60 ,12.1629 ,1.11574 ,4.37795 ,42.95649 
61 ,12.3835 ,1.11803 ,4.35742 ,42.75502 
62 ,12.6075 ,1.12009 ,4.32662 ,42.45282 
63 ,12.8157 ,1.12230 ,4.30951 ,42.28492 
64 ,13.0234 ,1.12431 ,4.29924 ,42.18419 
65 ,13.2157 ,1.12628 ,4.27529 ,41.94914 
66 ,13.4237 ,1.12834 ,4.25818 ,41.78125 
67 ,13.6159 ,1.13029 ,4.24791 ,41.68051 
68 ,13.8080 ,1.13219 ,4.21711 ,41.37831 
69 ,14.0001 ,1.13411 ,4.21027 ,41.31115 
70 ,14.1918 ,1.13605 ,4.19658 ,41.17684 
71 ,14.4003 ,1.13803 ,4.17605 ,40.97537 
72 ,14.6082 ,1.14017 ,4.14525 ,40.67317 
73 ,14.8003 ,1.14211 ,4.13498 ,40.57243 
74 ,14.9925 ,1.14405 ,4.10760 ,40.30380 
75 ,15.1840 ,1.14595 ,4.09734 ,40.20307 
76 ,15.3766 ,1.14793 ,4.08023 ,40.03518 
77 ,15.5687 ,1.14976 ,4.06996 ,39.93444 
78 ,15.7768 ,1.15192 ,4.05627 ,39.80013 
79 ,15.9688 ,1.15380 ,4.02205 ,39.46435 
80 ,16.1771 ,1.15589 ,4.02547 ,39.49793 
81 ,16.3686 ,1.15784 ,3.99125 ,39.16214 
82 ,16.5613 ,1.15976 ,3.98441 ,39.09499 
83 ,16.7692 ,1.16183 ,3.95018 ,38.75920 
84 ,16.9774 ,1.16396 ,3.93307 ,38.59131 
85 ,17.1855 ,1.16588 ,3.90227 ,38.28911 
86 ,17.3776 ,1.16791 ,3.92281 ,38.49058 
87 ,17.5696 ,1.16979 ,3.88516 ,38.12122 
88 ,17.7614 ,1.17170 ,3.88858 ,38.15479 
89 ,17.9538 ,1.17364 ,3.84752 ,37.75185 
90 ,18.1459 ,1.17561 ,3.83725 ,37.65112 
91 ,18.3699 ,1.17779 ,3.82014 ,37.48323 
92 ,18.5616 ,1.17966 ,3.82014 ,37.48323 
93 ,18.7540 ,1.18171 ,3.78250 ,37.11387 
94 ,18.9622 ,1.18375 ,3.78592 ,37.14744 
95 ,19.1543 ,1.18566 ,3.75512 ,36.84524 
96 ,19.3619 ,1.18767 ,3.74828 ,36.77808 
97 ,19.5544 ,1.18964 ,3.71405 ,36.44230 
98 ,19.7623 ,1.19170 ,3.70037 ,36.30799 
99 ,19.9705 ,1.19378 ,3.68325 ,36.14010 
100 ,20.1624 ,1.19571 ,3.67983 ,36.10652 
101 ,20.3548 ,1.19763 ,3.64903 ,35.80431 
102 ,20.5627 ,1.19970 ,3.65246 ,35.83789 
103 ,20.7546 ,1.20168 ,3.61823 ,35.50211 
104 ,20.9629 ,1.20375 ,3.61823 ,35.50211 
105 ,21.1710 ,1.20585 ,3.57717 ,35.09917 
106 ,21.3949 ,1.20801 ,3.55321 ,34.86412 
107 ,21.6031 ,1.21009 ,3.55321 ,34.86412 
108 ,21.7953 ,1.21200 ,3.53268 ,34.66265 
109 ,21.9872 ,1.21398 ,3.50872 ,34.42760 
110 ,22.1795 ,1.21591 ,3.49846 ,34.32687 
111 ,22.3716 ,1.21780 ,3.47450 ,34.09182 
112 ,22.5795 ,1.21989 ,3.47792 ,34.12540 
113 ,22.7718 ,1.22178 ,3.44028 ,33.75604 
114 ,22.9794 ,1.22385 ,3.44370 ,33.78961 
115 ,23.1718 ,1.22582 ,3.40606 ,33.42025 
116 ,23.3960 ,1.22796 ,3.40606 ,33.42025 
117 ,23.6040 ,1.23005 ,3.38210 ,33.18520 
118 ,23.7961 ,1.23204 ,3.35473 ,32.91658 
119 ,24.0043 ,1.23398 ,3.35130 ,32.88300 
120 ,24.2120 ,1.23624 ,3.32393 ,32.61437 
121 ,24.4045 ,1.23809 ,3.32051 ,32.58080 
122 ,24.5964 ,1.24004 ,3.29655 ,32.34575 
123 ,24.8041 ,1.24214 ,3.28286 ,32.21143 
124 ,24.9966 ,1.24398 ,3.24180 ,31.80849 
125 ,25.2043 ,1.24617 ,3.25548 ,31.94281 
126 ,25.3968 ,1.24808 ,3.23495 ,31.74134 
127 ,25.6047 ,1.25012 ,3.20415 ,31.43913 
128 ,25.7970 ,1.25198 ,3.18362 ,31.23766 
129 ,26.0049 ,1.25404 ,3.16993 ,31.10335 
130 ,26.2292 ,1.25627 ,3.15966 ,31.00262 
131 ,26.4049 ,1.25829 ,3.14940 ,30.90188 
132 ,26.5974 ,1.26007 ,3.12202 ,30.63325 
133 ,26.7892 ,1.26198 ,3.11175 ,30.53252 
134 ,26.9975 ,1.26409 ,3.09464 ,30.36463 
135 ,27.2053 ,1.26612 ,3.08780 ,30.29747 
136 ,27.3971 ,1.26807 ,3.06384 ,30.06242 
137 ,27.5898 ,1.26995 ,3.04331 ,29.86095 
138 ,27.7813 ,1.27188 ,3.03647 ,29.79380 
139 ,27.9739 ,1.27377 ,3.00567 ,29.49159 
140 ,28.1979 ,1.27602 ,2.98513 ,29.29012 
141 ,28.3899 ,1.27796 ,2.99882 ,29.42444 
142 ,28.5819 ,1.27984 ,2.98171 ,29.25654 
143 ,28.7902 ,1.28202 ,2.94407 ,28.88718 
144 ,28.9983 ,1.28400 ,2.93038 ,28.75287 
145 ,29.1903 ,1.28594 ,2.91669 ,28.61856 
146 ,29.3824 ,1.28785 ,2.92011 ,28.65213 
147 ,29.5581 ,1.28978 ,2.86878 ,28.14846 
148 ,29.7507 ,1.29158 ,2.86536 ,28.11488 
149 ,29.9587 ,1.29360 ,2.85509 ,28.01415 
150 ,30.1508 ,1.29553 ,2.83456 ,27.81268 
151 ,30.3588 ,1.29766 ,2.83114 ,27.77910 
152 ,30.5510 ,1.29959 ,2.80034 ,27.47689 
153 ,30.7429 ,1.30150 ,2.80376 ,27.51047 
154 ,30.9511 ,1.30354 ,2.76611 ,27.14111 
155 ,31.1430 ,1.30547 ,2.76611 ,27.14111 
156 ,31.3353 ,1.30738 ,2.72847 ,26.77175 
157 ,31.5274 ,1.30937 ,2.72847 ,26.77175 
158 ,31.7189 ,1.31129 ,2.71478 ,26.63744 
159 ,31.9115 ,1.31317 ,2.69083 ,26.40239 
160 ,32.1035 ,1.31502 ,2.70109 ,26.50312 
161 ,32.2956 ,1.31696 ,2.66345 ,26.13376 
162 ,32.4873 ,1.31894 ,2.66003 ,26.10018 
163 ,32.6956 ,1.32087 ,2.63607 ,25.86514 
164 ,32.9198 ,1.32311 ,2.61896 ,25.69724 
165 ,33.1118 ,1.32515 ,2.59843 ,25.49577 
166 ,33.3040 ,1.32708 ,2.59501 ,25.46220 
167 ,33.5121 ,1.32926 ,2.57105 ,25.22715 
168 ,33.7042 ,1.33105 ,2.56763 ,25.19357 
169 ,33.8962 ,1.33305 ,2.52998 ,24.82421 
170 ,34.0883 ,1.33496 ,2.52656 ,24.79063 
171 ,34.2965 ,1.33697 ,2.49918 ,24.52200 
172 ,34.5043 ,1.33895 ,2.49234 ,24.45485 
173 ,34.7126 ,1.34111 ,2.47865 ,24.32053 
174 ,34.9046 ,1.34315 ,2.47523 ,24.28696 
175 ,35.1124 ,1.34513 ,2.44443 ,23.98475 
176 ,35.3049 ,1.34704 ,2.44101 ,23.95117 
177 ,35.4968 ,1.34900 ,2.41363 ,23.68255 
178 ,35.6888 ,1.35091 ,2.41021 ,23.64897 
179 ,35.8811 ,1.35280 ,2.38968 ,23.44750 
180 ,36.0732 ,1.35477 ,2.36572 ,23.21245 
181 ,36.2972 ,1.35696 ,2.36914 ,23.24603 
182 ,36.5053 ,1.35911 ,2.34861 ,23.04456 
183 ,36.6976 ,1.36102 ,2.32808 ,22.84309 
184 ,36.8896 ,1.36293 ,2.32123 ,22.77593 
185 ,37.0977 ,1.36502 ,2.29728 ,22.54088 
186 ,37.3373 ,1.36729 ,2.28359 ,22.40657 
187 ,37.5458 ,1.36937 ,2.28017 ,22.37299 
188 ,37.7380 ,1.37141 ,2.24594 ,22.03721 
189 ,37.9299 ,1.37338 ,2.23910 ,21.97005 
190 ,38.1220 ,1.37523 ,2.22199 ,21.80216 
191 ,38.3138 ,1.37711 ,2.20146 ,21.60069 
192 ,38.5062 ,1.37907 ,2.20830 ,21.66785 
193 ,38.7143 ,1.38119 ,2.16039 ,21.19775 
194 ,38.9222 ,1.38315 ,2.17066 ,21.29849 
195 ,39.1142 ,1.38514 ,2.14328 ,21.02986 
196 ,39.3066 ,1.38710 ,2.14670 ,21.06344 
197 ,39.4987 ,1.38905 ,2.10906 ,20.69408 
198 ,39.7063 ,1.39109 ,2.12275 ,20.82839 
199 ,39.8986 ,1.39300 ,2.08510 ,20.45903 
200 ,40.1070 ,1.39509 ,2.07484 ,20.35829 
201 ,40.3150 ,1.39708 ,2.06799 ,20.29114 
202 ,40.5067 ,1.39908 ,2.05088 ,20.12325 
203 ,40.6992 ,1.40105 ,2.02693 ,19.88820 
204 ,40.9068 ,1.40310 ,2.03035 ,19.92178 
205 ,41.0989 ,1.40497 ,2.00297 ,19.65315 
206 ,41.2912 ,1.40689 ,1.98928 ,19.51884 
207 ,41.4834 ,1.40884 ,1.99270 ,19.55241 
208 ,41.6756 ,1.41078 ,1.95848 ,19.21663 
209 ,41.8837 ,1.41288 ,1.95164 ,19.14948 
210 ,42.1078 ,1.41497 ,1.92768 ,18.91443 
211 ,42.3158 ,1.41711 ,1.91742 ,18.81369 
212 ,42.5239 ,1.41919 ,1.90715 ,18.71296 
213 ,42.7155 ,1.42115 ,1.87293 ,18.37717 
214 ,42.9081 ,1.42314 ,1.87977 ,18.44433 
215 ,43.1002 ,1.42504 ,1.84555 ,18.10855 
216 ,43.3083 ,1.42701 ,1.83871 ,18.04139 
217 ,43.5164 ,1.42921 ,1.81133 ,17.77276 
218 ,43.7083 ,1.43109 ,1.80791 ,17.73919 
219 ,43.9005 ,1.43300 ,1.79422 ,17.60487 
220 ,44.1246 ,1.43515 ,1.78737 ,17.53772 
221 ,44.3325 ,1.43725 ,1.77026 ,17.36983 
222 ,44.5247 ,1.43929 ,1.76000 ,17.26909 
223 ,44.7169 ,1.44116 ,1.73262 ,17.00046 
224 ,44.9085 ,1.44318 ,1.73946 ,17.06762 
225 ,45.1010 ,1.44504 ,1.71551 ,16.83257 
226 ,45.2929 ,1.44696 ,1.68471 ,16.53037 
227 ,45.4852 ,1.44881 ,1.69498 ,16.63110 
228 ,45.6770 ,1.45081 ,1.66418 ,16.32890 
229 ,45.8694 ,1.45269 ,1.67444 ,16.42963 
230 ,46.0612 ,1.45457 ,1.63680 ,16.06027 
231 ,46.2695 ,1.45667 ,1.63680 ,16.06027 
232 ,46.4614 ,1.45859 ,1.62653 ,15.95954 
233 ,46.6538 ,1.46053 ,1.61284 ,15.82522 
234 ,46.8617 ,1.46256 ,1.60258 ,15.72449 
235 ,47.0696 ,1.46465 ,1.58889 ,15.59018 
236 ,47.2620 ,1.46667 ,1.56493 ,15.35513 
237 ,47.4701 ,1.46872 ,1.56151 ,15.32155 
238 ,47.6621 ,1.47062 ,1.54440 ,15.15366 
239 ,47.8863 ,1.47276 ,1.53756 ,15.08650 
240 ,48.0943 ,1.47492 ,1.48965 ,14.61640 
241 ,48.2862 ,1.47687 ,1.50676 ,14.78430 
242 ,48.4786 ,1.47878 ,1.47596 ,14.48209 
243 ,48.6706 ,1.48067 ,1.46227 ,14.34778 
244 ,48.8624 ,1.48257 ,1.45885 ,14.31420 
245 ,49.0547 ,1.48448 ,1.44174 ,14.14631 
246 ,49.2464 ,1.48642 ,1.43147 ,14.04557 
247 ,49.4388 ,1.48838 ,1.42120 ,13.94484 
248 ,49.6469 ,1.49042 ,1.42120 ,13.94484 
249 ,49.8390 ,1.49236 ,1.37671 ,13.50832 
250 ,50.0472 ,1.49432 ,1.39040 ,13.64263 
251 ,50.2552 ,1.49649 ,1.36303 ,13.37401 
252 ,50.4311 ,1.49843 ,1.35960 ,13.34043 
253 ,50.6233 ,1.50022 ,1.33907 ,13.13896 
254 ,50.8152 ,1.50216 ,1.31512 ,12.90391 
255 ,51.0234 ,1.50424 ,1.32196 ,12.97107 
256 ,51.2155 ,1.50611 ,1.28774 ,12.63528 
257 ,51.4073 ,1.50803 ,1.29458 ,12.70244 
258 ,51.6158 ,1.51006 ,1.26036 ,12.36666 
259 ,51.8236 ,1.51221 ,1.26036 ,12.36666 
260 ,52.0160 ,1.51415 ,1.22956 ,12.06445 
261 ,52.2238 ,1.51621 ,1.22614 ,12.03088 
262 ,52.4316 ,1.51826 ,1.20903 ,11.86298 
263 ,52.6556 ,1.52048 ,1.18850 ,11.66151 
264 ,52.8482 ,1.52248 ,1.20561 ,11.82941 
265 ,53.0879 ,1.52487 ,1.18507 ,11.62794 
266 ,53.2804 ,1.52675 ,1.15085 ,11.29215 
267 ,53.4724 ,1.52867 ,1.13716 ,11.15784 
268 ,53.6804 ,1.53075 ,1.13716 ,11.15784 
269 ,53.8888 ,1.53284 ,1.13716 ,11.15784 
270 ,54.0968 ,1.53492 ,1.08925 ,10.68774 
271 ,54.2889 ,1.53698 ,1.09610 ,10.75490 
272 ,54.4809 ,1.53874 ,1.07556 ,10.55343 
273 ,54.6731 ,1.54067 ,1.06872 ,10.48627 
274 ,54.8812 ,1.54271 ,1.06530 ,10.45270 
275 ,55.0893 ,1.54488 ,1.04134 ,10.21765 
276 ,55.2814 ,1.54676 ,1.01396 ,9.94902 
277 ,55.4573 ,1.54865 ,1.00028 ,9.81471 
278 ,55.6495 ,1.55043 ,1.01396 ,9.94902 
279 ,55.8572 ,1.55253 ,0.98317 ,9.64682 
280 ,56.0497 ,1.55450 ,0.99001 ,9.71397 
281 ,56.2577 ,1.55651 ,0.95921 ,9.41177 
282 ,56.4498 ,1.55842 ,0.95237 ,9.34461 
283 ,56.6578 ,1.56053 ,0.92841 ,9.10956 
284 ,56.8658 ,1.56250 ,0.93183 ,9.14314 
285 ,57.0739 ,1.56469 ,0.90446 ,8.87451 
286 ,57.2817 ,1.56674 ,0.89761 ,8.80736 
287 ,57.4742 ,1.56872 ,0.87366 ,8.57231 
288 ,57.6820 ,1.57078 ,0.87366 ,8.57231 
289 ,57.8743 ,1.57263 ,0.86339 ,8.47158 
290 ,58.0659 ,1.57458 ,0.85312 ,8.37084 
291 ,58.2586 ,1.57654 ,0.83259 ,8.16937 
292 ,58.4665 ,1.57858 ,0.82917 ,8.13579 
293 ,58.6587 ,1.58053 ,0.80179 ,7.86717 
294 ,58.8666 ,1.58260 ,0.80179 ,7.86717 
295 ,59.0747 ,1.58474 ,0.76072 ,7.46423 
296 ,59.2667 ,1.58667 ,0.78468 ,7.69927 
297 ,59.4590 ,1.58859 ,0.74704 ,7.32991 
298 ,59.6671 ,1.59062 ,0.74361 ,7.29633 
299 ,59.8593 ,1.59257 ,0.74019 ,7.26276 
300 ,60.0512 ,1.59444 ,0.72992 ,7.16202 
301 ,60.2589 ,1.59650 ,0.71966 ,7.06129 
302 ,60.4515 ,1.59847 ,0.69913 ,6.85982 
303 ,60.6595 ,1.60051 ,0.68544 ,6.72550 
304 ,60.8516 ,1.60247 ,0.66833 ,6.55761 
305 ,61.0596 ,1.60455 ,0.65464 ,6.42330 
306 ,61.2518 ,1.60647 ,0.64779 ,6.35614 
307 ,61.4275 ,1.60834 ,0.63753 ,6.25541 
308 ,61.6198 ,1.61012 ,0.62042 ,6.08752 
309 ,61.8118 ,1.61203 ,0.60330 ,5.91962 
310 ,62.0040 ,1.61401 ,0.61357 ,6.02036 
311 ,62.2121 ,1.61601 ,0.58619 ,5.75173 
312 ,62.4038 ,1.61802 ,0.57251 ,5.61742 
313 ,62.5964 ,1.61993 ,0.55539 ,5.44953 
314 ,62.8043 ,1.62195 ,0.56566 ,5.55026 
315 ,63.0123 ,1.62404 ,0.53486 ,5.24806 
316 ,63.2044 ,1.62593 ,0.54171 ,5.31522 
317 ,63.4286 ,1.62821 ,0.53144 ,5.21448 
318 ,63.6367 ,1.63028 ,0.49722 ,4.87870 
319 ,63.8286 ,1.63226 ,0.50064 ,4.91228 
320 ,64.0369 ,1.63428 ,0.47326 ,4.64365 
321 ,64.2288 ,1.63621 ,0.48011 ,4.71081 
322 ,64.4209 ,1.63809 ,0.45957 ,4.50934 
323 ,64.6126 ,1.64003 ,0.44588 ,4.37502 
324 ,64.8052 ,1.64202 ,0.43220 ,4.24071 
325 ,65.0132 ,1.64404 ,0.42193 ,4.13997 
326 ,65.2054 ,1.64600 ,0.42877 ,4.20713 
327 ,65.3971 ,1.64791 ,0.40824 ,4.00566 
328 ,65.5895 ,1.64978 ,0.39797 ,3.90493 
329 ,65.7811 ,1.65169 ,0.38771 ,3.80419 
330 ,65.9737 ,1.65367 ,0.37060 ,3.63630 
331 ,66.1816 ,1.65570 ,0.36033 ,3.53557 
332 ,66.3898 ,1.65766 ,0.33295 ,3.26694 
333 ,66.5979 ,1.65991 ,0.33638 ,3.30052 
334 ,66.7895 ,1.66182 ,0.30900 ,3.03189 
335 ,66.9821 ,1.66380 ,0.31584 ,3.09905 
336 ,67.1900 ,1.66581 ,0.29873 ,2.93116 
337 ,67.3822 ,1.66771 ,0.29873 ,2.93116 
338 ,67.5903 ,1.66983 ,0.27478 ,2.69611 
339 ,67.7821 ,1.67174 ,0.27820 ,2.72969 
340 ,67.9904 ,1.67380 ,0.25767 ,2.52822 
341 ,68.1985 ,1.67593 ,0.24055 ,2.36032 
342 ,68.3906 ,1.67785 ,0.23371 ,2.29317 
343 ,68.5986 ,1.67989 ,0.22344 ,2.19243 
344 ,68.7907 ,1.68179 ,0.20633 ,2.02454 
345 ,68.9825 ,1.68371 ,0.20633 ,2.02454 
346 ,69.1749 ,1.68565 ,0.17896 ,1.75592 
347 ,69.3830 ,1.68776 ,0.17211 ,1.68876 
348 ,69.5910 ,1.68979 ,0.14473 ,1.42013 
349 ,69.7828 ,1.69173 ,0.17211 ,1.68876 
350 ,69.9751 ,1.69365 ,0.13447 ,1.31940 
351 ,70.1673 ,1.69553 ,0.14816 ,1.45371 
352 ,70.3594 ,1.69750 ,0.12420 ,1.21866 
353 ,70.5675 ,1.69954 ,0.11736 ,1.15151 
354 ,70.7593 ,1.70152 ,0.11393 ,1.11793 
355 ,70.9676 ,1.70359 ,0.08656 ,0.84930 
356 ,71.1753 ,1.70569 ,0.06602 ,0.64783 
357 ,71.3838 ,1.70769 ,0.06602 ,0.64783 
358 ,71.5919 ,1.70983 ,0.04891 ,0.47994 
359 ,71.8159 ,1.71193 ,0.04891 ,0.47994 
360 ,72.0238 ,1.71414 ,0.04207 ,0.41278 
361 ,72.2318 ,1.71624 ,0.00785 ,0.07700 
362 ,72.4402 ,1.71818 ,0.01811 ,0.17773 
363 ,72.6483 ,1.72032 ,-0.00926 ,-0.09089 
364 ,72.8403 ,1.72228 ,-0.00584 ,-0.05731 
365 ,73.0324 ,1.72419 ,-0.02980 ,-0.29236 
366 ,73.2245 ,1.72618 ,-0.01611 ,-0.15805 
367 ,73.4322 ,1.72821 ,-0.05375 ,-0.52741 
368 ,73.6246 ,1.73018 ,-0.04006 ,-0.39310 
369 ,73.8326 ,1.73223 ,-0.06402 ,-0.62814 
370 ,74.0247 ,1.73413 ,-0.07086 ,-0.69530 
371 ,74.2167 ,1.73607 ,-0.08113 ,-0.79604 
372 ,74.4090 ,1.73799 ,-0.10166 ,-0.99751 
373 ,74.6170 ,1.74003 ,-0.10166 ,-0.99751 
374 ,74.8091 ,1.74197 ,-0.10851 ,-1.06466 
375 ,75.0012 ,1.74388 ,-0.10851 ,-1.06466 
376 ,75.2093 ,1.74593 ,-0.13931 ,-1.36687 
377 ,75.4015 ,1.74790 ,-0.13588 ,-1.33329 
378 ,75.5932 ,1.74981 ,-0.17011 ,-1.66907 
379 ,75.8014 ,1.75188 ,-0.15642 ,-1.53476 
380 ,75.9936 ,1.75388 ,-0.17695 ,-1.73623 
381 ,76.2014 ,1.75587 ,-0.17011 ,-1.66907 
382 ,76.3938 ,1.75777 ,-0.21117 ,-2.07201 
383 ,76.5857 ,1.75977 ,-0.21459 ,-2.10559 
384 ,76.7779 ,1.76168 ,-0.21459 ,-2.10559 
385 ,76.9861 ,1.76380 ,-0.22486 ,-2.20632 
386 ,77.1942 ,1.76587 ,-0.24539 ,-2.40779 
387 ,77.3863 ,1.76777 ,-0.23513 ,-2.30706 
388 ,77.5943 ,1.76979 ,-0.25566 ,-2.50853 
389 ,77.7861 ,1.77175 ,-0.27277 ,-2.67642 
390 ,77.9786 ,1.77367 ,-0.27619 ,-2.71000 
391 ,78.1706 ,1.77570 ,-0.28988 ,-2.84431 
392 ,78.3626 ,1.77749 ,-0.28646 ,-2.81073 
393 ,78.5544 ,1.77947 ,-0.30357 ,-2.97863 
394 ,78.7628 ,1.78147 ,-0.29673 ,-2.91147 
395 ,78.9545 ,1.78341 ,-0.31726 ,-3.11294 
396 ,79.1469 ,1.78530 ,-0.34121 ,-3.34799 
397 ,79.3391 ,1.78724 ,-0.31726 ,-3.11294 
398 ,79.5313 ,1.78915 ,-0.35148 ,-3.44872 
399 ,79.7232 ,1.79107 ,-0.35148 ,-3.44872 
400 ,79.9313 ,1.79317 ,-0.37544 ,-3.68377 
401 ,80.1233 ,1.79505 ,-0.38228 ,-3.75093 
402 ,80.3155 ,1.79704 ,-0.38570 ,-3.78450 
403 ,80.5076 ,1.79894 ,-0.40281 ,-3.95240 
404 ,80.7156 ,1.80103 ,-0.39597 ,-3.88524 
405 ,80.9237 ,1.80298 ,-0.43019 ,-4.22102 
406 ,81.1476 ,1.80529 ,-0.43361 ,-4.25460 
407 ,81.3399 ,1.80724 ,-0.43361 ,-4.25460 
408 ,81.5478 ,1.80934 ,-0.45757 ,-4.48965 
409 ,81.7402 ,1.81126 ,-0.45414 ,-4.45607 
410 ,81.9321 ,1.81324 ,-0.46783 ,-4.59038 
411 ,82.1401 ,1.81527 ,-0.47126 ,-4.62396 
412 ,82.3323 ,1.81716 ,-0.49521 ,-4.85901 
413 ,82.5404 ,1.81928 ,-0.48494 ,-4.75828 
414 ,82.7323 ,1.82119 ,-0.51574 ,-5.06048 
415 ,82.9245 ,1.82308 ,-0.53970 ,-5.29553 
416 ,83.1166 ,1.82505 ,-0.51232 ,-5.02690 
417 ,83.3082 ,1.82692 ,-0.54997 ,-5.39626 
418 ,83.5007 ,1.82882 ,-0.53628 ,-5.26195 
419 ,83.6929 ,1.83078 ,-0.54997 ,-5.39626 
420 ,83.8848 ,1.83270 ,-0.57392 ,-5.63131 
421 ,84.0770 ,1.83458 ,-0.56023 ,-5.49700 
422 ,84.2686 ,1.83656 ,-0.59103 ,-5.79920 
423 ,84.4612 ,1.83842 ,-0.58419 ,-5.73205 
424 ,84.6691 ,1.84051 ,-0.60814 ,-5.96709 
425 ,84.8614 ,1.84241 ,-0.59788 ,-5.86636 
426 ,85.0531 ,1.84432 ,-0.61156 ,-6.00067 
427 ,85.2455 ,1.84632 ,-0.63894 ,-6.26930 
428 ,85.4373 ,1.84824 ,-0.62183 ,-6.10141 
429 ,85.6297 ,1.85016 ,-0.65947 ,-6.47077 
430 ,85.8374 ,1.85223 ,-0.64579 ,-6.33646 
431 ,86.0297 ,1.85413 ,-0.67659 ,-6.63866 
432 ,86.2217 ,1.85607 ,-0.66974 ,-6.57150 
433 ,86.4299 ,1.85811 ,-0.68685 ,-6.73940 
434 ,86.6218 ,1.86006 ,-0.69027 ,-6.77297 
435 ,86.8299 ,1.86214 ,-0.70054 ,-6.87371 
436 ,87.0383 ,1.86418 ,-0.68343 ,-6.70582 
437 ,87.2301 ,1.86615 ,-0.72792 ,-7.14233 
438 ,87.4542 ,1.86834 ,-0.71081 ,-6.97444 
439 ,87.6620 ,1.87041 ,-0.72107 ,-7.07518 
440 ,87.8545 ,1.87236 ,-0.74161 ,-7.27665 
441 ,88.0468 ,1.87424 ,-0.74845 ,-7.34380 
442 ,88.2388 ,1.87624 ,-0.76214 ,-7.47812 
443 ,88.4469 ,1.87826 ,-0.78267 ,-7.67959 
444 ,88.6390 ,1.88028 ,-0.76214 ,-7.47812 
445 ,88.8305 ,1.88224 ,-0.79294 ,-7.78032 
446 ,89.0229 ,1.88402 ,-0.78267 ,-7.67959 
447 ,89.2151 ,1.88599 ,-0.79636 ,-7.81390 
448 ,89.4072 ,1.88791 ,-0.82374 ,-8.08253 
449 ,89.5992 ,1.88985 ,-0.82032 ,-8.04895 
450 ,89.7910 ,1.89170 ,-0.84085 ,-8.25042 
451 ,89.9834 ,1.89366 ,-0.84085 ,-8.25042 
452 ,90.1913 ,1.89578 ,-0.84769 ,-8.31758 
453 ,90.3997 ,1.89769 ,-0.85796 ,-8.41831 
454 ,90.6076 ,1.89998 ,-0.88192 ,-8.65336 
455 ,90.8158 ,1.90196 ,-0.87507 ,-8.58620 
456 ,91.0078 ,1.90387 ,-0.89903 ,-8.82125 
457 ,91.1999 ,1.90586 ,-0.88876 ,-8.72051 
458 ,91.4079 ,1.90790 ,-0.90587 ,-8.88841 
459 ,91.6000 ,1.90988 ,-0.91272 ,-8.95556 
460 ,91.7917 ,1.91173 ,-0.91272 ,-8.95556 
461 ,91.9839 ,1.91367 ,-0.92298 ,-9.05630 
462 ,92.1924 ,1.91569 ,-0.92983 ,-9.12345 
463 ,92.3843 ,1.91772 ,-0.95378 ,-9.35850 
