Data stamp = , 29-04-2022 14:38:44 038

Calibration Values: 
Slope = , 26.54 , g/V 
Offset Voltage at no contact = , -0.501760 , V 

No , Time , Stage Position ,   Mass , Force 
   ,  (s) ,      (mm)      ,   (g)  , (mN)  

1 ,0.0000 ,1.04950 ,5.01106 ,49.16848 
2 ,0.2060 ,1.04957 ,5.03843 ,49.43710 
3 ,0.8786 ,1.05224 ,5.01790 ,49.23563 
4 ,1.0704 ,1.05499 ,5.03159 ,49.36995 
5 ,1.2633 ,1.05684 ,5.02817 ,49.33637 
6 ,1.4710 ,1.05890 ,5.01448 ,49.20205 
7 ,1.6628 ,1.06082 ,5.00421 ,49.10132 
8 ,1.8549 ,1.06276 ,4.96315 ,48.69838 
9 ,2.0472 ,1.06472 ,4.96657 ,48.73196 
10 ,2.2391 ,1.06662 ,4.93577 ,48.42975 
11 ,2.4313 ,1.06859 ,4.91181 ,48.19471 
12 ,2.6394 ,1.07056 ,4.90497 ,48.12755 
13 ,2.8316 ,1.07251 ,4.89128 ,47.99324 
14 ,3.0396 ,1.07457 ,4.85364 ,47.62387 
15 ,3.2313 ,1.07655 ,4.85364 ,47.62387 
16 ,3.4234 ,1.07850 ,4.82626 ,47.35525 
17 ,3.6158 ,1.08036 ,4.80573 ,47.15378 
18 ,3.8079 ,1.08232 ,4.79888 ,47.08662 
19 ,4.0158 ,1.08436 ,4.76124 ,46.71726 
20 ,4.2080 ,1.08629 ,4.76124 ,46.71726 
21 ,4.4003 ,1.08823 ,4.74413 ,46.54937 
22 ,4.6083 ,1.09035 ,4.73044 ,46.41506 
23 ,4.8000 ,1.09225 ,4.70306 ,46.14643 
24 ,5.2004 ,1.09626 ,4.65173 ,45.64275 
25 ,5.3922 ,1.09820 ,4.65173 ,45.64275 
26 ,5.5847 ,1.10008 ,4.63462 ,45.47486 
27 ,5.7928 ,1.10219 ,4.60040 ,45.13908 
28 ,6.0008 ,1.10426 ,4.57986 ,44.93761 
29 ,6.1928 ,1.10618 ,4.55933 ,44.73614 
30 ,6.3850 ,1.10809 ,4.55933 ,44.73614 
31 ,6.5765 ,1.10996 ,4.53537 ,44.50109 
32 ,6.7691 ,1.11187 ,4.52511 ,44.40036 
33 ,6.9613 ,1.11386 ,4.49773 ,44.13173 
34 ,7.1533 ,1.11573 ,4.47035 ,43.86310 
35 ,7.3615 ,1.11786 ,4.45324 ,43.69521 
36 ,7.5694 ,1.11991 ,4.44982 ,43.66163 
37 ,7.7615 ,1.12188 ,4.43613 ,43.52732 
38 ,7.9538 ,1.12378 ,4.39849 ,43.15796 
39 ,8.1456 ,1.12567 ,4.38822 ,43.05723 
40 ,8.3376 ,1.12757 ,4.36427 ,42.82218 
41 ,8.5296 ,1.12950 ,4.34716 ,42.65429 
42 ,8.7214 ,1.13147 ,4.33689 ,42.55355 
43 ,8.9140 ,1.13340 ,4.30609 ,42.25135 
44 ,9.1221 ,1.13549 ,4.30951 ,42.28492 
45 ,9.3140 ,1.13743 ,4.27871 ,41.98272 
46 ,9.5062 ,1.13928 ,4.27187 ,41.91556 
47 ,9.7142 ,1.14135 ,4.23422 ,41.54620 
48 ,9.9065 ,1.14326 ,4.24107 ,41.61336 
49 ,10.1143 ,1.14539 ,4.19316 ,41.14326 
50 ,10.3225 ,1.14748 ,4.20000 ,41.21042 
51 ,10.5147 ,1.14936 ,4.15551 ,40.77390 
52 ,10.7065 ,1.15132 ,4.14525 ,40.67317 
53 ,10.8984 ,1.15316 ,4.15894 ,40.80748 
54 ,11.1069 ,1.15522 ,4.12129 ,40.43812 
55 ,11.2992 ,1.15720 ,4.11445 ,40.37096 
56 ,11.5071 ,1.15928 ,4.09049 ,40.13591 
57 ,11.6989 ,1.16121 ,4.08023 ,40.03518 
58 ,11.9072 ,1.16330 ,4.04600 ,39.69940 
59 ,12.1314 ,1.16540 ,4.04943 ,39.73297 
60 ,12.3394 ,1.16760 ,4.02205 ,39.46435 
61 ,12.5476 ,1.16959 ,3.99125 ,39.16214 
62 ,12.7555 ,1.17177 ,3.97414 ,38.99425 
63 ,12.9474 ,1.17364 ,3.96729 ,38.92709 
64 ,13.1398 ,1.17558 ,3.95703 ,38.82636 
65 ,13.3319 ,1.17756 ,3.91938 ,38.45700 
66 ,13.5396 ,1.17950 ,3.92965 ,38.55773 
67 ,13.7320 ,1.18148 ,3.89543 ,38.22195 
68 ,13.9242 ,1.18345 ,3.88516 ,38.12122 
69 ,14.1477 ,1.18556 ,3.84752 ,37.75185 
70 ,14.3242 ,1.18759 ,3.84752 ,37.75185 
71 ,14.5164 ,1.18941 ,3.82356 ,37.51681 
72 ,14.7084 ,1.19128 ,3.81330 ,37.41607 
73 ,14.9166 ,1.19336 ,3.80303 ,37.31534 
74 ,15.1085 ,1.19527 ,3.76539 ,36.94597 
75 ,15.3160 ,1.19737 ,3.75512 ,36.84524 
76 ,15.5085 ,1.19932 ,3.72774 ,36.57661 
77 ,15.7004 ,1.20124 ,3.72774 ,36.57661 
78 ,15.8923 ,1.20313 ,3.70037 ,36.30799 
79 ,16.0683 ,1.20502 ,3.70379 ,36.34157 
80 ,16.2606 ,1.20680 ,3.67299 ,36.03936 
81 ,16.4686 ,1.20874 ,3.65588 ,35.87147 
82 ,16.6610 ,1.21079 ,3.63877 ,35.70358 
83 ,16.8532 ,1.21270 ,3.61481 ,35.46853 
84 ,17.0452 ,1.21468 ,3.59770 ,35.30064 
85 ,17.2373 ,1.21656 ,3.61139 ,35.43495 
86 ,17.4291 ,1.21849 ,3.56690 ,34.99843 
87 ,17.6216 ,1.22041 ,3.57717 ,35.09917 
88 ,17.8294 ,1.22251 ,3.53610 ,34.69623 
89 ,18.0217 ,1.22442 ,3.53610 ,34.69623 
90 ,18.2298 ,1.22648 ,3.49846 ,34.32687 
91 ,18.4216 ,1.22844 ,3.49504 ,34.29329 
92 ,18.6138 ,1.23032 ,3.48135 ,34.15898 
93 ,18.8061 ,1.23223 ,3.45739 ,33.92393 
94 ,19.0142 ,1.23421 ,3.45055 ,33.85677 
95 ,19.2062 ,1.23624 ,3.40606 ,33.42025 
96 ,19.4142 ,1.23831 ,3.41975 ,33.55457 
97 ,19.6064 ,1.24025 ,3.37868 ,33.15163 
98 ,19.7985 ,1.24216 ,3.39237 ,33.28594 
99 ,20.0225 ,1.24445 ,3.35815 ,32.95016 
100 ,20.2146 ,1.24633 ,3.34788 ,32.84942 
101 ,20.4066 ,1.24822 ,3.31366 ,32.51364 
102 ,20.5987 ,1.25019 ,3.31708 ,32.54722 
103 ,20.7907 ,1.25206 ,3.28971 ,32.27859 
104 ,20.9829 ,1.25395 ,3.28971 ,32.27859 
105 ,21.1751 ,1.25589 ,3.27259 ,32.11070 
106 ,21.3671 ,1.25787 ,3.23837 ,31.77492 
107 ,21.5752 ,1.25997 ,3.23495 ,31.74134 
108 ,21.7673 ,1.26188 ,3.20415 ,31.43913 
109 ,21.9753 ,1.26398 ,3.21442 ,31.53987 
110 ,22.1832 ,1.26602 ,3.17335 ,31.13693 
111 ,22.3755 ,1.26793 ,3.16651 ,31.06977 
112 ,22.5835 ,1.26998 ,3.14597 ,30.86830 
113 ,22.7756 ,1.27189 ,3.14597 ,30.86830 
114 ,22.9997 ,1.27414 ,3.12886 ,30.70041 
115 ,23.1914 ,1.27608 ,3.10149 ,30.43178 
116 ,23.3840 ,1.27797 ,3.07753 ,30.19674 
117 ,23.5759 ,1.27989 ,3.08438 ,30.26389 
118 ,23.7841 ,1.28202 ,3.03647 ,29.79380 
119 ,23.9756 ,1.28390 ,3.04673 ,29.89453 
120 ,24.1683 ,1.28583 ,3.00224 ,29.45801 
121 ,24.3761 ,1.28793 ,3.00567 ,29.49159 
122 ,24.5684 ,1.28984 ,2.98171 ,29.25654 
123 ,24.7767 ,1.29193 ,2.98171 ,29.25654 
124 ,24.9525 ,1.29383 ,2.95433 ,28.98792 
125 ,25.1445 ,1.29555 ,2.92696 ,28.71929 
126 ,25.3527 ,1.29766 ,2.91669 ,28.61856 
127 ,25.5445 ,1.29959 ,2.90300 ,28.48424 
128 ,25.7529 ,1.30170 ,2.89958 ,28.45066 
129 ,25.9446 ,1.30357 ,2.86536 ,28.11488 
130 ,26.1367 ,1.30553 ,2.86536 ,28.11488 
131 ,26.3289 ,1.30746 ,2.84482 ,27.91341 
132 ,26.5533 ,1.30963 ,2.83798 ,27.84625 
133 ,26.7448 ,1.31161 ,2.79349 ,27.40974 
134 ,26.9374 ,1.31352 ,2.80034 ,27.47689 
135 ,27.1290 ,1.31544 ,2.78322 ,27.30900 
136 ,27.3050 ,1.31728 ,2.75927 ,27.07395 
137 ,27.5136 ,1.31915 ,2.76611 ,27.14111 
138 ,27.7217 ,1.32123 ,2.72847 ,26.77175 
139 ,27.9297 ,1.32334 ,2.71478 ,26.63744 
140 ,28.1218 ,1.32538 ,2.69767 ,26.46954 
141 ,28.3137 ,1.32725 ,2.69083 ,26.40239 
142 ,28.5221 ,1.32928 ,2.66345 ,26.13376 
143 ,28.7299 ,1.33146 ,2.64976 ,25.99945 
144 ,28.9382 ,1.33343 ,2.62238 ,25.73082 
145 ,29.1463 ,1.33559 ,2.60185 ,25.52935 
146 ,29.3543 ,1.33766 ,2.59843 ,25.49577 
147 ,29.5465 ,1.33958 ,2.57789 ,25.29430 
148 ,29.7544 ,1.34169 ,2.57447 ,25.26073 
149 ,29.9465 ,1.34358 ,2.54367 ,24.95852 
150 ,30.1387 ,1.34548 ,2.54367 ,24.95852 
151 ,30.3307 ,1.34744 ,2.52314 ,24.75705 
152 ,30.5224 ,1.34938 ,2.49918 ,24.52200 
153 ,30.7308 ,1.35136 ,2.50261 ,24.55558 
154 ,30.9387 ,1.35349 ,2.47181 ,24.25338 
155 ,31.1469 ,1.35556 ,2.44785 ,24.01833 
156 ,31.3389 ,1.35751 ,2.44443 ,23.98475 
157 ,31.5469 ,1.35961 ,2.42390 ,23.78328 
158 ,31.7390 ,1.36147 ,2.40679 ,23.61539 
159 ,31.9314 ,1.36349 ,2.41021 ,23.64897 
160 ,32.1233 ,1.36537 ,2.37599 ,23.31318 
161 ,32.3315 ,1.36733 ,2.37941 ,23.34676 
162 ,32.5396 ,1.36956 ,2.35545 ,23.11171 
163 ,32.7472 ,1.37157 ,2.32808 ,22.84309 
164 ,32.9399 ,1.37353 ,2.31097 ,22.67520 
165 ,33.1476 ,1.37560 ,2.30412 ,22.60804 
166 ,33.3560 ,1.37758 ,2.28359 ,22.40657 
167 ,33.5478 ,1.37961 ,2.26306 ,22.20510 
168 ,33.7400 ,1.38153 ,2.24937 ,22.07079 
169 ,33.9321 ,1.38344 ,2.24937 ,22.07079 
170 ,34.1403 ,1.38552 ,2.22541 ,21.83574 
171 ,34.3324 ,1.38742 ,2.21857 ,21.76858 
172 ,34.5243 ,1.38936 ,2.18777 ,21.46638 
173 ,34.7164 ,1.39125 ,2.18092 ,21.39922 
174 ,34.9080 ,1.39320 ,2.18092 ,21.39922 
175 ,35.1165 ,1.39519 ,2.14670 ,21.06344 
176 ,35.3245 ,1.39733 ,2.12959 ,20.89555 
177 ,35.5165 ,1.39924 ,2.13301 ,20.92912 
178 ,35.7086 ,1.40118 ,2.11590 ,20.76123 
179 ,35.9169 ,1.40320 ,2.08168 ,20.42545 
180 ,36.1090 ,1.40526 ,2.07826 ,20.39187 
181 ,36.3169 ,1.40727 ,2.05773 ,20.19040 
182 ,36.5091 ,1.40919 ,2.04404 ,20.05609 
183 ,36.7330 ,1.41141 ,2.04404 ,20.05609 
184 ,36.9414 ,1.41355 ,2.00982 ,19.72031 
185 ,37.1331 ,1.41549 ,2.00639 ,19.68673 
186 ,37.3255 ,1.41739 ,1.97902 ,19.41810 
187 ,37.5174 ,1.41927 ,1.97559 ,19.38452 
188 ,37.7097 ,1.42119 ,1.96533 ,19.28379 
189 ,37.9176 ,1.42329 ,1.94137 ,19.04874 
190 ,38.1098 ,1.42523 ,1.93111 ,18.94801 
191 ,38.3021 ,1.42712 ,1.90373 ,18.67938 
192 ,38.5100 ,1.42921 ,1.89688 ,18.61222 
193 ,38.7021 ,1.43113 ,1.87977 ,18.44433 
194 ,38.8943 ,1.43300 ,1.87635 ,18.41075 
195 ,39.0865 ,1.43496 ,1.85240 ,18.17570 
196 ,39.2778 ,1.43687 ,1.85240 ,18.17570 
197 ,39.4705 ,1.43883 ,1.83528 ,18.00781 
198 ,39.6786 ,1.44088 ,1.80791 ,17.73919 
199 ,39.8705 ,1.44282 ,1.80791 ,17.73919 
200 ,40.0786 ,1.44486 ,1.78053 ,17.47056 
201 ,40.2706 ,1.44678 ,1.77711 ,17.43698 
202 ,40.4629 ,1.44875 ,1.74631 ,17.13478 
203 ,40.6707 ,1.45076 ,1.73262 ,17.00046 
204 ,40.8789 ,1.45278 ,1.71893 ,16.86615 
205 ,41.0709 ,1.45477 ,1.72235 ,16.89973 
206 ,41.2634 ,1.45675 ,1.69498 ,16.63110 
207 ,41.4548 ,1.45872 ,1.69498 ,16.63110 
208 ,41.6473 ,1.46054 ,1.66760 ,16.36248 
209 ,41.8395 ,1.46248 ,1.66075 ,16.29532 
210 ,42.0474 ,1.46457 ,1.64364 ,16.12743 
211 ,42.2391 ,1.46655 ,1.62653 ,15.95954 
212 ,42.4315 ,1.46840 ,1.61969 ,15.89238 
213 ,42.6397 ,1.47046 ,1.59573 ,15.65733 
214 ,42.8316 ,1.47244 ,1.60942 ,15.79164 
215 ,43.0239 ,1.47427 ,1.56493 ,15.35513 
216 ,43.2320 ,1.47642 ,1.56151 ,15.32155 
217 ,43.4239 ,1.47831 ,1.53413 ,15.05292 
218 ,43.6318 ,1.48037 ,1.53756 ,15.08650 
219 ,43.8243 ,1.48229 ,1.51018 ,14.81787 
220 ,44.0643 ,1.48470 ,1.49649 ,14.68356 
221 ,44.2565 ,1.48665 ,1.49649 ,14.68356 
222 ,44.4484 ,1.48857 ,1.46569 ,14.38136 
223 ,44.6404 ,1.49053 ,1.45885 ,14.31420 
224 ,44.8325 ,1.49242 ,1.45200 ,14.24704 
225 ,45.0406 ,1.49446 ,1.42462 ,13.97842 
226 ,45.2487 ,1.49643 ,1.42462 ,13.97842 
227 ,45.4569 ,1.49864 ,1.41094 ,13.84410 
228 ,45.6492 ,1.50057 ,1.38356 ,13.57548 
229 ,45.8570 ,1.50265 ,1.38356 ,13.57548 
230 ,46.0491 ,1.50450 ,1.35276 ,13.27327 
231 ,46.2413 ,1.50650 ,1.33565 ,13.10538 
232 ,46.4493 ,1.50860 ,1.33223 ,13.07180 
233 ,46.6413 ,1.51044 ,1.31512 ,12.90391 
234 ,46.8331 ,1.51236 ,1.31854 ,12.93749 
235 ,47.0576 ,1.51463 ,1.29116 ,12.66886 
236 ,47.2654 ,1.51673 ,1.28089 ,12.56813 
237 ,47.4576 ,1.51866 ,1.27405 ,12.50097 
238 ,47.6658 ,1.52076 ,1.24667 ,12.23235 
239 ,47.8737 ,1.52281 ,1.25009 ,12.26592 
240 ,48.0657 ,1.52471 ,1.22956 ,12.06445 
241 ,48.2580 ,1.52661 ,1.20561 ,11.82941 
242 ,48.4501 ,1.52851 ,1.20218 ,11.79583 
243 ,48.6422 ,1.53051 ,1.18507 ,11.62794 
244 ,48.8342 ,1.53245 ,1.18165 ,11.59436 
245 ,49.0259 ,1.53433 ,1.14058 ,11.19142 
246 ,49.2183 ,1.53623 ,1.14058 ,11.19142 
247 ,49.4265 ,1.53835 ,1.14058 ,11.19142 
248 ,49.6184 ,1.54026 ,1.11663 ,10.95637 
249 ,49.8106 ,1.54214 ,1.10979 ,10.88921 
250 ,50.0347 ,1.54441 ,1.08925 ,10.68774 
251 ,50.2267 ,1.54632 ,1.06872 ,10.48627 
252 ,50.4188 ,1.54823 ,1.03450 ,10.15049 
253 ,50.6108 ,1.55014 ,1.05503 ,10.35196 
254 ,50.8029 ,1.55203 ,1.02081 ,10.01618 
255 ,50.9950 ,1.55396 ,1.03450 ,10.15049 
256 ,51.2029 ,1.55607 ,0.99343 ,9.74755 
257 ,51.3949 ,1.55800 ,0.99001 ,9.71397 
258 ,51.5874 ,1.55998 ,0.99685 ,9.78113 
259 ,51.7792 ,1.56183 ,0.96263 ,9.44535 
260 ,51.9715 ,1.56371 ,0.95921 ,9.41177 
261 ,52.1635 ,1.56565 ,0.93183 ,9.14314 
262 ,52.3714 ,1.56773 ,0.93868 ,9.21030 
263 ,52.5634 ,1.56966 ,0.91130 ,8.94167 
264 ,52.7558 ,1.57155 ,0.90446 ,8.87451 
265 ,52.9640 ,1.57361 ,0.90446 ,8.87451 
266 ,53.1557 ,1.57566 ,0.87708 ,8.60589 
267 ,53.3318 ,1.57747 ,0.86339 ,8.47158 
268 ,53.5242 ,1.57928 ,0.85654 ,8.40442 
269 ,53.7160 ,1.58122 ,0.84286 ,8.27011 
270 ,53.9083 ,1.58311 ,0.82917 ,8.13579 
271 ,54.1163 ,1.58522 ,0.81206 ,7.96790 
272 ,54.2925 ,1.58709 ,0.81890 ,8.03506 
273 ,54.4842 ,1.58888 ,0.77099 ,7.56496 
274 ,54.6766 ,1.59083 ,0.78126 ,7.66570 
275 ,54.8686 ,1.59273 ,0.77441 ,7.59854 
276 ,55.0767 ,1.59480 ,0.75388 ,7.39707 
277 ,55.2845 ,1.59690 ,0.73335 ,7.19560 
278 ,55.4769 ,1.59878 ,0.73677 ,7.22918 
279 ,55.6690 ,1.60072 ,0.72308 ,7.09486 
280 ,55.8768 ,1.60279 ,0.69913 ,6.85982 
281 ,56.0690 ,1.60470 ,0.69913 ,6.85982 
282 ,56.2770 ,1.60674 ,0.67859 ,6.65835 
283 ,56.4690 ,1.60875 ,0.67175 ,6.59119 
284 ,56.6450 ,1.61060 ,0.63753 ,6.25541 
285 ,56.8376 ,1.61241 ,0.63068 ,6.18825 
286 ,57.0455 ,1.61449 ,0.62042 ,6.08752 
287 ,57.2536 ,1.61646 ,0.60673 ,5.95320 
288 ,57.4617 ,1.61863 ,0.59304 ,5.81889 
289 ,57.6538 ,1.62051 ,0.59646 ,5.85247 
290 ,57.8619 ,1.62262 ,0.56908 ,5.58384 
291 ,58.0538 ,1.62458 ,0.57251 ,5.61742 
292 ,58.2460 ,1.62646 ,0.55197 ,5.41595 
293 ,58.4700 ,1.62861 ,0.55197 ,5.41595 
294 ,58.6624 ,1.63066 ,0.51775 ,5.08017 
295 ,58.8699 ,1.63270 ,0.52117 ,5.11375 
296 ,59.0624 ,1.63463 ,0.50064 ,4.91228 
297 ,59.2546 ,1.63656 ,0.48695 ,4.77796 
298 ,59.4626 ,1.63867 ,0.46642 ,4.57649 
299 ,59.6547 ,1.64057 ,0.46300 ,4.54291 
300 ,59.8466 ,1.64248 ,0.45957 ,4.50934 
301 ,60.0227 ,1.64437 ,0.43220 ,4.24071 
302 ,60.2149 ,1.64615 ,0.43220 ,4.24071 
303 ,60.4067 ,1.64810 ,0.42877 ,4.20713 
304 ,60.6311 ,1.65039 ,0.40482 ,3.97208 
305 ,60.8391 ,1.65236 ,0.38771 ,3.80419 
306 ,61.0308 ,1.65431 ,0.39797 ,3.90493 
307 ,61.2233 ,1.65628 ,0.35349 ,3.46841 
308 ,61.4472 ,1.65844 ,0.37060 ,3.63630 
309 ,61.6395 ,1.66045 ,0.32953 ,3.23336 
310 ,61.8310 ,1.66231 ,0.34664 ,3.40125 
311 ,62.0236 ,1.66425 ,0.31926 ,3.13263 
312 ,62.2317 ,1.66635 ,0.31584 ,3.09905 
313 ,62.4237 ,1.66826 ,0.29531 ,2.89758 
314 ,62.6319 ,1.67023 ,0.28847 ,2.83042 
315 ,62.8399 ,1.67243 ,0.26109 ,2.56179 
316 ,63.0321 ,1.67432 ,0.27820 ,2.72969 
317 ,63.2237 ,1.67626 ,0.24740 ,2.42748 
318 ,63.4162 ,1.67817 ,0.23713 ,2.32675 
319 ,63.6239 ,1.68026 ,0.22344 ,2.19243 
320 ,63.8163 ,1.68212 ,0.20976 ,2.05812 
321 ,64.0405 ,1.68429 ,0.21318 ,2.09170 
322 ,64.2483 ,1.68647 ,0.19949 ,1.95738 
323 ,64.4566 ,1.68859 ,0.16869 ,1.65518 
324 ,64.6649 ,1.69063 ,0.16527 ,1.62160 
325 ,64.8725 ,1.69272 ,0.16185 ,1.58802 
326 ,65.0809 ,1.69482 ,0.13789 ,1.35298 
327 ,65.2726 ,1.69676 ,0.13789 ,1.35298 
328 ,65.4651 ,1.69864 ,0.12078 ,1.18508 
329 ,65.6728 ,1.70071 ,0.12762 ,1.25224 
330 ,65.8654 ,1.70263 ,0.10709 ,1.05077 
331 ,66.0572 ,1.70457 ,0.07287 ,0.71499 
332 ,66.2655 ,1.70665 ,0.08656 ,0.84930 
333 ,66.4570 ,1.70856 ,0.06260 ,0.61425 
334 ,66.6815 ,1.71070 ,0.05918 ,0.58067 
335 ,66.8894 ,1.71285 ,0.05576 ,0.54710 
336 ,67.0817 ,1.71483 ,0.03180 ,0.31205 
337 ,67.2894 ,1.71687 ,0.03522 ,0.34563 
338 ,67.4818 ,1.71881 ,0.00443 ,0.04342 
339 ,67.6739 ,1.72073 ,0.00100 ,0.00984 
340 ,67.8659 ,1.72263 ,-0.00584 ,-0.05731 
341 ,68.0738 ,1.72477 ,-0.01611 ,-0.15805 
342 ,68.2819 ,1.72669 ,-0.02637 ,-0.25878 
343 ,68.4901 ,1.72884 ,-0.03664 ,-0.35952 
344 ,68.6818 ,1.73080 ,-0.05033 ,-0.49383 
345 ,68.8743 ,1.73273 ,-0.05717 ,-0.56099 
346 ,69.0825 ,1.73477 ,-0.07771 ,-0.76246 
347 ,69.2739 ,1.73675 ,-0.09482 ,-0.93035 
348 ,69.4666 ,1.73860 ,-0.08455 ,-0.82961 
349 ,69.6584 ,1.74056 ,-0.12904 ,-1.26613 
350 ,69.8507 ,1.74245 ,-0.11877 ,-1.16540 
351 ,70.0428 ,1.74442 ,-0.13931 ,-1.36687 
352 ,70.2349 ,1.74630 ,-0.13588 ,-1.33329 
353 ,70.4269 ,1.74827 ,-0.14957 ,-1.46760 
354 ,70.6191 ,1.75012 ,-0.17011 ,-1.66907 
355 ,70.8111 ,1.75210 ,-0.15299 ,-1.50118 
356 ,71.0189 ,1.75412 ,-0.18037 ,-1.76981 
357 ,71.2114 ,1.75611 ,-0.18037 ,-1.76981 
358 ,71.4194 ,1.75818 ,-0.20775 ,-2.03843 
359 ,71.6115 ,1.76007 ,-0.21802 ,-2.13917 
360 ,71.8034 ,1.76210 ,-0.24539 ,-2.40779 
361 ,71.9952 ,1.76393 ,-0.23170 ,-2.27348 
362 ,72.1876 ,1.76586 ,-0.23855 ,-2.34064 
363 ,72.3958 ,1.76790 ,-0.26935 ,-2.64284 
364 ,72.5877 ,1.76982 ,-0.26250 ,-2.57569 
365 ,72.7800 ,1.77179 ,-0.28646 ,-2.81073 
366 ,72.9879 ,1.77379 ,-0.27277 ,-2.67642 
367 ,73.1641 ,1.77571 ,-0.31041 ,-3.04578 
368 ,73.3558 ,1.77758 ,-0.31726 ,-3.11294 
369 ,73.5481 ,1.77949 ,-0.30357 ,-2.97863 
370 ,73.7404 ,1.78132 ,-0.33437 ,-3.28083 
371 ,73.9482 ,1.78345 ,-0.33437 ,-3.28083 
372 ,74.1401 ,1.78533 ,-0.35148 ,-3.44872 
373 ,74.3325 ,1.78730 ,-0.37201 ,-3.65019 
374 ,74.5246 ,1.78924 ,-0.36517 ,-3.58303 
375 ,74.7167 ,1.79110 ,-0.38570 ,-3.78450 
376 ,74.9085 ,1.79306 ,-0.38228 ,-3.75093 
377 ,75.1167 ,1.79513 ,-0.41308 ,-4.05313 
378 ,75.3089 ,1.79706 ,-0.39597 ,-3.88524 
379 ,75.5009 ,1.79902 ,-0.41992 ,-4.12029 
380 ,75.6928 ,1.80088 ,-0.42335 ,-4.15387 
381 ,75.8847 ,1.80275 ,-0.43019 ,-4.22102 
382 ,76.0608 ,1.80467 ,-0.47126 ,-4.62396 
383 ,76.2527 ,1.80648 ,-0.45757 ,-4.48965 
384 ,76.4609 ,1.80852 ,-0.46441 ,-4.55681 
385 ,76.6530 ,1.81055 ,-0.49179 ,-4.82543 
386 ,76.8614 ,1.81247 ,-0.48837 ,-4.79185 
387 ,77.1336 ,1.81518 ,-0.50890 ,-4.99332 
388 ,77.3577 ,1.81747 ,-0.51574 ,-5.06048 
389 ,77.5499 ,1.81948 ,-0.52601 ,-5.16121 
390 ,77.7579 ,1.82151 ,-0.53970 ,-5.29553 
391 ,77.9500 ,1.82346 ,-0.54654 ,-5.36268 
392 ,78.1421 ,1.82537 ,-0.55681 ,-5.46342 
393 ,78.3341 ,1.82728 ,-0.57734 ,-5.66489 
394 ,78.5258 ,1.82915 ,-0.57050 ,-5.59773 
395 ,78.7182 ,1.83114 ,-0.61499 ,-6.03425 
396 ,78.9262 ,1.83320 ,-0.58761 ,-5.76562 
397 ,79.1184 ,1.83514 ,-0.60814 ,-5.96709 
398 ,79.3425 ,1.83728 ,-0.61156 ,-6.00067 
399 ,79.5345 ,1.83929 ,-0.63894 ,-6.26930 
400 ,79.7266 ,1.84120 ,-0.63552 ,-6.23572 
401 ,79.9183 ,1.84309 ,-0.65947 ,-6.47077 
402 ,80.0946 ,1.84497 ,-0.64579 ,-6.33646 
403 ,80.2870 ,1.84675 ,-0.66290 ,-6.50435 
404 ,80.4788 ,1.84876 ,-0.68343 ,-6.70582 
405 ,80.6868 ,1.85079 ,-0.67316 ,-6.60508 
406 ,80.8792 ,1.85274 ,-0.70739 ,-6.94086 
407 ,81.1030 ,1.85489 ,-0.69712 ,-6.84013 
408 ,81.2955 ,1.85687 ,-0.71765 ,-7.04160 
409 ,81.4872 ,1.85879 ,-0.72107 ,-7.07518 
410 ,81.6956 ,1.86086 ,-0.75187 ,-7.37738 
411 ,81.8712 ,1.86277 ,-0.73818 ,-7.24307 
412 ,82.0637 ,1.86452 ,-0.75530 ,-7.41096 
413 ,82.2556 ,1.86652 ,-0.77925 ,-7.64601 
414 ,82.4479 ,1.86841 ,-0.76556 ,-7.51170 
415 ,82.6398 ,1.87034 ,-0.78267 ,-7.67959 
416 ,82.8316 ,1.87223 ,-0.79978 ,-7.84748 
417 ,83.0239 ,1.87413 ,-0.79636 ,-7.81390 
418 ,83.2000 ,1.87605 ,-0.82032 ,-8.04895 
419 ,83.3921 ,1.87780 ,-0.82374 ,-8.08253 
420 ,83.5840 ,1.87971 ,-0.81347 ,-7.98179 
421 ,83.7763 ,1.88169 ,-0.84769 ,-8.31758 
422 ,83.9841 ,1.88380 ,-0.84769 ,-8.31758 
423 ,84.1763 ,1.88565 ,-0.87165 ,-8.55262 
424 ,84.3847 ,1.88771 ,-0.86823 ,-8.51904 
425 ,84.5764 ,1.88969 ,-0.88534 ,-8.68694 
426 ,84.7688 ,1.89162 ,-0.88534 ,-8.68694 
427 ,84.9768 ,1.89364 ,-0.91614 ,-8.98914 
428 ,85.1845 ,1.89580 ,-0.88534 ,-8.68694 
429 ,85.3766 ,1.89765 ,-0.91614 ,-8.98914 
430 ,85.5690 ,1.89956 ,-0.91614 ,-8.98914 
431 ,85.7769 ,1.90166 ,-0.94009 ,-9.22419 
432 ,85.9853 ,1.90374 ,-0.93667 ,-9.19061 
433 ,86.1769 ,1.90570 ,-0.96063 ,-9.42566 
434 ,86.3692 ,1.90765 ,-0.97089 ,-9.52639 
435 ,86.5774 ,1.90962 ,-0.98116 ,-9.62713 
436 ,86.7695 ,1.91157 ,-0.98116 ,-9.62713 
437 ,86.9616 ,1.91348 ,-0.99143 ,-9.72786 
438 ,87.1538 ,1.91539 ,-1.00511 ,-9.86218 
439 ,87.3458 ,1.91737 ,-0.99827 ,-9.79502 
440 ,87.5379 ,1.91928 ,-1.01538 ,-9.96291 
441 ,87.7300 ,1.92128 ,-1.02565 ,-10.06365 
442 ,87.9221 ,1.92317 ,-1.02222 ,-10.03007 
443 ,88.1141 ,1.92508 ,-1.04960 ,-10.29869 
444 ,88.3219 ,1.92715 ,-1.04276 ,-10.23154 
445 ,88.5303 ,1.92924 ,-1.05987 ,-10.39943 
446 ,88.7383 ,1.93128 ,-1.06671 ,-10.46659 
447 ,88.9303 ,1.93321 ,-1.08725 ,-10.66806 
448 ,89.1225 ,1.93514 ,-1.07014 ,-10.50016 
449 ,89.3303 ,1.93728 ,-1.09409 ,-10.73521 
450 ,89.5384 ,1.93925 ,-1.09751 ,-10.76879 
451 ,89.7628 ,1.94142 ,-1.09409 ,-10.73521 
452 ,89.9707 ,1.94364 ,-1.12831 ,-11.07100 
453 ,90.1789 ,1.94568 ,-1.13516 ,-11.13815 
454 ,90.3708 ,1.94756 ,-1.13516 ,-11.13815 
455 ,90.5786 ,1.94963 ,-1.14542 ,-11.23889 
456 ,90.7707 ,1.95157 ,-1.15227 ,-11.30604 
457 ,90.9634 ,1.95349 ,-1.15911 ,-11.37320 
458 ,91.1712 ,1.95559 ,-1.17964 ,-11.57467 
459 ,91.3638 ,1.95753 ,-1.17280 ,-11.50751 
460 ,91.5556 ,1.95948 ,-1.19333 ,-11.70898 
461 ,91.7475 ,1.96135 ,-1.19676 ,-11.74256 
