Data stamp = , 30-04-2022 13:04:52 387

Calibration Values: 
Slope = , 26.54 , g/V 
Offset Voltage at no contact = , -0.501760 , V 

No , Time , Stage Position ,   Mass , Force 
   ,  (s) ,      (mm)      ,   (g)  , (mN)  

1 ,0.0000 ,0.99945 ,5.42172 ,53.19787 
2 ,0.2174 ,0.99953 ,5.42514 ,53.23145 
3 ,1.0338 ,1.00318 ,5.42514 ,53.23145 
4 ,1.2904 ,1.00705 ,5.41145 ,53.09714 
5 ,1.4980 ,1.00914 ,5.39776 ,52.96282 
6 ,1.6907 ,1.01112 ,5.37381 ,52.72778 
7 ,1.8984 ,1.01316 ,5.36354 ,52.62704 
8 ,2.0908 ,1.01514 ,5.33274 ,52.32484 
9 ,2.2826 ,1.01704 ,5.32589 ,52.25768 
10 ,2.4909 ,1.01906 ,5.29510 ,51.95548 
11 ,2.6988 ,1.02124 ,5.28825 ,51.88832 
12 ,2.9231 ,1.02329 ,5.25403 ,51.55254 
13 ,3.1309 ,1.02549 ,5.23692 ,51.38464 
14 ,3.3232 ,1.02742 ,5.22323 ,51.25033 
15 ,3.5312 ,1.02944 ,5.18559 ,50.88097 
16 ,3.7234 ,1.03140 ,5.18559 ,50.88097 
17 ,3.9155 ,1.03333 ,5.16848 ,50.71308 
18 ,4.1235 ,1.03540 ,5.15136 ,50.54519 
19 ,4.3153 ,1.03733 ,5.12399 ,50.27656 
20 ,4.5076 ,1.03921 ,5.08977 ,49.94078 
21 ,4.7314 ,1.04138 ,5.07265 ,49.77289 
22 ,4.9396 ,1.04352 ,5.06581 ,49.70573 
23 ,5.1319 ,1.04549 ,5.04185 ,49.47068 
24 ,5.3239 ,1.04743 ,5.03843 ,49.43710 
25 ,5.5320 ,1.04947 ,5.00079 ,49.06774 
26 ,5.7240 ,1.05141 ,4.99052 ,48.96701 
27 ,5.9163 ,1.05330 ,4.98710 ,48.93343 
28 ,6.1086 ,1.05526 ,4.93235 ,48.39618 
29 ,6.3005 ,1.05715 ,4.93577 ,48.42975 
30 ,6.5084 ,1.05925 ,4.90155 ,48.09397 
31 ,6.7007 ,1.06114 ,4.90497 ,48.12755 
32 ,6.9084 ,1.06327 ,4.87075 ,47.79177 
33 ,7.1005 ,1.06520 ,4.85706 ,47.65745 
34 ,7.2926 ,1.06712 ,4.84337 ,47.52314 
35 ,7.4845 ,1.06900 ,4.81599 ,47.25451 
36 ,7.6765 ,1.07091 ,4.81599 ,47.25451 
37 ,7.8526 ,1.07278 ,4.78177 ,46.91873 
38 ,8.0447 ,1.07463 ,4.77150 ,46.81800 
39 ,8.2532 ,1.07661 ,4.76466 ,46.75084 
40 ,8.4613 ,1.07880 ,4.73044 ,46.41506 
41 ,8.6534 ,1.08072 ,4.72017 ,46.31432 
42 ,8.8614 ,1.08267 ,4.69622 ,46.07927 
43 ,9.0691 ,1.08483 ,4.68253 ,45.94496 
44 ,9.2615 ,1.08681 ,4.66884 ,45.81065 
45 ,9.4696 ,1.08887 ,4.63804 ,45.50844 
46 ,9.6617 ,1.09078 ,4.64146 ,45.54202 
47 ,9.8697 ,1.09289 ,4.60040 ,45.13908 
48 ,10.0615 ,1.09476 ,4.59355 ,45.07192 
49 ,10.2539 ,1.09665 ,4.57644 ,44.90403 
50 ,10.4460 ,1.09859 ,4.54906 ,44.63541 
51 ,10.6380 ,1.10048 ,4.54222 ,44.56825 
52 ,10.8301 ,1.10244 ,4.50800 ,44.23247 
53 ,11.0223 ,1.10438 ,4.50115 ,44.16531 
54 ,11.2144 ,1.10633 ,4.49089 ,44.06457 
55 ,11.4225 ,1.10835 ,4.47035 ,43.86310 
56 ,11.6139 ,1.11040 ,4.43613 ,43.52732 
57 ,11.8061 ,1.11222 ,4.42586 ,43.42659 
58 ,11.9821 ,1.11411 ,4.42244 ,43.39301 
59 ,12.1748 ,1.11590 ,4.39849 ,43.15796 
60 ,12.3825 ,1.11797 ,4.37111 ,42.88933 
61 ,12.5749 ,1.11990 ,4.36769 ,42.85576 
62 ,12.7670 ,1.12182 ,4.35058 ,42.68786 
63 ,12.9590 ,1.12369 ,4.34716 ,42.65429 
64 ,13.1672 ,1.12574 ,4.31293 ,42.31850 
65 ,13.3754 ,1.12792 ,4.30951 ,42.28492 
66 ,13.5834 ,1.12996 ,4.26845 ,41.88198 
67 ,13.7756 ,1.13189 ,4.26160 ,41.81483 
68 ,13.9675 ,1.13380 ,4.22396 ,41.44547 
69 ,14.1596 ,1.13576 ,4.23080 ,41.51262 
70 ,14.3678 ,1.13781 ,4.19658 ,41.17684 
71 ,14.5595 ,1.13977 ,4.18974 ,41.10968 
72 ,14.7357 ,1.14160 ,4.17262 ,40.94179 
73 ,14.9278 ,1.14344 ,4.14183 ,40.63959 
74 ,15.1039 ,1.14527 ,4.14525 ,40.67317 
75 ,15.2960 ,1.14707 ,4.12471 ,40.47170 
76 ,15.4882 ,1.14904 ,4.09734 ,40.20307 
77 ,15.6642 ,1.15089 ,4.10418 ,40.27023 
78 ,15.8724 ,1.15275 ,4.09049 ,40.13591 
79 ,16.0960 ,1.15504 ,4.07680 ,40.00160 
80 ,16.2883 ,1.15699 ,4.03574 ,39.59866 
81 ,16.4966 ,1.15908 ,4.02889 ,39.53150 
82 ,16.6722 ,1.16099 ,3.99809 ,39.22930 
83 ,16.8647 ,1.16281 ,3.97756 ,39.02783 
84 ,17.0568 ,1.16469 ,3.98098 ,39.06141 
85 ,17.2486 ,1.16661 ,3.94676 ,38.72562 
86 ,17.4409 ,1.16857 ,3.93307 ,38.59131 
87 ,17.6330 ,1.17048 ,3.92281 ,38.49058 
88 ,17.8250 ,1.17249 ,3.90570 ,38.32268 
89 ,18.0172 ,1.17427 ,3.90227 ,38.28911 
90 ,18.2094 ,1.17622 ,3.87147 ,37.98690 
91 ,18.4014 ,1.17817 ,3.86463 ,37.91975 
92 ,18.6095 ,1.18014 ,3.83383 ,37.61754 
93 ,18.8332 ,1.18235 ,3.83041 ,37.58396 
94 ,19.0417 ,1.18451 ,3.79961 ,37.28176 
95 ,19.2818 ,1.18692 ,3.77908 ,37.08029 
96 ,19.4738 ,1.18890 ,3.76539 ,36.94597 
97 ,19.6658 ,1.19088 ,3.74485 ,36.74450 
98 ,19.8577 ,1.19265 ,3.73801 ,36.67735 
99 ,20.0499 ,1.19464 ,3.71063 ,36.40872 
100 ,20.2577 ,1.19673 ,3.70037 ,36.30799 
101 ,20.4502 ,1.19856 ,3.66272 ,35.93863 
102 ,20.6422 ,1.20060 ,3.67299 ,36.03936 
103 ,20.8343 ,1.20248 ,3.64903 ,35.80431 
104 ,21.0260 ,1.20439 ,3.61139 ,35.43495 
105 ,21.2184 ,1.20630 ,3.62166 ,35.53569 
106 ,21.4266 ,1.20842 ,3.59086 ,35.23348 
107 ,21.6347 ,1.21043 ,3.57032 ,35.03201 
108 ,21.8268 ,1.21235 ,3.54637 ,34.79696 
109 ,22.0186 ,1.21432 ,3.54637 ,34.79696 
110 ,22.2109 ,1.21624 ,3.52584 ,34.59549 
111 ,22.4189 ,1.21824 ,3.52241 ,34.56192 
112 ,22.6112 ,1.22018 ,3.47792 ,34.12540 
113 ,22.8190 ,1.22229 ,3.49161 ,34.25971 
114 ,23.0113 ,1.22422 ,3.45397 ,33.89035 
115 ,23.2030 ,1.22617 ,3.44713 ,33.82319 
116 ,23.3953 ,1.22808 ,3.43344 ,33.68888 
117 ,23.6034 ,1.23012 ,3.40948 ,33.45383 
118 ,23.7956 ,1.23210 ,3.39237 ,33.28594 
119 ,23.9874 ,1.23398 ,3.36499 ,33.01731 
120 ,24.1956 ,1.23601 ,3.36842 ,33.05089 
121 ,24.3877 ,1.23793 ,3.34788 ,32.84942 
122 ,24.5958 ,1.24003 ,3.33077 ,32.68153 
123 ,24.7877 ,1.24197 ,3.29313 ,32.31217 
124 ,24.9800 ,1.24383 ,3.30682 ,32.44648 
125 ,25.1881 ,1.24588 ,3.26575 ,32.04354 
126 ,25.3641 ,1.24789 ,3.27602 ,32.14428 
127 ,25.5562 ,1.24964 ,3.26233 ,32.00996 
128 ,25.7643 ,1.25172 ,3.22811 ,31.67418 
129 ,25.9565 ,1.25361 ,3.22468 ,31.64060 
130 ,26.1485 ,1.25557 ,3.19388 ,31.33840 
131 ,26.3726 ,1.25768 ,3.18020 ,31.20409 
132 ,26.5646 ,1.25985 ,3.17335 ,31.13693 
133 ,26.7567 ,1.26157 ,3.15624 ,30.96904 
134 ,26.9487 ,1.26354 ,3.12886 ,30.70041 
135 ,27.1730 ,1.26568 ,3.10833 ,30.49894 
136 ,27.3808 ,1.26790 ,3.09806 ,30.39821 
137 ,27.5566 ,1.26976 ,3.07753 ,30.19674 
138 ,27.7489 ,1.27163 ,3.06042 ,30.02884 
139 ,27.9572 ,1.27360 ,3.04331 ,29.86095 
140 ,28.1492 ,1.27557 ,3.02962 ,29.72664 
141 ,28.3573 ,1.27758 ,3.02278 ,29.65948 
142 ,28.5490 ,1.27954 ,3.00567 ,29.49159 
143 ,28.7251 ,1.28142 ,2.99540 ,29.39086 
144 ,28.9175 ,1.28325 ,2.96460 ,29.08865 
145 ,29.1098 ,1.28513 ,2.95776 ,29.02150 
146 ,29.3177 ,1.28728 ,2.94749 ,28.92076 
147 ,29.5100 ,1.28919 ,2.92011 ,28.65213 
148 ,29.7177 ,1.29123 ,2.90642 ,28.51782 
149 ,29.9101 ,1.29319 ,2.89273 ,28.38351 
150 ,30.1178 ,1.29526 ,2.88247 ,28.28277 
151 ,30.3104 ,1.29721 ,2.86536 ,28.11488 
152 ,30.5183 ,1.29918 ,2.87220 ,28.18204 
153 ,30.7105 ,1.30115 ,2.82771 ,27.74552 
154 ,30.9023 ,1.30320 ,2.81745 ,27.64479 
155 ,31.0941 ,1.30498 ,2.79349 ,27.40974 
156 ,31.2867 ,1.30690 ,2.80034 ,27.47689 
157 ,31.4787 ,1.30886 ,2.77296 ,27.20827 
158 ,31.6707 ,1.31087 ,2.75927 ,27.07395 
159 ,31.8628 ,1.31269 ,2.75243 ,27.00680 
160 ,32.0547 ,1.31461 ,2.72847 ,26.77175 
161 ,32.2625 ,1.31667 ,2.72163 ,26.70459 
162 ,32.4545 ,1.31861 ,2.67714 ,26.26807 
163 ,32.6466 ,1.32053 ,2.69767 ,26.46954 
164 ,32.8389 ,1.32246 ,2.66003 ,26.10018 
165 ,33.0469 ,1.32448 ,2.66345 ,26.13376 
166 ,33.2714 ,1.32681 ,2.63607 ,25.86514 
167 ,33.4635 ,1.32871 ,2.62923 ,25.79798 
168 ,33.6714 ,1.33081 ,2.60185 ,25.52935 
169 ,33.8797 ,1.33286 ,2.58474 ,25.36146 
170 ,34.0717 ,1.33480 ,2.56421 ,25.15999 
171 ,34.2797 ,1.33683 ,2.55736 ,25.09283 
172 ,34.4876 ,1.33891 ,2.54367 ,24.95852 
173 ,34.6797 ,1.34086 ,2.51630 ,24.68989 
174 ,34.8879 ,1.34288 ,2.51972 ,24.72347 
175 ,35.0797 ,1.34481 ,2.48550 ,24.38769 
176 ,35.2722 ,1.34675 ,2.47865 ,24.32053 
177 ,35.4640 ,1.34868 ,2.48550 ,24.38769 
178 ,35.6724 ,1.35082 ,2.44101 ,23.95117 
179 ,35.8645 ,1.35271 ,2.44785 ,24.01833 
180 ,36.0726 ,1.35481 ,2.41363 ,23.68255 
181 ,36.2802 ,1.35688 ,2.39652 ,23.51465 
182 ,36.4565 ,1.35878 ,2.38625 ,23.41392 
183 ,36.6488 ,1.36056 ,2.38968 ,23.44750 
184 ,36.8409 ,1.36251 ,2.35545 ,23.11171 
185 ,37.0328 ,1.36436 ,2.33492 ,22.91024 
186 ,37.2411 ,1.36637 ,2.34177 ,22.97740 
187 ,37.4491 ,1.36853 ,2.32123 ,22.77593 
188 ,37.6410 ,1.37042 ,2.29385 ,22.50731 
189 ,37.8333 ,1.37239 ,2.27332 ,22.30584 
190 ,38.0254 ,1.37431 ,2.27674 ,22.33941 
191 ,38.2335 ,1.37638 ,2.24252 ,22.00363 
192 ,38.4254 ,1.37831 ,2.24252 ,22.00363 
193 ,38.6496 ,1.38044 ,2.21515 ,21.73500 
194 ,38.8417 ,1.38246 ,2.20146 ,21.60069 
195 ,39.0497 ,1.38450 ,2.19119 ,21.49996 
196 ,39.2415 ,1.38644 ,2.17408 ,21.33206 
197 ,39.4339 ,1.38841 ,2.16723 ,21.26491 
198 ,39.6259 ,1.39026 ,2.15697 ,21.16417 
199 ,39.8178 ,1.39218 ,2.11932 ,20.79481 
200 ,40.0261 ,1.39428 ,2.12617 ,20.86197 
201 ,40.2502 ,1.39643 ,2.09195 ,20.52619 
202 ,40.4422 ,1.39844 ,2.07484 ,20.35829 
203 ,40.6341 ,1.40041 ,2.08168 ,20.42545 
204 ,40.8423 ,1.40240 ,2.05088 ,20.12325 
205 ,41.0346 ,1.40443 ,2.04404 ,20.05609 
206 ,41.2262 ,1.40632 ,2.04746 ,20.08967 
207 ,41.4346 ,1.40838 ,2.00982 ,19.72031 
208 ,41.6266 ,1.41029 ,2.00639 ,19.68673 
209 ,41.8343 ,1.41240 ,1.97559 ,19.38452 
210 ,42.0430 ,1.41432 ,1.97559 ,19.38452 
211 ,42.2510 ,1.41654 ,1.95506 ,19.18305 
212 ,42.4431 ,1.41848 ,1.94479 ,19.08232 
213 ,42.6511 ,1.42055 ,1.92768 ,18.91443 
214 ,42.8432 ,1.42241 ,1.91057 ,18.74654 
215 ,43.0674 ,1.42459 ,1.90031 ,18.64580 
216 ,43.2914 ,1.42699 ,1.89346 ,18.57864 
217 ,43.5155 ,1.42903 ,1.84897 ,18.14213 
218 ,43.7078 ,1.43113 ,1.85924 ,18.24286 
219 ,43.9155 ,1.43317 ,1.82160 ,17.87350 
220 ,44.1077 ,1.43510 ,1.83186 ,17.97423 
221 ,44.3156 ,1.43715 ,1.80106 ,17.67203 
222 ,44.5240 ,1.43916 ,1.80791 ,17.73919 
223 ,44.7317 ,1.44133 ,1.76684 ,17.33625 
224 ,44.9240 ,1.44324 ,1.76684 ,17.33625 
225 ,45.1159 ,1.44515 ,1.73946 ,17.06762 
226 ,45.3243 ,1.44715 ,1.73946 ,17.06762 
227 ,45.5165 ,1.44920 ,1.71551 ,16.83257 
228 ,45.7246 ,1.45123 ,1.70182 ,16.69826 
229 ,45.9165 ,1.45317 ,1.67102 ,16.39605 
230 ,46.1086 ,1.45506 ,1.69840 ,16.66468 
231 ,46.3326 ,1.45731 ,1.66418 ,16.32890 
232 ,46.5408 ,1.45936 ,1.64022 ,16.09385 
233 ,46.7167 ,1.46127 ,1.63680 ,16.06027 
234 ,46.9088 ,1.46312 ,1.62311 ,15.92596 
235 ,47.0849 ,1.46496 ,1.59573 ,15.65733 
236 ,47.2768 ,1.46677 ,1.58547 ,15.55660 
237 ,47.4692 ,1.46879 ,1.59231 ,15.62375 
238 ,47.6769 ,1.47076 ,1.56493 ,15.35513 
239 ,47.8693 ,1.47264 ,1.56836 ,15.38871 
240 ,48.0775 ,1.47477 ,1.53071 ,15.01934 
241 ,48.2694 ,1.47669 ,1.52387 ,14.95219 
242 ,48.4615 ,1.47862 ,1.49991 ,14.71714 
243 ,48.6536 ,1.48051 ,1.49991 ,14.71714 
244 ,48.8458 ,1.48247 ,1.48965 ,14.61640 
245 ,49.0697 ,1.48458 ,1.47596 ,14.48209 
246 ,49.2779 ,1.48669 ,1.43489 ,14.07915 
247 ,49.4856 ,1.48889 ,1.44516 ,14.17989 
248 ,49.6939 ,1.49085 ,1.41436 ,13.87768 
249 ,49.8862 ,1.49287 ,1.42120 ,13.94484 
250 ,50.0941 ,1.49490 ,1.40409 ,13.77695 
251 ,50.2864 ,1.49685 ,1.38698 ,13.60906 
252 ,50.4781 ,1.49876 ,1.34934 ,13.23969 
253 ,50.6545 ,1.50063 ,1.37671 ,13.50832 
254 ,50.8465 ,1.50246 ,1.35960 ,13.34043 
255 ,51.0384 ,1.50440 ,1.32196 ,12.97107 
256 ,51.2307 ,1.50633 ,1.32880 ,13.03822 
257 ,51.4227 ,1.50825 ,1.30485 ,12.80318 
258 ,51.6307 ,1.51030 ,1.30485 ,12.80318 
259 ,51.8230 ,1.51223 ,1.28432 ,12.60171 
260 ,52.0311 ,1.51434 ,1.27405 ,12.50097 
261 ,52.2232 ,1.51622 ,1.25352 ,12.29950 
262 ,52.4311 ,1.51819 ,1.25009 ,12.26592 
263 ,52.6234 ,1.52026 ,1.21245 ,11.89656 
264 ,52.8312 ,1.52221 ,1.23641 ,12.13161 
265 ,53.0394 ,1.52440 ,1.18850 ,11.66151 
266 ,53.2316 ,1.52628 ,1.20218 ,11.79583 
267 ,53.4236 ,1.52819 ,1.17138 ,11.49362 
268 ,53.6157 ,1.53016 ,1.15770 ,11.35931 
269 ,53.8235 ,1.53223 ,1.14743 ,11.25857 
270 ,54.0319 ,1.53425 ,1.13716 ,11.15784 
271 ,54.2399 ,1.53635 ,1.10979 ,10.88921 
272 ,54.4320 ,1.53826 ,1.10979 ,10.88921 
273 ,54.6240 ,1.54027 ,1.07899 ,10.58701 
274 ,54.8162 ,1.54212 ,1.07214 ,10.51985 
275 ,54.9918 ,1.54399 ,1.07899 ,10.58701 
276 ,55.1844 ,1.54585 ,1.05503 ,10.35196 
277 ,55.3765 ,1.54769 ,1.02765 ,10.08333 
278 ,55.5684 ,1.54962 ,1.03792 ,10.18407 
279 ,55.7446 ,1.55151 ,1.00028 ,9.81471 
280 ,55.9369 ,1.55339 ,1.00370 ,9.84829 
281 ,56.1125 ,1.55524 ,0.99685 ,9.78113 
282 ,56.3048 ,1.55702 ,0.96948 ,9.51250 
283 ,56.4971 ,1.55899 ,0.96948 ,9.51250 
284 ,56.6889 ,1.56085 ,0.96605 ,9.47892 
285 ,56.8969 ,1.56289 ,0.93525 ,9.17672 
286 ,57.0891 ,1.56485 ,0.92841 ,9.10956 
287 ,57.3291 ,1.56730 ,0.92157 ,9.04241 
288 ,57.5372 ,1.56932 ,0.89077 ,8.74020 
289 ,57.7291 ,1.57123 ,0.89761 ,8.80736 
290 ,57.9216 ,1.57317 ,0.87023 ,8.53873 
291 ,58.1137 ,1.57511 ,0.87366 ,8.57231 
292 ,58.3215 ,1.57722 ,0.84628 ,8.30368 
293 ,58.5297 ,1.57923 ,0.84970 ,8.33726 
294 ,58.7220 ,1.58119 ,0.81206 ,7.96790 
295 ,58.9299 ,1.58326 ,0.82575 ,8.10221 
296 ,59.1219 ,1.58519 ,0.79152 ,7.76643 
297 ,59.3140 ,1.58707 ,0.79152 ,7.76643 
298 ,59.5222 ,1.58913 ,0.76757 ,7.53138 
299 ,59.7300 ,1.59129 ,0.77441 ,7.59854 
300 ,59.9224 ,1.59315 ,0.74019 ,7.26276 
301 ,60.1146 ,1.59511 ,0.74361 ,7.29633 
302 ,60.3224 ,1.59719 ,0.71281 ,6.99413 
303 ,60.5146 ,1.59907 ,0.70939 ,6.96055 
304 ,60.7064 ,1.60102 ,0.71281 ,6.99413 
305 ,60.9146 ,1.60308 ,0.69570 ,6.82624 
306 ,61.1068 ,1.60500 ,0.67517 ,6.62477 
307 ,61.3147 ,1.60710 ,0.66833 ,6.55761 
308 ,61.5070 ,1.60903 ,0.64437 ,6.32256 
309 ,61.7151 ,1.61102 ,0.62042 ,6.08752 
310 ,61.9231 ,1.61318 ,0.62042 ,6.08752 
311 ,62.1311 ,1.61516 ,0.61699 ,6.05394 
312 ,62.3391 ,1.61735 ,0.59304 ,5.81889 
313 ,62.5310 ,1.61924 ,0.59646 ,5.85247 
314 ,62.7232 ,1.62120 ,0.57593 ,5.65100 
315 ,62.9156 ,1.62311 ,0.55197 ,5.41595 
316 ,63.1079 ,1.62504 ,0.55539 ,5.44953 
317 ,63.3315 ,1.62716 ,0.54513 ,5.34879 
318 ,63.5238 ,1.62912 ,0.52117 ,5.11375 
319 ,63.7315 ,1.63125 ,0.53486 ,5.24806 
320 ,63.9239 ,1.63324 ,0.50064 ,4.91228 
321 ,64.1477 ,1.63530 ,0.50064 ,4.91228 
322 ,64.3561 ,1.63751 ,0.48011 ,4.71081 
323 ,64.5483 ,1.63942 ,0.47668 ,4.67723 
324 ,64.7402 ,1.64135 ,0.45615 ,4.47576 
325 ,64.9323 ,1.64323 ,0.46642 ,4.57649 
326 ,65.1404 ,1.64530 ,0.42535 ,4.17355 
327 ,65.3326 ,1.64730 ,0.43220 ,4.24071 
328 ,65.5404 ,1.64934 ,0.40140 ,3.93850 
329 ,65.7326 ,1.65127 ,0.40824 ,4.00566 
330 ,65.9243 ,1.65317 ,0.38086 ,3.73703 
331 ,66.1328 ,1.65516 ,0.37402 ,3.66988 
332 ,66.3405 ,1.65731 ,0.35691 ,3.50199 
333 ,66.5328 ,1.65924 ,0.36375 ,3.56914 
334 ,66.7251 ,1.66121 ,0.33638 ,3.30052 
335 ,66.9330 ,1.66326 ,0.33638 ,3.30052 
336 ,67.1253 ,1.66517 ,0.31584 ,3.09905 
337 ,67.3493 ,1.66746 ,0.30558 ,2.99831 
338 ,67.5569 ,1.66954 ,0.27135 ,2.66253 
339 ,67.7492 ,1.67141 ,0.29189 ,2.86400 
340 ,67.9252 ,1.67327 ,0.28504 ,2.79684 
341 ,68.1173 ,1.67514 ,0.25424 ,2.49464 
342 ,68.3099 ,1.67708 ,0.25082 ,2.46106 
343 ,68.5179 ,1.67910 ,0.24740 ,2.42748 
344 ,68.7101 ,1.68106 ,0.22687 ,2.22601 
345 ,68.9179 ,1.68308 ,0.21318 ,2.09170 
346 ,69.1261 ,1.68514 ,0.19607 ,1.92381 
347 ,69.3179 ,1.68706 ,0.18580 ,1.82307 
348 ,69.5102 ,1.68897 ,0.19607 ,1.92381 
349 ,69.7020 ,1.69097 ,0.15842 ,1.55445 
350 ,69.8945 ,1.69285 ,0.16869 ,1.65518 
351 ,70.1027 ,1.69498 ,0.14473 ,1.42013 
352 ,70.3102 ,1.69712 ,0.14473 ,1.42013 
353 ,70.5028 ,1.69899 ,0.12420 ,1.21866 
354 ,70.7104 ,1.70098 ,0.13447 ,1.31940 
355 ,70.9029 ,1.70295 ,0.10025 ,0.98361 
356 ,71.0950 ,1.70486 ,0.11393 ,1.11793 
357 ,71.3029 ,1.70694 ,0.08656 ,0.84930 
358 ,71.4951 ,1.70885 ,0.08656 ,0.84930 
359 ,71.7031 ,1.71095 ,0.05576 ,0.54710 
360 ,71.8953 ,1.71288 ,0.05576 ,0.54710 
361 ,72.0869 ,1.71474 ,0.04891 ,0.47994 
362 ,72.2628 ,1.71668 ,0.04207 ,0.41278 
363 ,72.4549 ,1.71846 ,0.03865 ,0.37920 
364 ,72.6636 ,1.72047 ,0.00785 ,0.07700 
365 ,72.8872 ,1.72280 ,0.00785 ,0.07700 
366 ,73.0797 ,1.72473 ,-0.01269 ,-0.12447 
367 ,73.2876 ,1.72681 ,-0.01269 ,-0.12447 
368 ,73.4956 ,1.72884 ,-0.01611 ,-0.15805 
369 ,73.6877 ,1.73077 ,-0.03322 ,-0.32594 
370 ,73.8801 ,1.73271 ,-0.05033 ,-0.49383 
371 ,74.0719 ,1.73467 ,-0.05717 ,-0.56099 
372 ,74.2641 ,1.73655 ,-0.07428 ,-0.72888 
373 ,74.4561 ,1.73840 ,-0.06744 ,-0.66172 
374 ,74.6480 ,1.74037 ,-0.09482 ,-0.93035 
375 ,74.8404 ,1.74229 ,-0.09824 ,-0.96393 
376 ,75.0485 ,1.74434 ,-0.10508 ,-1.03108 
377 ,75.2405 ,1.74633 ,-0.11535 ,-1.13182 
378 ,75.4327 ,1.74827 ,-0.11535 ,-1.13182 
379 ,75.6408 ,1.75025 ,-0.13246 ,-1.29971 
380 ,75.8326 ,1.75223 ,-0.13931 ,-1.36687 
381 ,76.0246 ,1.75415 ,-0.17011 ,-1.66907 
382 ,76.2167 ,1.75608 ,-0.15984 ,-1.56834 
383 ,76.4091 ,1.75802 ,-0.17695 ,-1.73623 
384 ,76.6011 ,1.75996 ,-0.18379 ,-1.80338 
385 ,76.7932 ,1.76182 ,-0.19064 ,-1.87054 
386 ,77.0170 ,1.76396 ,-0.20775 ,-2.03843 
387 ,77.2096 ,1.76605 ,-0.22144 ,-2.17275 
388 ,77.4175 ,1.76803 ,-0.22828 ,-2.23990 
389 ,77.6094 ,1.76998 ,-0.23170 ,-2.27348 
390 ,77.8177 ,1.77207 ,-0.24881 ,-2.44137 
391 ,78.0097 ,1.77396 ,-0.24197 ,-2.37422 
392 ,78.2018 ,1.77592 ,-0.27277 ,-2.67642 
393 ,78.4098 ,1.77800 ,-0.27277 ,-2.67642 
394 ,78.6019 ,1.77989 ,-0.28646 ,-2.81073 
395 ,78.7940 ,1.78186 ,-0.28304 ,-2.77716 
396 ,78.9861 ,1.78376 ,-0.30357 ,-2.97863 
397 ,79.1780 ,1.78565 ,-0.30699 ,-3.01220 
398 ,79.3701 ,1.78756 ,-0.30357 ,-2.97863 
399 ,79.5624 ,1.78951 ,-0.33779 ,-3.31441 
400 ,79.7543 ,1.79138 ,-0.34464 ,-3.38156 
401 ,79.9465 ,1.79332 ,-0.35832 ,-3.51588 
402 ,80.1382 ,1.79521 ,-0.34806 ,-3.41514 
403 ,80.3305 ,1.79717 ,-0.36175 ,-3.54946 
404 ,80.5388 ,1.79927 ,-0.37886 ,-3.71735 
405 ,80.7469 ,1.80134 ,-0.38912 ,-3.81808 
406 ,80.9389 ,1.80324 ,-0.39597 ,-3.88524 
407 ,81.1470 ,1.80536 ,-0.40623 ,-3.98597 
408 ,81.3550 ,1.80737 ,-0.40281 ,-3.95240 
409 ,81.5471 ,1.80934 ,-0.40966 ,-4.01955 
410 ,81.7392 ,1.81125 ,-0.43019 ,-4.22102 
411 ,81.9313 ,1.81320 ,-0.43703 ,-4.28818 
412 ,82.1234 ,1.81514 ,-0.45072 ,-4.42249 
413 ,82.3151 ,1.81703 ,-0.46783 ,-4.59038 
414 ,82.5074 ,1.81899 ,-0.46441 ,-4.55681 
415 ,82.7159 ,1.82103 ,-0.48152 ,-4.72470 
416 ,82.9077 ,1.82299 ,-0.47468 ,-4.65754 
417 ,83.0998 ,1.82490 ,-0.48837 ,-4.79185 
418 ,83.3237 ,1.82699 ,-0.50548 ,-4.95975 
419 ,83.5159 ,1.82900 ,-0.51917 ,-5.09406 
420 ,83.7241 ,1.83111 ,-0.53628 ,-5.26195 
421 ,83.9321 ,1.83310 ,-0.51917 ,-5.09406 
422 ,84.1243 ,1.83509 ,-0.54997 ,-5.39626 
423 ,84.3164 ,1.83703 ,-0.55339 ,-5.42984 
424 ,84.5080 ,1.83897 ,-0.55681 ,-5.46342 
425 ,84.7005 ,1.84091 ,-0.58761 ,-5.76562 
426 ,84.8926 ,1.84280 ,-0.56708 ,-5.56415 
427 ,85.0846 ,1.84473 ,-0.59445 ,-5.83278 
428 ,85.2927 ,1.84674 ,-0.59445 ,-5.83278 
429 ,85.5008 ,1.84887 ,-0.62183 ,-6.10141 
430 ,85.6928 ,1.85079 ,-0.60472 ,-5.93352 
431 ,85.9009 ,1.85276 ,-0.62183 ,-6.10141 
432 ,86.0931 ,1.85481 ,-0.63210 ,-6.20214 
433 ,86.3011 ,1.85690 ,-0.65263 ,-6.40361 
434 ,86.4931 ,1.85882 ,-0.64921 ,-6.37003 
435 ,86.7009 ,1.86088 ,-0.66974 ,-6.57150 
436 ,86.8933 ,1.86279 ,-0.66290 ,-6.50435 
437 ,87.1014 ,1.86486 ,-0.67659 ,-6.63866 
438 ,87.2935 ,1.86676 ,-0.67659 ,-6.63866 
439 ,87.4855 ,1.86866 ,-0.70054 ,-6.87371 
440 ,87.6777 ,1.87060 ,-0.71765 ,-7.04160 
441 ,87.8537 ,1.87251 ,-0.70054 ,-6.87371 
442 ,88.0458 ,1.87430 ,-0.74161 ,-7.27665 
443 ,88.2539 ,1.87625 ,-0.74161 ,-7.27665 
444 ,88.4460 ,1.87832 ,-0.74503 ,-7.31023 
445 ,88.6540 ,1.88041 ,-0.73818 ,-7.24307 
446 ,88.8459 ,1.88235 ,-0.75872 ,-7.44454 
447 ,89.0703 ,1.88442 ,-0.75530 ,-7.41096 
448 ,89.2783 ,1.88657 ,-0.78610 ,-7.71317 
449 ,89.4704 ,1.88851 ,-0.78610 ,-7.71317 
450 ,89.6946 ,1.89061 ,-0.81689 ,-8.01537 
451 ,89.8863 ,1.89269 ,-0.81689 ,-8.01537 
452 ,90.1109 ,1.89492 ,-0.81005 ,-7.94821 
453 ,90.3187 ,1.89699 ,-0.83743 ,-8.21684 
454 ,90.5108 ,1.89895 ,-0.82374 ,-8.08253 
455 ,90.7025 ,1.90089 ,-0.85112 ,-8.35115 
456 ,90.8950 ,1.90277 ,-0.84427 ,-8.28400 
457 ,91.0867 ,1.90468 ,-0.86138 ,-8.45189 
458 ,91.2790 ,1.90661 ,-0.87165 ,-8.55262 
459 ,91.4871 ,1.90873 ,-0.88534 ,-8.68694 
460 ,91.6793 ,1.91058 ,-0.89903 ,-8.82125 
461 ,91.8714 ,1.91259 ,-0.88876 ,-8.72051 
462 ,92.0635 ,1.91449 ,-0.91956 ,-9.02272 
463 ,92.2556 ,1.91639 ,-0.90587 ,-8.88841 
