Data stamp = , 02-05-2022 13:01:20 088

Calibration Values: 
Slope = , 26.54 , g/V 
Offset Voltage at no contact = , -0.501760 , V 

No , Time , Stage Position ,   Mass , Force 
   ,  (s) ,      (mm)      ,   (g)  , (mN)  

1 ,0.0000 ,1.04953 ,5.00079 ,49.06774 
2 ,0.2304 ,1.04962 ,4.98710 ,48.93343 
3 ,0.7585 ,1.05179 ,5.00763 ,49.13490 
4 ,0.9671 ,1.05383 ,4.98710 ,48.93343 
5 ,1.1752 ,1.05590 ,5.00763 ,49.13490 
6 ,1.3992 ,1.05814 ,5.00421 ,49.10132 
7 ,1.5915 ,1.06012 ,4.95972 ,48.66480 
8 ,1.7833 ,1.06206 ,4.96315 ,48.69838 
9 ,1.9754 ,1.06403 ,4.93577 ,48.42975 
10 ,2.1676 ,1.06594 ,4.91523 ,48.22828 
11 ,2.3756 ,1.06797 ,4.89470 ,48.02681 
12 ,2.5677 ,1.06990 ,4.87759 ,47.85892 
13 ,2.7594 ,1.07186 ,4.86390 ,47.72461 
14 ,2.9839 ,1.07396 ,4.82968 ,47.38883 
15 ,3.1922 ,1.07613 ,4.81257 ,47.22093 
16 ,3.3840 ,1.07808 ,4.80915 ,47.18736 
17 ,3.5762 ,1.08005 ,4.78177 ,46.91873 
18 ,3.7842 ,1.08207 ,4.77835 ,46.88515 
19 ,3.9761 ,1.08404 ,4.74413 ,46.54937 
20 ,4.1839 ,1.08607 ,4.73386 ,46.44863 
21 ,4.3765 ,1.08798 ,4.70306 ,46.14643 
22 ,4.5845 ,1.09009 ,4.70648 ,46.18001 
23 ,4.7760 ,1.09199 ,4.65173 ,45.64275 
24 ,5.0002 ,1.09417 ,4.67226 ,45.84422 
25 ,5.1926 ,1.09617 ,4.63804 ,45.50844 
26 ,5.3846 ,1.09804 ,4.62777 ,45.40771 
27 ,5.5608 ,1.09999 ,4.59355 ,45.07192 
28 ,5.7528 ,1.10174 ,4.57986 ,44.93761 
29 ,5.9610 ,1.10384 ,4.57986 ,44.93761 
30 ,6.1851 ,1.10608 ,4.55249 ,44.66898 
31 ,6.3932 ,1.10817 ,4.52169 ,44.36678 
32 ,6.5852 ,1.11009 ,4.52853 ,44.43394 
33 ,6.7773 ,1.11197 ,4.48404 ,43.99742 
34 ,6.9695 ,1.11391 ,4.47720 ,43.93026 
35 ,7.1610 ,1.11586 ,4.45666 ,43.72879 
36 ,7.3535 ,1.11780 ,4.43955 ,43.56090 
37 ,7.5456 ,1.11969 ,4.42244 ,43.39301 
38 ,7.7378 ,1.12163 ,4.39849 ,43.15796 
39 ,7.9620 ,1.12383 ,4.39507 ,43.12438 
40 ,8.1699 ,1.12589 ,4.36084 ,42.78860 
41 ,8.3620 ,1.12786 ,4.34716 ,42.65429 
42 ,8.5701 ,1.12990 ,4.34031 ,42.58713 
43 ,8.7621 ,1.13184 ,4.31978 ,42.38566 
44 ,8.9542 ,1.13373 ,4.28556 ,42.04988 
45 ,9.1621 ,1.13576 ,4.28213 ,42.01630 
46 ,9.3379 ,1.13774 ,4.26502 ,41.84841 
47 ,9.5465 ,1.13965 ,4.26160 ,41.81483 
48 ,9.7544 ,1.14175 ,4.21027 ,41.31115 
49 ,9.9466 ,1.14367 ,4.21369 ,41.34473 
50 ,10.1546 ,1.14573 ,4.19316 ,41.14326 
51 ,10.3466 ,1.14772 ,4.19316 ,41.14326 
52 ,10.5547 ,1.14973 ,4.16236 ,40.84106 
53 ,10.7627 ,1.15185 ,4.14867 ,40.70674 
54 ,10.9871 ,1.15408 ,4.13156 ,40.53885 
55 ,11.1946 ,1.15612 ,4.10418 ,40.27023 
56 ,11.3870 ,1.15804 ,4.09391 ,40.16949 
57 ,11.5791 ,1.15998 ,4.04943 ,39.73297 
58 ,11.8034 ,1.16217 ,4.06654 ,39.90087 
59 ,12.0112 ,1.16428 ,4.03574 ,39.59866 
60 ,12.2035 ,1.16626 ,4.00152 ,39.26288 
61 ,12.3956 ,1.16816 ,3.99809 ,39.22930 
62 ,12.5876 ,1.17010 ,3.99809 ,39.22930 
63 ,12.7958 ,1.17214 ,3.97072 ,38.96067 
64 ,13.0359 ,1.17438 ,3.93992 ,38.65847 
65 ,13.2439 ,1.17657 ,3.91254 ,38.38984 
66 ,13.4520 ,1.17868 ,3.90227 ,38.28911 
67 ,13.6601 ,1.18077 ,3.87832 ,38.05406 
68 ,13.8682 ,1.18286 ,3.87832 ,38.05406 
69 ,14.0763 ,1.18496 ,3.86805 ,37.95332 
70 ,14.2681 ,1.18686 ,3.83041 ,37.58396 
71 ,14.4604 ,1.18875 ,3.81330 ,37.41607 
72 ,14.6681 ,1.19090 ,3.79276 ,37.21460 
73 ,14.8601 ,1.19275 ,3.82014 ,37.48323 
74 ,15.0523 ,1.19470 ,3.78934 ,37.18102 
75 ,15.2447 ,1.19670 ,3.74828 ,36.77808 
76 ,15.4682 ,1.19885 ,3.74143 ,36.71093 
77 ,15.6765 ,1.20089 ,3.71063 ,36.40872 
78 ,15.8848 ,1.20302 ,3.69352 ,36.24083 
79 ,16.1250 ,1.20543 ,3.68668 ,36.17367 
80 ,16.3326 ,1.20754 ,3.67983 ,36.10652 
81 ,16.5409 ,1.20951 ,3.62508 ,35.56926 
82 ,16.7172 ,1.21149 ,3.62850 ,35.60284 
83 ,16.9093 ,1.21328 ,3.61481 ,35.46853 
84 ,17.1174 ,1.21534 ,3.60797 ,35.40137 
85 ,17.3250 ,1.21738 ,3.57032 ,35.03201 
86 ,17.5175 ,1.21932 ,3.57032 ,35.03201 
87 ,17.7095 ,1.22129 ,3.54637 ,34.79696 
88 ,17.8857 ,1.22314 ,3.51215 ,34.46118 
89 ,18.0777 ,1.22496 ,3.52584 ,34.59549 
90 ,18.2698 ,1.22691 ,3.49161 ,34.25971 
91 ,18.4937 ,1.22900 ,3.49161 ,34.25971 
92 ,18.6860 ,1.23104 ,3.46424 ,33.99108 
93 ,18.8781 ,1.23300 ,3.46081 ,33.95751 
94 ,19.0861 ,1.23499 ,3.41290 ,33.48741 
95 ,19.2781 ,1.23691 ,3.41633 ,33.52099 
96 ,19.4703 ,1.23885 ,3.38895 ,33.25236 
97 ,19.6622 ,1.24079 ,3.37526 ,33.11805 
98 ,19.8543 ,1.24273 ,3.36842 ,33.05089 
99 ,20.0463 ,1.24465 ,3.34788 ,32.84942 
100 ,20.2545 ,1.24671 ,3.32735 ,32.64795 
101 ,20.4788 ,1.24879 ,3.29655 ,32.34575 
102 ,20.7028 ,1.25114 ,3.28286 ,32.21143 
103 ,20.8951 ,1.25309 ,3.27602 ,32.14428 
104 ,21.0872 ,1.25506 ,3.24180 ,31.80849 
105 ,21.2790 ,1.25697 ,3.25548 ,31.94281 
106 ,21.4709 ,1.25885 ,3.22126 ,31.60702 
107 ,21.6630 ,1.26082 ,3.20757 ,31.47271 
108 ,21.8392 ,1.26271 ,3.19388 ,31.33840 
109 ,22.0314 ,1.26444 ,3.18020 ,31.20409 
110 ,22.2394 ,1.26654 ,3.17335 ,31.13693 
111 ,22.4313 ,1.26844 ,3.14940 ,30.90188 
112 ,22.6396 ,1.27049 ,3.12886 ,30.70041 
113 ,22.8313 ,1.27259 ,3.10833 ,30.49894 
114 ,23.0558 ,1.27456 ,3.10491 ,30.46536 
115 ,23.2637 ,1.27678 ,3.07069 ,30.12958 
116 ,23.4559 ,1.27871 ,3.06726 ,30.09600 
117 ,23.6479 ,1.28062 ,3.03989 ,29.82737 
118 ,23.8401 ,1.28255 ,3.03304 ,29.76022 
119 ,24.0320 ,1.28447 ,3.01251 ,29.55875 
120 ,24.2403 ,1.28657 ,2.99882 ,29.42444 
121 ,24.4641 ,1.28879 ,2.98171 ,29.25654 
122 ,24.6561 ,1.29071 ,2.97487 ,29.18939 
123 ,24.8486 ,1.29265 ,2.95433 ,28.98792 
124 ,25.0404 ,1.29470 ,2.94064 ,28.85360 
125 ,25.2326 ,1.29644 ,2.91669 ,28.61856 
126 ,25.4247 ,1.29838 ,2.90985 ,28.55140 
127 ,25.6168 ,1.30036 ,2.88247 ,28.28277 
128 ,25.8088 ,1.30225 ,2.86536 ,28.11488 
129 ,26.0009 ,1.30413 ,2.86193 ,28.08130 
130 ,26.1930 ,1.30609 ,2.83798 ,27.84625 
131 ,26.3853 ,1.30800 ,2.83456 ,27.81268 
132 ,26.5771 ,1.30991 ,2.81402 ,27.61121 
133 ,26.7852 ,1.31193 ,2.79691 ,27.44332 
134 ,26.9935 ,1.31407 ,2.76954 ,27.17469 
135 ,27.2014 ,1.31616 ,2.77296 ,27.20827 
136 ,27.3775 ,1.31802 ,2.73189 ,26.80533 
137 ,27.5697 ,1.31982 ,2.72505 ,26.73817 
138 ,27.7616 ,1.32177 ,2.72505 ,26.73817 
139 ,27.9374 ,1.32364 ,2.69083 ,26.40239 
140 ,28.1299 ,1.32543 ,2.67714 ,26.26807 
141 ,28.3538 ,1.32764 ,2.65660 ,26.06661 
142 ,28.5459 ,1.32964 ,2.66003 ,26.10018 
143 ,28.7542 ,1.33164 ,2.63265 ,25.83156 
144 ,28.9781 ,1.33378 ,2.64292 ,25.93229 
145 ,29.2024 ,1.33614 ,2.62238 ,25.73082 
146 ,29.4266 ,1.33836 ,2.59501 ,25.46220 
147 ,29.6182 ,1.34031 ,2.58132 ,25.32788 
148 ,29.8107 ,1.34220 ,2.54367 ,24.95852 
149 ,30.0188 ,1.34435 ,2.54367 ,24.95852 
150 ,30.2106 ,1.34623 ,2.53341 ,24.85779 
151 ,30.4028 ,1.34817 ,2.51630 ,24.68989 
152 ,30.5949 ,1.35008 ,2.48550 ,24.38769 
153 ,30.7869 ,1.35200 ,2.48550 ,24.38769 
154 ,30.9790 ,1.35392 ,2.46496 ,24.18622 
155 ,31.1709 ,1.35580 ,2.44443 ,23.98475 
156 ,31.3633 ,1.35780 ,2.44443 ,23.98475 
157 ,31.5713 ,1.35981 ,2.42390 ,23.78328 
158 ,31.7635 ,1.36174 ,2.42390 ,23.78328 
159 ,31.9556 ,1.36367 ,2.38968 ,23.44750 
160 ,32.1633 ,1.36572 ,2.38968 ,23.44750 
161 ,32.3712 ,1.36786 ,2.36572 ,23.21245 
162 ,32.5959 ,1.36993 ,2.34519 ,23.01098 
163 ,32.8199 ,1.37230 ,2.33492 ,22.91024 
164 ,33.0280 ,1.37443 ,2.32123 ,22.77593 
165 ,33.2518 ,1.37650 ,2.29385 ,22.50731 
166 ,33.4437 ,1.37853 ,2.29043 ,22.47373 
167 ,33.6361 ,1.38048 ,2.26648 ,22.23868 
168 ,33.8282 ,1.38239 ,2.24252 ,22.00363 
169 ,34.0204 ,1.38433 ,2.24937 ,22.07079 
170 ,34.2285 ,1.38628 ,2.21172 ,21.70143 
171 ,34.4367 ,1.38847 ,2.20146 ,21.60069 
172 ,34.6447 ,1.39055 ,2.20146 ,21.60069 
173 ,34.8683 ,1.39277 ,2.18435 ,21.43280 
174 ,35.0609 ,1.39471 ,2.16723 ,21.26491 
175 ,35.2690 ,1.39681 ,2.16381 ,21.23133 
176 ,35.4769 ,1.39887 ,2.12275 ,20.82839 
177 ,35.6690 ,1.40080 ,2.12275 ,20.82839 
178 ,35.8611 ,1.40266 ,2.09537 ,20.55976 
179 ,36.0531 ,1.40469 ,2.08852 ,20.49261 
180 ,36.2452 ,1.40656 ,2.08852 ,20.49261 
181 ,36.4695 ,1.40879 ,2.06457 ,20.25756 
182 ,36.6771 ,1.41089 ,2.03377 ,19.95535 
183 ,36.8695 ,1.41279 ,2.04061 ,20.02251 
184 ,37.0776 ,1.41491 ,2.02008 ,19.82104 
185 ,37.2857 ,1.41689 ,2.01324 ,19.75388 
186 ,37.4778 ,1.41889 ,1.97902 ,19.41810 
187 ,37.6698 ,1.42081 ,1.98586 ,19.48526 
188 ,37.8777 ,1.42278 ,1.95506 ,19.18305 
189 ,38.0861 ,1.42483 ,1.94137 ,19.04874 
190 ,38.2940 ,1.42703 ,1.91742 ,18.81369 
191 ,38.4862 ,1.42900 ,1.93111 ,18.94801 
192 ,38.6942 ,1.43101 ,1.90031 ,18.64580 
193 ,38.8698 ,1.43292 ,1.88319 ,18.47791 
194 ,39.0623 ,1.43472 ,1.86951 ,18.34360 
195 ,39.2545 ,1.43661 ,1.85924 ,18.24286 
196 ,39.4625 ,1.43871 ,1.84213 ,18.07497 
197 ,39.6547 ,1.44060 ,1.82844 ,17.94066 
198 ,39.8462 ,1.44254 ,1.83528 ,18.00781 
199 ,40.0384 ,1.44445 ,1.79764 ,17.63845 
200 ,40.2305 ,1.44639 ,1.79764 ,17.63845 
201 ,40.4226 ,1.44830 ,1.77711 ,17.43698 
202 ,40.6150 ,1.45025 ,1.77369 ,17.40340 
203 ,40.8069 ,1.45218 ,1.75315 ,17.20193 
204 ,41.0148 ,1.45416 ,1.73604 ,17.03404 
205 ,41.2072 ,1.45617 ,1.72578 ,16.93331 
206 ,41.3994 ,1.45810 ,1.70524 ,16.73184 
207 ,41.6074 ,1.46014 ,1.70524 ,16.73184 
208 ,41.7995 ,1.46207 ,1.67444 ,16.42963 
209 ,42.0076 ,1.46404 ,1.68813 ,16.56395 
210 ,42.1996 ,1.46616 ,1.64707 ,16.16101 
211 ,42.3918 ,1.46801 ,1.65391 ,16.22816 
212 ,42.5998 ,1.47011 ,1.62311 ,15.92596 
213 ,42.7918 ,1.47197 ,1.62995 ,15.99311 
214 ,42.9680 ,1.47388 ,1.60600 ,15.75807 
215 ,43.1600 ,1.47567 ,1.58889 ,15.59018 
216 ,43.3682 ,1.47773 ,1.58547 ,15.55660 
217 ,43.6080 ,1.48002 ,1.57862 ,15.48944 
218 ,43.8164 ,1.48229 ,1.54098 ,15.12008 
219 ,44.0245 ,1.48424 ,1.52387 ,14.95219 
220 ,44.2484 ,1.48647 ,1.53413 ,15.05292 
221 ,44.4405 ,1.48851 ,1.49649 ,14.68356 
222 ,44.6325 ,1.49038 ,1.50676 ,14.78430 
223 ,44.8247 ,1.49235 ,1.46911 ,14.41493 
224 ,45.0168 ,1.49437 ,1.47596 ,14.48209 
225 ,45.2089 ,1.49617 ,1.46569 ,14.38136 
226 ,45.4005 ,1.49809 ,1.43831 ,14.11273 
227 ,45.5930 ,1.50007 ,1.43489 ,14.07915 
228 ,45.8011 ,1.50207 ,1.39725 ,13.70979 
229 ,45.9771 ,1.50398 ,1.41436 ,13.87768 
230 ,46.2013 ,1.50596 ,1.37329 ,13.47474 
231 ,46.3933 ,1.50800 ,1.37671 ,13.50832 
232 ,46.5694 ,1.50988 ,1.35618 ,13.30685 
233 ,46.7614 ,1.51166 ,1.34249 ,13.17254 
234 ,46.9535 ,1.51361 ,1.34249 ,13.17254 
235 ,47.1777 ,1.51568 ,1.31512 ,12.90391 
236 ,47.3698 ,1.51775 ,1.31854 ,12.93749 
237 ,47.5616 ,1.51965 ,1.28432 ,12.60171 
238 ,47.7860 ,1.52185 ,1.27747 ,12.53455 
239 ,47.9942 ,1.52401 ,1.27747 ,12.53455 
240 ,48.1701 ,1.52589 ,1.24667 ,12.23235 
241 ,48.3782 ,1.52781 ,1.24325 ,12.19877 
242 ,48.5703 ,1.52978 ,1.22956 ,12.06445 
243 ,48.7784 ,1.53185 ,1.21245 ,11.89656 
244 ,48.9865 ,1.53390 ,1.19192 ,11.69509 
245 ,49.1786 ,1.53589 ,1.18507 ,11.62794 
246 ,49.4021 ,1.53794 ,1.16112 ,11.39289 
247 ,49.5948 ,1.53995 ,1.15770 ,11.35931 
248 ,49.7863 ,1.54193 ,1.13716 ,11.15784 
249 ,49.9787 ,1.54384 ,1.13374 ,11.12426 
250 ,50.1704 ,1.54577 ,1.12005 ,10.98995 
251 ,50.3630 ,1.54763 ,1.08925 ,10.68774 
252 ,50.5389 ,1.54957 ,1.09610 ,10.75490 
253 ,50.7152 ,1.55131 ,1.08241 ,10.62059 
254 ,50.8912 ,1.55308 ,1.07556 ,10.55343 
255 ,51.0993 ,1.55501 ,1.05845 ,10.38554 
256 ,51.3232 ,1.55727 ,1.04134 ,10.21765 
257 ,51.5476 ,1.55940 ,1.04134 ,10.21765 
258 ,51.7556 ,1.56157 ,1.04476 ,10.25123 
259 ,51.9472 ,1.56349 ,1.00712 ,9.88186 
260 ,52.1398 ,1.56546 ,0.99343 ,9.74755 
261 ,52.3479 ,1.56757 ,0.96948 ,9.51250 
262 ,52.5717 ,1.56971 ,0.96263 ,9.44535 
263 ,52.7638 ,1.57171 ,0.95237 ,9.34461 
264 ,52.9718 ,1.57375 ,0.93868 ,9.21030 
265 ,53.1803 ,1.57581 ,0.92499 ,9.07598 
266 ,53.3883 ,1.57791 ,0.90446 ,8.87451 
267 ,53.5804 ,1.57980 ,0.90446 ,8.87451 
268 ,53.7723 ,1.58174 ,0.89077 ,8.74020 
269 ,53.9646 ,1.58365 ,0.87708 ,8.60589 
270 ,54.1564 ,1.58560 ,0.87708 ,8.60589 
271 ,54.3487 ,1.58751 ,0.84628 ,8.30368 
272 ,54.5407 ,1.58946 ,0.85654 ,8.40442 
273 ,54.7328 ,1.59135 ,0.84286 ,8.27011 
274 ,54.9408 ,1.59337 ,0.82917 ,8.13579 
275 ,55.1329 ,1.59534 ,0.82917 ,8.13579 
276 ,55.3411 ,1.59736 ,0.79152 ,7.76643 
277 ,55.5491 ,1.59958 ,0.77784 ,7.63212 
278 ,55.7413 ,1.60146 ,0.78810 ,7.73285 
279 ,55.9491 ,1.60347 ,0.75046 ,7.36349 
280 ,56.1575 ,1.60550 ,0.74704 ,7.32991 
281 ,56.3813 ,1.60779 ,0.73677 ,7.22918 
282 ,56.5896 ,1.60991 ,0.72650 ,7.12844 
283 ,56.7815 ,1.61187 ,0.70939 ,6.96055 
284 ,56.9896 ,1.61394 ,0.68886 ,6.75908 
285 ,57.1816 ,1.61585 ,0.70597 ,6.92697 
286 ,57.3734 ,1.61774 ,0.68886 ,6.75908 
287 ,57.5659 ,1.61967 ,0.65806 ,6.45688 
288 ,57.7737 ,1.62174 ,0.65121 ,6.38972 
289 ,57.9661 ,1.62364 ,0.62726 ,6.15467 
290 ,58.1742 ,1.62573 ,0.63068 ,6.18825 
291 ,58.3659 ,1.62773 ,0.62042 ,6.08752 
292 ,58.5583 ,1.62969 ,0.61015 ,5.98678 
293 ,58.7503 ,1.63153 ,0.58962 ,5.78531 
294 ,58.9422 ,1.63340 ,0.57935 ,5.68458 
295 ,59.1345 ,1.63535 ,0.57935 ,5.68458 
296 ,59.3266 ,1.63729 ,0.56566 ,5.55026 
297 ,59.5343 ,1.63931 ,0.54855 ,5.38237 
298 ,59.7427 ,1.64146 ,0.54171 ,5.31522 
299 ,59.9347 ,1.64335 ,0.52117 ,5.11375 
300 ,60.1270 ,1.64527 ,0.50406 ,4.94585 
301 ,60.3351 ,1.64734 ,0.48695 ,4.77796 
302 ,60.5431 ,1.64940 ,0.50064 ,4.91228 
303 ,60.7510 ,1.65148 ,0.45957 ,4.50934 
304 ,60.9272 ,1.65341 ,0.45615 ,4.47576 
305 ,61.1195 ,1.65520 ,0.46642 ,4.57649 
306 ,61.3112 ,1.65721 ,0.43562 ,4.27429 
307 ,61.5033 ,1.65900 ,0.43220 ,4.24071 
308 ,61.7115 ,1.66112 ,0.42193 ,4.13997 
309 ,61.9197 ,1.66323 ,0.42877 ,4.20713 
310 ,62.1116 ,1.66516 ,0.39455 ,3.87135 
311 ,62.3199 ,1.66720 ,0.39797 ,3.90493 
312 ,62.5118 ,1.66909 ,0.36375 ,3.56914 
313 ,62.7201 ,1.67116 ,0.37060 ,3.63630 
314 ,62.9118 ,1.67310 ,0.34664 ,3.40125 
315 ,63.1203 ,1.67520 ,0.35006 ,3.43483 
316 ,63.3282 ,1.67727 ,0.32269 ,3.16620 
317 ,63.5204 ,1.67916 ,0.32953 ,3.23336 
318 ,63.7445 ,1.68135 ,0.30558 ,2.99831 
319 ,63.9681 ,1.68349 ,0.29189 ,2.86400 
320 ,64.1767 ,1.68572 ,0.29189 ,2.86400 
321 ,64.3846 ,1.68785 ,0.26793 ,2.62895 
322 ,64.5769 ,1.68977 ,0.26793 ,2.62895 
323 ,64.7848 ,1.69189 ,0.25424 ,2.49464 
324 ,64.9767 ,1.69378 ,0.24055 ,2.36032 
325 ,65.1850 ,1.69587 ,0.23713 ,2.32675 
326 ,65.3932 ,1.69792 ,0.20633 ,2.02454 
327 ,65.5852 ,1.69982 ,0.21660 ,2.12528 
328 ,65.7935 ,1.70192 ,0.19607 ,1.92381 
329 ,66.0013 ,1.70400 ,0.19949 ,1.95738 
330 ,66.1770 ,1.70585 ,0.17896 ,1.75592 
331 ,66.3692 ,1.70769 ,0.16869 ,1.65518 
332 ,66.5775 ,1.70976 ,0.17211 ,1.68876 
333 ,66.7695 ,1.71181 ,0.15500 ,1.52087 
334 ,66.9615 ,1.71362 ,0.13789 ,1.35298 
335 ,67.1698 ,1.71560 ,0.11393 ,1.11793 
336 ,67.3618 ,1.71763 ,0.11736 ,1.15151 
337 ,67.5700 ,1.71967 ,0.10025 ,0.98361 
338 ,67.7621 ,1.72161 ,0.10709 ,1.05077 
339 ,68.0019 ,1.72384 ,0.08656 ,0.84930 
340 ,68.1944 ,1.72591 ,0.05234 ,0.51352 
341 ,68.3859 ,1.72786 ,0.06945 ,0.68141 
342 ,68.5784 ,1.72977 ,0.06260 ,0.61425 
343 ,68.7866 ,1.73185 ,0.04207 ,0.41278 
344 ,68.9786 ,1.73378 ,0.02838 ,0.27847 
345 ,69.1706 ,1.73569 ,0.01469 ,0.14416 
346 ,69.3627 ,1.73755 ,0.01127 ,0.11058 
347 ,69.5548 ,1.73952 ,-0.00584 ,-0.05731 
348 ,69.7470 ,1.74146 ,0.00100 ,0.00984 
349 ,69.9391 ,1.74337 ,-0.02637 ,-0.25878 
350 ,70.1472 ,1.74542 ,-0.02295 ,-0.22520 
351 ,70.3393 ,1.74738 ,-0.05375 ,-0.52741 
352 ,70.5148 ,1.74927 ,-0.04691 ,-0.46025 
353 ,70.7073 ,1.75103 ,-0.03664 ,-0.35952 
354 ,71.1233 ,1.75415 ,-0.07771 ,-0.76246 
355 ,71.3154 ,1.75708 ,-0.09824 ,-0.96393 
356 ,71.5236 ,1.75918 ,-0.08797 ,-0.86319 
357 ,71.7156 ,1.76108 ,-0.12562 ,-1.23255 
358 ,71.9238 ,1.76321 ,-0.12219 ,-1.19898 
359 ,72.1319 ,1.76526 ,-0.13588 ,-1.33329 
360 ,72.3240 ,1.76720 ,-0.15642 ,-1.53476 
361 ,72.5320 ,1.76924 ,-0.16326 ,-1.60191 
362 ,72.7398 ,1.77125 ,-0.15299 ,-1.50118 
363 ,72.9320 ,1.77332 ,-0.19406 ,-1.90412 
364 ,73.1083 ,1.77516 ,-0.19064 ,-1.87054 
365 ,73.3003 ,1.77695 ,-0.19064 ,-1.87054 
366 ,73.4926 ,1.77890 ,-0.21459 ,-2.10559 
367 ,73.6685 ,1.78078 ,-0.21117 ,-2.07201 
368 ,73.8443 ,1.78252 ,-0.22486 ,-2.20632 
369 ,74.0687 ,1.78441 ,-0.23855 ,-2.34064 
370 ,74.2608 ,1.78657 ,-0.23855 ,-2.34064 
371 ,74.4848 ,1.78871 ,-0.24881 ,-2.44137 
372 ,74.6771 ,1.79074 ,-0.27619 ,-2.71000 
373 ,74.8687 ,1.79262 ,-0.27277 ,-2.67642 
374 ,75.0772 ,1.79470 ,-0.28646 ,-2.81073 
375 ,75.2852 ,1.79682 ,-0.28646 ,-2.81073 
376 ,75.4772 ,1.79874 ,-0.30699 ,-3.01220 
377 ,75.6854 ,1.80082 ,-0.30699 ,-3.01220 
378 ,75.8770 ,1.80271 ,-0.32410 ,-3.18010 
379 ,76.0690 ,1.80472 ,-0.32410 ,-3.18010 
380 ,76.2611 ,1.80663 ,-0.34806 ,-3.41514 
381 ,76.4537 ,1.80851 ,-0.34806 ,-3.41514 
382 ,76.6939 ,1.81075 ,-0.37544 ,-3.68377 
383 ,76.9017 ,1.81294 ,-0.37544 ,-3.68377 
384 ,77.1095 ,1.81504 ,-0.37886 ,-3.71735 
385 ,77.3017 ,1.81692 ,-0.39597 ,-3.88524 
386 ,77.4943 ,1.81893 ,-0.40623 ,-3.98597 
387 ,77.7022 ,1.82098 ,-0.41308 ,-4.05313 
388 ,77.9103 ,1.82305 ,-0.40966 ,-4.01955 
389 ,78.1021 ,1.82495 ,-0.43361 ,-4.25460 
390 ,78.3104 ,1.82708 ,-0.44388 ,-4.35534 
391 ,78.5182 ,1.82907 ,-0.47468 ,-4.65754 
392 ,78.7105 ,1.83105 ,-0.46099 ,-4.52323 
393 ,78.9188 ,1.83310 ,-0.48494 ,-4.75828 
394 ,79.1106 ,1.83503 ,-0.47126 ,-4.62396 
395 ,79.3184 ,1.83707 ,-0.48837 ,-4.79185 
396 ,79.5267 ,1.83914 ,-0.50206 ,-4.92617 
397 ,79.7351 ,1.84123 ,-0.51232 ,-5.02690 
398 ,79.9269 ,1.84321 ,-0.51232 ,-5.02690 
399 ,80.1352 ,1.84525 ,-0.52601 ,-5.16121 
400 ,80.3270 ,1.84719 ,-0.52943 ,-5.19479 
401 ,80.5351 ,1.84927 ,-0.54654 ,-5.36268 
402 ,80.7274 ,1.85120 ,-0.54997 ,-5.39626 
403 ,80.9355 ,1.85327 ,-0.56023 ,-5.49700 
404 ,81.1279 ,1.85519 ,-0.59103 ,-5.79920 
405 ,81.3355 ,1.85732 ,-0.58419 ,-5.73205 
406 ,81.5434 ,1.85933 ,-0.62183 ,-6.10141 
407 ,81.7358 ,1.86130 ,-0.62183 ,-6.10141 
408 ,81.9279 ,1.86325 ,-0.60814 ,-5.96709 
409 ,82.1200 ,1.86515 ,-0.62868 ,-6.16856 
410 ,82.3281 ,1.86717 ,-0.63210 ,-6.20214 
411 ,82.5198 ,1.86913 ,-0.65263 ,-6.40361 
412 ,82.7442 ,1.87128 ,-0.63552 ,-6.23572 
413 ,82.9679 ,1.87354 ,-0.65263 ,-6.40361 
414 ,83.1604 ,1.87551 ,-0.68343 ,-6.70582 
415 ,83.3522 ,1.87748 ,-0.68001 ,-6.67224 
416 ,83.5602 ,1.87953 ,-0.69370 ,-6.80655 
417 ,83.7523 ,1.88141 ,-0.69712 ,-6.84013 
418 ,83.9447 ,1.88338 ,-0.72107 ,-7.07518 
419 ,84.1524 ,1.88532 ,-0.72107 ,-7.07518 
420 ,84.3444 ,1.88743 ,-0.72107 ,-7.07518 
421 ,84.5366 ,1.88927 ,-0.72107 ,-7.07518 
422 ,84.7447 ,1.89122 ,-0.72792 ,-7.14233 
423 ,84.9531 ,1.89341 ,-0.74503 ,-7.31023 
424 ,85.1612 ,1.89554 ,-0.75872 ,-7.44454 
425 ,85.3532 ,1.89745 ,-0.76214 ,-7.47812 
426 ,85.5614 ,1.89952 ,-0.78952 ,-7.74674 
427 ,85.7694 ,1.90163 ,-0.78267 ,-7.67959 
428 ,85.9611 ,1.90350 ,-0.81005 ,-7.94821 
429 ,86.1535 ,1.90546 ,-0.80321 ,-7.88106 
430 ,86.3777 ,1.90758 ,-0.82374 ,-8.08253 
431 ,86.5697 ,1.90959 ,-0.82374 ,-8.08253 
432 ,86.7778 ,1.91166 ,-0.84085 ,-8.25042 
433 ,86.9695 ,1.91365 ,-0.85454 ,-8.38473 
434 ,87.1618 ,1.91553 ,-0.86138 ,-8.45189 
435 ,87.3861 ,1.91772 ,-0.85796 ,-8.41831 
436 ,87.5781 ,1.91972 ,-0.85112 ,-8.35115 
437 ,87.7702 ,1.92158 ,-0.87507 ,-8.58620 
438 ,87.9622 ,1.92354 ,-0.90245 ,-8.85483 
439 ,88.1542 ,1.92545 ,-0.87849 ,-8.61978 
440 ,88.3621 ,1.92747 ,-0.91614 ,-8.98914 
441 ,88.5542 ,1.92944 ,-0.90587 ,-8.88841 
442 ,88.7465 ,1.93136 ,-0.92983 ,-9.12345 
443 ,88.9382 ,1.93327 ,-0.92298 ,-9.05630 
444 ,89.1623 ,1.93544 ,-0.94694 ,-9.29135 
445 ,89.3546 ,1.93747 ,-0.93325 ,-9.15703 
446 ,89.5468 ,1.93935 ,-0.95720 ,-9.39208 
447 ,89.7388 ,1.94130 ,-0.95720 ,-9.39208 
448 ,89.9470 ,1.94336 ,-0.98458 ,-9.66071 
449 ,90.1391 ,1.94531 ,-0.97089 ,-9.52639 
450 ,90.3311 ,1.94719 ,-0.99827 ,-9.79502 
451 ,90.5392 ,1.94926 ,-1.00169 ,-9.82860 
452 ,90.7472 ,1.95132 ,-1.01880 ,-9.99649 
453 ,90.9553 ,1.95342 ,-1.01538 ,-9.96291 
454 ,91.1634 ,1.95553 ,-1.01880 ,-9.99649 
455 ,91.3712 ,1.95757 ,-1.04276 ,-10.23154 
456 ,91.5634 ,1.95951 ,-1.04618 ,-10.26512 
457 ,91.7716 ,1.96158 ,-1.04276 ,-10.23154 
458 ,91.9798 ,1.96369 ,-1.04960 ,-10.29869 
459 ,92.2039 ,1.96589 ,-1.06671 ,-10.46659 
460 ,92.4117 ,1.96793 ,-1.06329 ,-10.43301 
461 ,92.6039 ,1.96995 ,-1.07356 ,-10.53374 
462 ,92.8121 ,1.97190 ,-1.07698 ,-10.56732 
