Data stamp = , 29-04-2022 23:39:22 319

Calibration Values: 
Slope = , 26.54 , g/V 
Offset Voltage at no contact = , -0.501760 , V 

No , Time , Stage Position ,   Mass , Force 
   ,  (s) ,      (mm)      ,   (g)  , (mN)  

1 ,0.0000 ,1.04950 ,4.99394 ,49.00058 
2 ,0.2127 ,1.04953 ,4.99737 ,49.03416 
3 ,0.7407 ,1.05157 ,4.98710 ,48.93343 
4 ,0.9331 ,1.05359 ,5.00421 ,49.10132 
5 ,1.1413 ,1.05562 ,5.00079 ,49.06774 
6 ,1.3330 ,1.05750 ,4.98026 ,48.86627 
7 ,1.5415 ,1.05961 ,4.96999 ,48.76554 
8 ,1.7495 ,1.06161 ,4.95972 ,48.66480 
9 ,1.9415 ,1.06367 ,4.93919 ,48.46333 
10 ,2.1338 ,1.06556 ,4.91181 ,48.19471 
11 ,2.3257 ,1.06748 ,4.90497 ,48.12755 
12 ,2.5496 ,1.06961 ,4.87417 ,47.82534 
13 ,2.7418 ,1.07164 ,4.86390 ,47.72461 
14 ,2.9337 ,1.07358 ,4.83310 ,47.42240 
15 ,3.1262 ,1.07555 ,4.82968 ,47.38883 
16 ,3.3342 ,1.07750 ,4.79546 ,47.05304 
17 ,3.5261 ,1.07950 ,4.78861 ,46.98589 
18 ,3.7339 ,1.08151 ,4.75782 ,46.68368 
19 ,3.9266 ,1.08355 ,4.76124 ,46.71726 
20 ,4.1186 ,1.08553 ,4.71675 ,46.28074 
21 ,4.3102 ,1.08732 ,4.70306 ,46.14643 
22 ,4.5021 ,1.08930 ,4.69964 ,46.11285 
23 ,4.6946 ,1.09121 ,4.67568 ,45.87780 
24 ,4.9188 ,1.09346 ,4.64831 ,45.60918 
25 ,5.1266 ,1.09550 ,4.64488 ,45.57560 
26 ,5.3190 ,1.09744 ,4.61751 ,45.30697 
27 ,5.5270 ,1.09952 ,4.60382 ,45.17266 
28 ,5.7191 ,1.10145 ,4.58328 ,44.97119 
29 ,5.9271 ,1.10337 ,4.56275 ,44.76972 
30 ,6.1350 ,1.10556 ,4.52853 ,44.43394 
31 ,6.3273 ,1.10757 ,4.52511 ,44.40036 
32 ,6.5354 ,1.10961 ,4.48746 ,44.03100 
33 ,6.7432 ,1.11162 ,4.49089 ,44.06457 
34 ,6.9355 ,1.11350 ,4.44982 ,43.66163 
35 ,7.1277 ,1.11554 ,4.45324 ,43.69521 
36 ,7.3355 ,1.11758 ,4.41902 ,43.35943 
37 ,7.5277 ,1.11952 ,4.41218 ,43.29227 
38 ,7.7200 ,1.12143 ,4.39507 ,43.12438 
39 ,7.9122 ,1.12335 ,4.35058 ,42.68786 
40 ,8.1039 ,1.12534 ,4.34716 ,42.65429 
41 ,8.2960 ,1.12713 ,4.33689 ,42.55355 
42 ,8.4883 ,1.12911 ,4.32320 ,42.41924 
43 ,8.6963 ,1.13106 ,4.29924 ,42.18419 
44 ,8.8889 ,1.13313 ,4.28213 ,42.01630 
45 ,9.0807 ,1.13504 ,4.27871 ,41.98272 
46 ,9.2727 ,1.13694 ,4.24449 ,41.64694 
47 ,9.4644 ,1.13886 ,4.24449 ,41.64694 
48 ,9.6568 ,1.14077 ,4.20685 ,41.27758 
49 ,9.8649 ,1.14284 ,4.20342 ,41.24400 
50 ,10.0731 ,1.14482 ,4.17947 ,41.00895 
51 ,10.2810 ,1.14704 ,4.16236 ,40.84106 
52 ,10.4729 ,1.14889 ,4.13840 ,40.60601 
53 ,10.6652 ,1.15089 ,4.13498 ,40.57243 
54 ,10.8574 ,1.15280 ,4.10760 ,40.30380 
55 ,11.0654 ,1.15489 ,4.11103 ,40.33738 
56 ,11.2735 ,1.15688 ,4.09049 ,40.13591 
57 ,11.4655 ,1.15890 ,4.06654 ,39.90087 
58 ,11.6732 ,1.16083 ,4.03916 ,39.63224 
59 ,11.8656 ,1.16285 ,4.02889 ,39.53150 
60 ,12.0738 ,1.16489 ,3.99125 ,39.16214 
61 ,12.2658 ,1.16689 ,3.99125 ,39.16214 
62 ,12.4579 ,1.16874 ,3.96387 ,38.89352 
63 ,12.6500 ,1.17074 ,3.96045 ,38.85994 
64 ,12.8420 ,1.17259 ,3.95018 ,38.75920 
65 ,13.0337 ,1.17459 ,3.91254 ,38.38984 
66 ,13.2263 ,1.17641 ,3.90570 ,38.32268 
67 ,13.4181 ,1.17836 ,3.89201 ,38.18837 
68 ,13.6264 ,1.18050 ,3.86805 ,37.95332 
69 ,13.8501 ,1.18259 ,3.85094 ,37.78543 
70 ,14.0583 ,1.18473 ,3.83383 ,37.61754 
71 ,14.2666 ,1.18684 ,3.82699 ,37.55038 
72 ,14.4585 ,1.18877 ,3.79619 ,37.24818 
73 ,14.6664 ,1.19085 ,3.77223 ,37.01313 
74 ,14.8589 ,1.19273 ,3.77565 ,37.04671 
75 ,15.0510 ,1.19470 ,3.73801 ,36.67735 
76 ,15.2431 ,1.19657 ,3.73801 ,36.67735 
77 ,15.4352 ,1.19855 ,3.71405 ,36.44230 
78 ,15.6273 ,1.20047 ,3.70379 ,36.34157 
79 ,15.8194 ,1.20243 ,3.69694 ,36.27441 
80 ,16.0114 ,1.20433 ,3.66957 ,36.00578 
81 ,16.2035 ,1.20624 ,3.65588 ,35.87147 
82 ,16.4276 ,1.20839 ,3.62166 ,35.53569 
83 ,16.6356 ,1.21054 ,3.61823 ,35.50211 
84 ,16.8277 ,1.21245 ,3.58743 ,35.19990 
85 ,17.0357 ,1.21454 ,3.58401 ,35.16632 
86 ,17.2119 ,1.21645 ,3.56006 ,34.93128 
87 ,17.4039 ,1.21821 ,3.55663 ,34.89770 
88 ,17.5959 ,1.22013 ,3.53952 ,34.72981 
89 ,17.8040 ,1.22215 ,3.50872 ,34.42760 
90 ,17.9963 ,1.22413 ,3.50530 ,34.39402 
91 ,18.2043 ,1.22620 ,3.48135 ,34.15898 
92 ,18.3963 ,1.22812 ,3.46766 ,34.02466 
93 ,18.6043 ,1.23022 ,3.45055 ,33.85677 
94 ,18.7961 ,1.23214 ,3.44028 ,33.75604 
95 ,18.9888 ,1.23410 ,3.42659 ,33.62172 
96 ,19.1807 ,1.23601 ,3.39921 ,33.35310 
97 ,19.4046 ,1.23815 ,3.38210 ,33.18520 
98 ,19.5967 ,1.24010 ,3.37526 ,33.11805 
99 ,19.7890 ,1.24204 ,3.33419 ,32.71511 
100 ,19.9971 ,1.24416 ,3.32735 ,32.64795 
101 ,20.2047 ,1.24612 ,3.30682 ,32.44648 
102 ,20.3967 ,1.24806 ,3.31024 ,32.48006 
103 ,20.5894 ,1.25007 ,3.27944 ,32.17786 
104 ,20.7974 ,1.25214 ,3.26575 ,32.04354 
105 ,21.0052 ,1.25421 ,3.25548 ,31.94281 
106 ,21.2136 ,1.25630 ,3.24180 ,31.80849 
107 ,21.4052 ,1.25822 ,3.21784 ,31.57345 
108 ,21.5975 ,1.26012 ,3.19388 ,31.33840 
109 ,21.8058 ,1.26220 ,3.18704 ,31.27124 
110 ,21.9979 ,1.26417 ,3.17677 ,31.17051 
111 ,22.1900 ,1.26608 ,3.13913 ,30.80115 
112 ,22.3979 ,1.26802 ,3.14940 ,30.90188 
113 ,22.5898 ,1.27006 ,3.10491 ,30.46536 
114 ,22.7822 ,1.27202 ,3.10149 ,30.43178 
115 ,22.9744 ,1.27387 ,3.08095 ,30.23031 
116 ,23.1662 ,1.27583 ,3.06726 ,30.09600 
117 ,23.3584 ,1.27780 ,3.06726 ,30.09600 
118 ,23.5665 ,1.27976 ,3.03647 ,29.79380 
119 ,23.7426 ,1.28169 ,3.03647 ,29.79380 
120 ,23.9343 ,1.28348 ,3.00567 ,29.49159 
121 ,24.1269 ,1.28545 ,2.99198 ,29.35728 
122 ,24.3348 ,1.28746 ,2.97829 ,29.22297 
123 ,24.5427 ,1.28947 ,2.95091 ,28.95434 
124 ,24.7505 ,1.29163 ,2.94407 ,28.88718 
125 ,24.9430 ,1.29357 ,2.92696 ,28.71929 
126 ,25.1511 ,1.29562 ,2.90642 ,28.51782 
127 ,25.3431 ,1.29759 ,2.89958 ,28.45066 
128 ,25.5351 ,1.29948 ,2.87905 ,28.24919 
129 ,25.7432 ,1.30155 ,2.86536 ,28.11488 
130 ,25.9352 ,1.30346 ,2.85851 ,28.04772 
131 ,26.1272 ,1.30536 ,2.82429 ,27.71194 
132 ,26.3197 ,1.30734 ,2.83114 ,27.77910 
133 ,26.5278 ,1.30944 ,2.79349 ,27.40974 
134 ,26.7198 ,1.31136 ,2.79349 ,27.40974 
135 ,26.9277 ,1.31346 ,2.75927 ,27.07395 
136 ,27.1357 ,1.31552 ,2.75927 ,27.07395 
137 ,27.3440 ,1.31753 ,2.74900 ,26.97322 
138 ,27.5361 ,1.31951 ,2.73531 ,26.83891 
139 ,27.7283 ,1.32141 ,2.70452 ,26.53670 
140 ,27.9204 ,1.32337 ,2.70109 ,26.50312 
141 ,28.1284 ,1.32541 ,2.66003 ,26.10018 
142 ,28.3204 ,1.32727 ,2.66687 ,26.16734 
143 ,28.5126 ,1.32925 ,2.64976 ,25.99945 
144 ,28.7365 ,1.33139 ,2.62923 ,25.79798 
145 ,28.9288 ,1.33343 ,2.61212 ,25.63009 
146 ,29.1045 ,1.33535 ,2.60869 ,25.59651 
147 ,29.2970 ,1.33716 ,2.60527 ,25.56293 
148 ,29.5049 ,1.33917 ,2.56763 ,25.19357 
149 ,29.6968 ,1.34113 ,2.56763 ,25.19357 
150 ,29.8891 ,1.34309 ,2.52656 ,24.79063 
151 ,30.0970 ,1.34502 ,2.53683 ,24.89136 
152 ,30.2888 ,1.34700 ,2.49918 ,24.52200 
153 ,30.4974 ,1.34916 ,2.52314 ,24.75705 
154 ,30.7053 ,1.35111 ,2.46839 ,24.21980 
155 ,30.8972 ,1.35305 ,2.47865 ,24.32053 
156 ,31.0736 ,1.35493 ,2.44443 ,23.98475 
157 ,31.2657 ,1.35677 ,2.42390 ,23.78328 
158 ,31.4578 ,1.35872 ,2.41705 ,23.71612 
159 ,31.6656 ,1.36076 ,2.39994 ,23.54823 
160 ,31.8419 ,1.36263 ,2.39994 ,23.54823 
161 ,32.0340 ,1.36446 ,2.38968 ,23.44750 
162 ,32.2422 ,1.36655 ,2.36572 ,23.21245 
163 ,32.4337 ,1.36846 ,2.36230 ,23.17887 
164 ,32.6263 ,1.37038 ,2.32808 ,22.84309 
165 ,32.8344 ,1.37246 ,2.33150 ,22.87667 
166 ,33.0264 ,1.37442 ,2.30070 ,22.57446 
167 ,33.2186 ,1.37633 ,2.29043 ,22.47373 
168 ,33.4105 ,1.37821 ,2.28017 ,22.37299 
169 ,33.6026 ,1.38012 ,2.26306 ,22.20510 
170 ,33.7946 ,1.38207 ,2.25279 ,22.10437 
171 ,33.9868 ,1.38393 ,2.22199 ,21.80216 
172 ,34.1790 ,1.38595 ,2.21172 ,21.70143 
173 ,34.3710 ,1.38783 ,2.21172 ,21.70143 
174 ,34.5628 ,1.38972 ,2.19461 ,21.53353 
175 ,34.7552 ,1.39167 ,2.19119 ,21.49996 
176 ,34.9633 ,1.39370 ,2.15355 ,21.13059 
177 ,35.1553 ,1.39565 ,2.15012 ,21.09702 
178 ,35.3473 ,1.39758 ,2.12617 ,20.86197 
179 ,35.5393 ,1.39953 ,2.12275 ,20.82839 
180 ,35.7309 ,1.40137 ,2.11248 ,20.72766 
181 ,35.9237 ,1.40335 ,2.08168 ,20.42545 
182 ,36.1157 ,1.40527 ,2.08852 ,20.49261 
183 ,36.3076 ,1.40720 ,2.06799 ,20.29114 
184 ,36.4998 ,1.40908 ,2.04404 ,20.05609 
185 ,36.6755 ,1.41100 ,2.04404 ,20.05609 
186 ,36.8675 ,1.41274 ,2.01666 ,19.78746 
187 ,37.0436 ,1.41467 ,1.99955 ,19.61957 
188 ,37.2358 ,1.41641 ,1.98244 ,19.45168 
189 ,37.4278 ,1.41838 ,1.98928 ,19.51884 
190 ,37.6197 ,1.42029 ,1.94822 ,19.11590 
191 ,37.8118 ,1.42224 ,1.95848 ,19.21663 
192 ,38.0039 ,1.42416 ,1.94822 ,19.11590 
193 ,38.1961 ,1.42606 ,1.92426 ,18.88085 
194 ,38.3882 ,1.42797 ,1.90373 ,18.67938 
195 ,38.5643 ,1.42986 ,1.89688 ,18.61222 
196 ,38.7564 ,1.43161 ,1.86951 ,18.34360 
197 ,38.9485 ,1.43355 ,1.89004 ,18.54507 
198 ,39.1404 ,1.43555 ,1.85240 ,18.17570 
199 ,39.3165 ,1.43740 ,1.85924 ,18.24286 
200 ,39.5087 ,1.43913 ,1.83528 ,18.00781 
201 ,39.6848 ,1.44107 ,1.80791 ,17.73919 
202 ,39.8769 ,1.44282 ,1.80106 ,17.67203 
203 ,40.0690 ,1.44477 ,1.80106 ,17.67203 
204 ,40.2610 ,1.44668 ,1.77711 ,17.43698 
205 ,40.4691 ,1.44869 ,1.76342 ,17.30267 
206 ,40.6611 ,1.45066 ,1.73946 ,17.06762 
207 ,40.8372 ,1.45257 ,1.74973 ,17.16836 
208 ,41.0293 ,1.45435 ,1.73262 ,17.00046 
209 ,41.2214 ,1.45626 ,1.70524 ,16.73184 
210 ,41.4137 ,1.45824 ,1.71209 ,16.79899 
211 ,41.6060 ,1.46015 ,1.67786 ,16.46321 
212 ,41.7980 ,1.46216 ,1.67444 ,16.42963 
213 ,41.9901 ,1.46397 ,1.66075 ,16.29532 
214 ,42.1823 ,1.46589 ,1.62311 ,15.92596 
215 ,42.4060 ,1.46806 ,1.64364 ,16.12743 
216 ,42.6141 ,1.47024 ,1.61284 ,15.82522 
217 ,42.8225 ,1.47228 ,1.59231 ,15.62375 
218 ,43.0143 ,1.47419 ,1.59231 ,15.62375 
219 ,43.2066 ,1.47618 ,1.58204 ,15.52302 
220 ,43.4305 ,1.47833 ,1.55809 ,15.28797 
221 ,43.6227 ,1.48026 ,1.53071 ,15.01934 
222 ,43.8149 ,1.48222 ,1.53071 ,15.01934 
223 ,44.0229 ,1.48427 ,1.50333 ,14.75072 
224 ,44.2149 ,1.48618 ,1.48965 ,14.61640 
225 ,44.4068 ,1.48812 ,1.48622 ,14.58283 
226 ,44.5992 ,1.49009 ,1.46227 ,14.34778 
227 ,44.8069 ,1.49217 ,1.47938 ,14.51567 
228 ,44.9994 ,1.49407 ,1.42805 ,14.01199 
229 ,45.2074 ,1.49612 ,1.42805 ,14.01199 
230 ,45.3994 ,1.49806 ,1.39725 ,13.70979 
231 ,45.6075 ,1.50017 ,1.41778 ,13.91126 
232 ,45.8157 ,1.50222 ,1.38698 ,13.60906 
233 ,46.0078 ,1.50412 ,1.38014 ,13.54190 
234 ,46.2000 ,1.50611 ,1.34591 ,13.20612 
235 ,46.4240 ,1.50824 ,1.35960 ,13.34043 
236 ,46.6157 ,1.51019 ,1.32196 ,12.97107 
237 ,46.8080 ,1.51217 ,1.32880 ,13.03822 
238 ,46.9998 ,1.51407 ,1.28774 ,12.63528 
239 ,47.1925 ,1.51599 ,1.31169 ,12.87033 
240 ,47.3844 ,1.51794 ,1.28089 ,12.56813 
241 ,47.5762 ,1.51982 ,1.25352 ,12.29950 
242 ,47.7683 ,1.52175 ,1.26378 ,12.40024 
243 ,47.9606 ,1.52363 ,1.22272 ,11.99730 
244 ,48.1526 ,1.52559 ,1.22614 ,12.03088 
245 ,48.3446 ,1.52750 ,1.22272 ,11.99730 
246 ,48.5366 ,1.52943 ,1.19534 ,11.72867 
247 ,48.7290 ,1.53138 ,1.19534 ,11.72867 
248 ,48.9211 ,1.53331 ,1.18507 ,11.62794 
249 ,49.1291 ,1.53536 ,1.17481 ,11.52720 
250 ,49.3371 ,1.53739 ,1.14743 ,11.25857 
251 ,49.5452 ,1.53938 ,1.14743 ,11.25857 
252 ,49.7534 ,1.54163 ,1.11663 ,10.95637 
253 ,49.9453 ,1.54362 ,1.10636 ,10.85563 
254 ,50.1373 ,1.54539 ,1.08583 ,10.65416 
255 ,50.3294 ,1.54730 ,1.07899 ,10.58701 
256 ,50.5216 ,1.54922 ,1.06530 ,10.45270 
257 ,50.7137 ,1.55120 ,1.04134 ,10.21765 
258 ,50.9057 ,1.55307 ,1.05161 ,10.31838 
259 ,51.1136 ,1.55520 ,1.02423 ,10.04976 
260 ,51.3220 ,1.55725 ,1.01739 ,9.98260 
261 ,51.5139 ,1.55924 ,1.00370 ,9.84829 
262 ,51.7220 ,1.56125 ,0.98659 ,9.68039 
263 ,51.9143 ,1.56323 ,0.96605 ,9.47892 
264 ,52.0899 ,1.56507 ,0.96605 ,9.47892 
265 ,52.2982 ,1.56690 ,0.95237 ,9.34461 
266 ,52.4907 ,1.56894 ,0.94894 ,9.31103 
267 ,52.6986 ,1.57092 ,0.92499 ,9.07598 
268 ,52.8909 ,1.57295 ,0.91472 ,8.97525 
269 ,53.0828 ,1.57492 ,0.89761 ,8.80736 
270 ,53.3068 ,1.57700 ,0.87366 ,8.57231 
271 ,53.5149 ,1.57912 ,0.86339 ,8.47158 
272 ,53.7068 ,1.58116 ,0.87023 ,8.53873 
273 ,53.8990 ,1.58302 ,0.84286 ,8.27011 
274 ,54.0913 ,1.58495 ,0.84286 ,8.27011 
275 ,54.2828 ,1.58690 ,0.82575 ,8.10221 
276 ,54.4753 ,1.58877 ,0.80179 ,7.86717 
277 ,54.6674 ,1.59069 ,0.79837 ,7.83359 
278 ,54.8753 ,1.59276 ,0.77099 ,7.56496 
279 ,55.0675 ,1.59468 ,0.77784 ,7.63212 
280 ,55.2597 ,1.59658 ,0.74361 ,7.29633 
281 ,55.4837 ,1.59869 ,0.74704 ,7.32991 
282 ,55.6920 ,1.60096 ,0.73677 ,7.22918 
283 ,55.8840 ,1.60293 ,0.72992 ,7.16202 
284 ,56.0761 ,1.60478 ,0.68544 ,6.72550 
285 ,56.2841 ,1.60690 ,0.70597 ,6.92697 
286 ,56.4758 ,1.60873 ,0.67175 ,6.59119 
287 ,56.6682 ,1.61073 ,0.67859 ,6.65835 
288 ,56.8439 ,1.61257 ,0.64437 ,6.32256 
289 ,57.0364 ,1.61436 ,0.63068 ,6.18825 
290 ,57.2285 ,1.61630 ,0.64095 ,6.28899 
291 ,57.4206 ,1.61824 ,0.61015 ,5.98678 
292 ,57.6126 ,1.62010 ,0.59304 ,5.81889 
293 ,57.8047 ,1.62204 ,0.61015 ,5.98678 
294 ,57.9967 ,1.62398 ,0.58962 ,5.78531 
295 ,58.1891 ,1.62589 ,0.57593 ,5.65100 
296 ,58.3968 ,1.62802 ,0.55197 ,5.41595 
297 ,58.6048 ,1.62996 ,0.55539 ,5.44953 
298 ,58.8131 ,1.63219 ,0.52459 ,5.14732 
299 ,59.0372 ,1.63426 ,0.53144 ,5.21448 
300 ,59.2292 ,1.63631 ,0.51091 ,5.01301 
301 ,59.4374 ,1.63838 ,0.49380 ,4.84512 
302 ,59.6295 ,1.64032 ,0.49380 ,4.84512 
303 ,59.8214 ,1.64223 ,0.49037 ,4.81154 
304 ,60.0296 ,1.64431 ,0.46300 ,4.54291 
305 ,60.2217 ,1.64619 ,0.45957 ,4.50934 
306 ,60.4136 ,1.64816 ,0.42877 ,4.20713 
307 ,60.6219 ,1.65023 ,0.44246 ,4.34144 
308 ,60.8135 ,1.65211 ,0.41509 ,4.07282 
309 ,61.0060 ,1.65414 ,0.41509 ,4.07282 
310 ,61.2302 ,1.65618 ,0.39113 ,3.83777 
311 ,61.4382 ,1.65835 ,0.38086 ,3.73703 
312 ,61.6302 ,1.66035 ,0.35691 ,3.50199 
313 ,61.8224 ,1.66221 ,0.36375 ,3.56914 
314 ,62.0145 ,1.66416 ,0.33638 ,3.30052 
315 ,62.2385 ,1.66647 ,0.35349 ,3.46841 
316 ,62.4307 ,1.66832 ,0.30558 ,2.99831 
317 ,62.6386 ,1.67037 ,0.31584 ,3.09905 
318 ,62.8308 ,1.67225 ,0.28847 ,2.83042 
319 ,63.0224 ,1.67431 ,0.28847 ,2.83042 
320 ,63.2149 ,1.67616 ,0.28504 ,2.79684 
321 ,63.4228 ,1.67823 ,0.27478 ,2.69611 
322 ,63.6151 ,1.68015 ,0.26793 ,2.62895 
323 ,63.8070 ,1.68206 ,0.24398 ,2.39390 
324 ,63.9993 ,1.68391 ,0.24055 ,2.36032 
325 ,64.1915 ,1.68593 ,0.21318 ,2.09170 
326 ,64.3834 ,1.68792 ,0.22002 ,2.15885 
327 ,64.5755 ,1.68974 ,0.20633 ,2.02454 
328 ,64.7510 ,1.69167 ,0.16869 ,1.65518 
329 ,64.9431 ,1.69345 ,0.19264 ,1.89023 
330 ,65.1191 ,1.69533 ,0.18922 ,1.85665 
331 ,65.3117 ,1.69712 ,0.15158 ,1.48729 
332 ,65.5198 ,1.69919 ,0.17553 ,1.72234 
333 ,65.7277 ,1.70130 ,0.13789 ,1.35298 
334 ,65.9360 ,1.70324 ,0.13789 ,1.35298 
335 ,66.1280 ,1.70530 ,0.10709 ,1.05077 
336 ,66.3196 ,1.70715 ,0.11393 ,1.11793 
337 ,66.5122 ,1.70909 ,0.08656 ,0.84930 
338 ,66.7203 ,1.71121 ,0.08998 ,0.88288 
339 ,66.9281 ,1.71315 ,0.06260 ,0.61425 
340 ,67.1365 ,1.71532 ,0.07287 ,0.71499 
341 ,67.3283 ,1.71728 ,0.03865 ,0.37920 
342 ,67.5686 ,1.71968 ,0.02496 ,0.24489 
343 ,67.7608 ,1.72161 ,0.02496 ,0.24489 
344 ,67.9529 ,1.72352 ,0.01811 ,0.17773 
345 ,68.1610 ,1.72556 ,0.01469 ,0.14416 
346 ,68.3531 ,1.72751 ,0.00443 ,0.04342 
347 ,68.5450 ,1.72943 ,-0.01611 ,-0.15805 
348 ,68.7370 ,1.73130 ,-0.02295 ,-0.22520 
349 ,68.9290 ,1.73325 ,-0.05717 ,-0.56099 
350 ,69.1214 ,1.73519 ,-0.04348 ,-0.42667 
351 ,69.3293 ,1.73726 ,-0.06402 ,-0.62814 
352 ,69.5212 ,1.73913 ,-0.05717 ,-0.56099 
353 ,69.7455 ,1.74134 ,-0.08455 ,-0.82961 
354 ,69.9538 ,1.74346 ,-0.07771 ,-0.76246 
355 ,70.1778 ,1.74564 ,-0.09140 ,-0.89677 
356 ,70.4016 ,1.74780 ,-0.11193 ,-1.09824 
357 ,70.5941 ,1.74988 ,-0.11877 ,-1.16540 
358 ,70.8021 ,1.75200 ,-0.14957 ,-1.46760 
359 ,71.0101 ,1.75410 ,-0.14957 ,-1.46760 
360 ,71.2183 ,1.75614 ,-0.15642 ,-1.53476 
361 ,71.4263 ,1.75813 ,-0.17353 ,-1.70265 
362 ,71.6183 ,1.76014 ,-0.17353 ,-1.70265 
363 ,71.8100 ,1.76205 ,-0.19748 ,-1.93770 
364 ,72.0024 ,1.76396 ,-0.19064 ,-1.87054 
365 ,72.1947 ,1.76590 ,-0.20433 ,-2.00485 
366 ,72.4027 ,1.76799 ,-0.21117 ,-2.07201 
367 ,72.6108 ,1.77007 ,-0.22828 ,-2.23990 
368 ,72.8185 ,1.77214 ,-0.23513 ,-2.30706 
369 ,73.0109 ,1.77408 ,-0.24539 ,-2.40779 
370 ,73.2191 ,1.77609 ,-0.25908 ,-2.54211 
371 ,73.4109 ,1.77804 ,-0.26593 ,-2.60926 
372 ,73.6032 ,1.77995 ,-0.28304 ,-2.77716 
373 ,73.7949 ,1.78192 ,-0.27961 ,-2.74358 
374 ,73.9708 ,1.78376 ,-0.31384 ,-3.07936 
375 ,74.1635 ,1.78556 ,-0.32410 ,-3.18010 
376 ,74.3554 ,1.78753 ,-0.30699 ,-3.01220 
377 ,74.5475 ,1.78940 ,-0.33437 ,-3.28083 
378 ,74.7395 ,1.79131 ,-0.33437 ,-3.28083 
379 ,74.9318 ,1.79330 ,-0.33779 ,-3.31441 
380 ,75.1238 ,1.79517 ,-0.35832 ,-3.51588 
381 ,75.3479 ,1.79743 ,-0.36859 ,-3.61661 
382 ,75.5399 ,1.79938 ,-0.38228 ,-3.75093 
383 ,75.7480 ,1.80136 ,-0.38570 ,-3.78450 
384 ,75.9402 ,1.80333 ,-0.39255 ,-3.85166 
385 ,76.1318 ,1.80523 ,-0.39597 ,-3.88524 
386 ,76.3403 ,1.80724 ,-0.41992 ,-4.12029 
387 ,76.5324 ,1.80928 ,-0.40623 ,-3.98597 
388 ,76.7403 ,1.81135 ,-0.44046 ,-4.32176 
389 ,76.9323 ,1.81327 ,-0.42677 ,-4.18744 
390 ,77.1406 ,1.81536 ,-0.45072 ,-4.42249 
391 ,77.3487 ,1.81748 ,-0.45072 ,-4.42249 
392 ,77.5569 ,1.81948 ,-0.46441 ,-4.55681 
393 ,77.7486 ,1.82143 ,-0.46441 ,-4.55681 
394 ,77.9410 ,1.82336 ,-0.48494 ,-4.75828 
395 ,78.1328 ,1.82528 ,-0.47810 ,-4.69112 
396 ,78.3248 ,1.82716 ,-0.51232 ,-5.02690 
397 ,78.5169 ,1.82906 ,-0.50890 ,-4.99332 
398 ,78.7094 ,1.83100 ,-0.51574 ,-5.06048 
399 ,78.9011 ,1.83298 ,-0.54997 ,-5.39626 
400 ,79.0936 ,1.83492 ,-0.53628 ,-5.26195 
401 ,79.2854 ,1.83681 ,-0.55681 ,-5.46342 
402 ,79.4936 ,1.83885 ,-0.54312 ,-5.32911 
403 ,79.7017 ,1.84085 ,-0.57050 ,-5.59773 
404 ,79.8939 ,1.84289 ,-0.57392 ,-5.63131 
405 ,80.0860 ,1.84476 ,-0.58761 ,-5.76562 
406 ,80.3099 ,1.84691 ,-0.58761 ,-5.76562 
407 ,80.5015 ,1.84895 ,-0.61499 ,-6.03425 
408 ,80.6942 ,1.85088 ,-0.61156 ,-6.00067 
409 ,80.9019 ,1.85296 ,-0.63894 ,-6.26930 
410 ,81.0944 ,1.85487 ,-0.62525 ,-6.13499 
411 ,81.3023 ,1.85687 ,-0.63210 ,-6.20214 
412 ,81.4945 ,1.85888 ,-0.64921 ,-6.37003 
413 ,81.6864 ,1.86082 ,-0.66290 ,-6.50435 
414 ,81.9105 ,1.86303 ,-0.66632 ,-6.53793 
415 ,82.1025 ,1.86496 ,-0.69370 ,-6.80655 
416 ,82.2947 ,1.86688 ,-0.69027 ,-6.77297 
417 ,82.5027 ,1.86892 ,-0.70396 ,-6.90729 
418 ,82.6944 ,1.87086 ,-0.70396 ,-6.90729 
419 ,82.9026 ,1.87286 ,-0.71081 ,-6.97444 
420 ,83.0951 ,1.87487 ,-0.73476 ,-7.20949 
421 ,83.2870 ,1.87684 ,-0.72107 ,-7.07518 
422 ,83.4791 ,1.87866 ,-0.74845 ,-7.34380 
423 ,83.6709 ,1.88058 ,-0.73818 ,-7.24307 
424 ,83.8467 ,1.88254 ,-0.77241 ,-7.57885 
425 ,84.0390 ,1.88428 ,-0.77925 ,-7.64601 
426 ,84.2310 ,1.88624 ,-0.78610 ,-7.71317 
427 ,84.4070 ,1.88813 ,-0.80321 ,-7.88106 
428 ,84.5992 ,1.88985 ,-0.80321 ,-7.88106 
429 ,84.7913 ,1.89181 ,-0.78952 ,-7.74674 
430 ,84.9674 ,1.89366 ,-0.81347 ,-7.98179 
431 ,85.1594 ,1.89548 ,-0.82374 ,-8.08253 
432 ,85.3513 ,1.89743 ,-0.84085 ,-8.25042 
433 ,85.5760 ,1.89968 ,-0.83058 ,-8.14968 
434 ,85.8001 ,1.90179 ,-0.83743 ,-8.21684 
435 ,85.9917 ,1.90382 ,-0.86138 ,-8.45189 
436 ,86.1841 ,1.90574 ,-0.86138 ,-8.45189 
437 ,86.3923 ,1.90780 ,-0.86481 ,-8.48547 
438 ,86.5844 ,1.90973 ,-0.88192 ,-8.65336 
439 ,86.7604 ,1.91163 ,-0.90245 ,-8.85483 
440 ,86.9525 ,1.91341 ,-0.90929 ,-8.92198 
441 ,87.1605 ,1.91546 ,-0.92983 ,-9.12345 
442 ,87.3686 ,1.91755 ,-0.91614 ,-8.98914 
443 ,87.5608 ,1.91948 ,-0.95036 ,-9.32492 
444 ,87.7528 ,1.92144 ,-0.93667 ,-9.19061 
445 ,87.9609 ,1.92346 ,-0.95378 ,-9.35850 
446 ,88.1526 ,1.92539 ,-0.96405 ,-9.45924 
447 ,88.3451 ,1.92737 ,-0.95378 ,-9.35850 
448 ,88.5848 ,1.92969 ,-0.96405 ,-9.45924 
449 ,88.7768 ,1.93163 ,-0.98800 ,-9.69429 
450 ,88.9690 ,1.93359 ,-0.99143 ,-9.72786 
451 ,89.1450 ,1.93546 ,-0.99485 ,-9.76144 
452 ,89.3370 ,1.93727 ,-1.01880 ,-9.99649 
453 ,89.5296 ,1.93925 ,-1.01538 ,-9.96291 
454 ,89.7374 ,1.94130 ,-1.03591 ,-10.16438 
455 ,89.9296 ,1.94323 ,-1.03249 ,-10.13080 
456 ,90.1378 ,1.94517 ,-1.04276 ,-10.23154 
457 ,90.3296 ,1.94718 ,-1.04960 ,-10.29869 
458 ,90.5221 ,1.94915 ,-1.05987 ,-10.39943 
459 ,90.7302 ,1.95122 ,-1.06329 ,-10.43301 
460 ,90.9380 ,1.95320 ,-1.07014 ,-10.50016 
461 ,91.1303 ,1.95521 ,-1.07698 ,-10.56732 
462 ,91.3224 ,1.95713 ,-1.09067 ,-10.70163 
