Data stamp = , 02-05-2022 07:14:59 892

Calibration Values: 
Slope = , 26.54 , g/V 
Offset Voltage at no contact = , -0.501760 , V 

No , Time , Stage Position ,   Mass , Force 
   ,  (s) ,      (mm)      ,   (g)  , (mN)  

1 ,0.0000 ,0.99942 ,5.35327 ,52.52631 
2 ,0.2120 ,0.99948 ,5.34985 ,52.49273 
3 ,0.7721 ,1.00172 ,5.33616 ,52.35841 
4 ,0.9969 ,1.00402 ,5.33274 ,52.32484 
5 ,1.2048 ,1.00619 ,5.33958 ,52.39199 
6 ,1.3970 ,1.00805 ,5.35327 ,52.52631 
7 ,1.5889 ,1.01003 ,5.30878 ,52.08979 
8 ,1.7972 ,1.01213 ,5.30536 ,52.05621 
9 ,1.9890 ,1.01409 ,5.26430 ,51.65327 
10 ,2.1971 ,1.01615 ,5.27114 ,51.72043 
11 ,2.3893 ,1.01807 ,5.24034 ,51.41822 
12 ,2.5814 ,1.02000 ,5.21296 ,51.14960 
13 ,2.7893 ,1.02208 ,5.18901 ,50.91455 
14 ,2.9972 ,1.02404 ,5.19585 ,50.98170 
15 ,3.1897 ,1.02612 ,5.15821 ,50.61234 
16 ,3.3977 ,1.02812 ,5.15136 ,50.54519 
17 ,3.5900 ,1.03011 ,5.12399 ,50.27656 
18 ,3.7819 ,1.03204 ,5.10688 ,50.10867 
19 ,3.9739 ,1.03393 ,5.08634 ,49.90720 
20 ,4.1658 ,1.03578 ,5.05897 ,49.63857 
21 ,4.3580 ,1.03772 ,5.05212 ,49.57142 
22 ,4.5502 ,1.03969 ,5.01790 ,49.23563 
23 ,4.7743 ,1.04182 ,5.02474 ,49.30279 
24 ,4.9664 ,1.04381 ,4.98368 ,48.89985 
25 ,5.1741 ,1.04585 ,4.96999 ,48.76554 
26 ,5.3664 ,1.04782 ,4.93577 ,48.42975 
27 ,5.5746 ,1.04988 ,4.94603 ,48.53049 
28 ,5.7666 ,1.05186 ,4.91181 ,48.19471 
29 ,5.9428 ,1.05371 ,4.91181 ,48.19471 
30 ,6.1348 ,1.05552 ,4.88444 ,47.92608 
31 ,6.3268 ,1.05743 ,4.85706 ,47.65745 
32 ,6.5189 ,1.05937 ,4.84679 ,47.55672 
33 ,6.7272 ,1.06132 ,4.83310 ,47.42240 
34 ,6.9351 ,1.06348 ,4.80915 ,47.18736 
35 ,7.1433 ,1.06544 ,4.77835 ,46.88515 
36 ,7.3509 ,1.06769 ,4.76466 ,46.75084 
37 ,7.5434 ,1.06960 ,4.73728 ,46.48221 
38 ,7.7355 ,1.07149 ,4.73728 ,46.48221 
39 ,7.9432 ,1.07359 ,4.70990 ,46.21359 
40 ,8.1357 ,1.07550 ,4.69964 ,46.11285 
41 ,8.3439 ,1.07756 ,4.67226 ,45.84422 
42 ,8.5519 ,1.07968 ,4.65857 ,45.70991 
43 ,8.7600 ,1.08173 ,4.64146 ,45.54202 
44 ,8.9519 ,1.08369 ,4.61066 ,45.23981 
45 ,9.1442 ,1.08562 ,4.60382 ,45.17266 
46 ,9.3520 ,1.08766 ,4.57302 ,44.87045 
47 ,9.5438 ,1.08958 ,4.55933 ,44.73614 
48 ,9.7360 ,1.09148 ,4.55933 ,44.73614 
49 ,9.9283 ,1.09347 ,4.51484 ,44.29962 
50 ,10.1203 ,1.09535 ,4.52169 ,44.36678 
51 ,10.3284 ,1.09739 ,4.48404 ,43.99742 
52 ,10.5206 ,1.09933 ,4.48404 ,43.99742 
53 ,10.7447 ,1.10155 ,4.44982 ,43.66163 
54 ,10.9525 ,1.10363 ,4.42586 ,43.42659 
55 ,11.1449 ,1.10559 ,4.41218 ,43.29227 
56 ,11.3690 ,1.10776 ,4.38822 ,43.05723 
57 ,11.5770 ,1.10991 ,4.38480 ,43.02365 
58 ,11.7690 ,1.11182 ,4.35058 ,42.68786 
59 ,11.9612 ,1.11376 ,4.34716 ,42.65429 
60 ,12.1533 ,1.11567 ,4.33004 ,42.48639 
61 ,12.3612 ,1.11780 ,4.33004 ,42.48639 
62 ,12.5535 ,1.11968 ,4.28898 ,42.08345 
63 ,12.7451 ,1.12169 ,4.28898 ,42.08345 
64 ,12.9374 ,1.12356 ,4.25476 ,41.74767 
65 ,13.1456 ,1.12560 ,4.23080 ,41.51262 
66 ,13.3379 ,1.12751 ,4.23080 ,41.51262 
67 ,13.5458 ,1.12959 ,4.20000 ,41.21042 
68 ,13.7379 ,1.13150 ,4.20342 ,41.24400 
69 ,13.9459 ,1.13357 ,4.18289 ,41.04253 
70 ,14.1382 ,1.13552 ,4.17262 ,40.94179 
71 ,14.3303 ,1.13745 ,4.14183 ,40.63959 
72 ,14.5383 ,1.13950 ,4.13498 ,40.57243 
73 ,14.7304 ,1.14146 ,4.09049 ,40.13591 
74 ,14.9381 ,1.14351 ,4.08707 ,40.10233 
75 ,15.1464 ,1.14554 ,4.05285 ,39.76655 
76 ,15.3386 ,1.14761 ,4.04943 ,39.73297 
77 ,15.5305 ,1.14943 ,4.02889 ,39.53150 
78 ,15.7228 ,1.15137 ,4.02889 ,39.53150 
79 ,15.9147 ,1.15325 ,4.00152 ,39.26288 
80 ,16.1066 ,1.15519 ,3.99125 ,39.16214 
81 ,16.3149 ,1.15726 ,3.97072 ,38.96067 
82 ,16.5232 ,1.15934 ,3.94676 ,38.72562 
83 ,16.7312 ,1.16142 ,3.91938 ,38.45700 
84 ,16.9229 ,1.16335 ,3.92965 ,38.55773 
85 ,17.1150 ,1.16529 ,3.88516 ,38.12122 
86 ,17.3072 ,1.16721 ,3.89543 ,38.22195 
87 ,17.5155 ,1.16931 ,3.86463 ,37.91975 
88 ,17.7074 ,1.17120 ,3.85436 ,37.81901 
89 ,17.9157 ,1.17326 ,3.82699 ,37.55038 
90 ,18.1078 ,1.17520 ,3.80987 ,37.38249 
91 ,18.3160 ,1.17730 ,3.78592 ,37.14744 
92 ,18.5240 ,1.17934 ,3.77565 ,37.04671 
93 ,18.7158 ,1.18131 ,3.75512 ,36.84524 
94 ,18.9081 ,1.18326 ,3.73801 ,36.67735 
95 ,19.1163 ,1.18526 ,3.72774 ,36.57661 
96 ,19.3079 ,1.18719 ,3.70721 ,36.37514 
97 ,19.5164 ,1.18929 ,3.69694 ,36.27441 
98 ,19.7244 ,1.19133 ,3.67641 ,36.07294 
99 ,19.9325 ,1.19343 ,3.64561 ,35.77073 
100 ,20.1245 ,1.19534 ,3.65930 ,35.90505 
101 ,20.3164 ,1.19728 ,3.61139 ,35.43495 
102 ,20.5088 ,1.19916 ,3.60454 ,35.36779 
103 ,20.7007 ,1.20110 ,3.60454 ,35.36779 
104 ,20.8930 ,1.20301 ,3.56348 ,34.96485 
105 ,21.0851 ,1.20496 ,3.56690 ,34.99843 
106 ,21.2932 ,1.20702 ,3.54295 ,34.76338 
107 ,21.5010 ,1.20901 ,3.53952 ,34.72981 
108 ,21.7093 ,1.21120 ,3.50872 ,34.42760 
109 ,21.9172 ,1.21328 ,3.48135 ,34.15898 
110 ,22.1093 ,1.21518 ,3.47450 ,34.09182 
111 ,22.3016 ,1.21713 ,3.47450 ,34.09182 
112 ,22.5096 ,1.21916 ,3.44713 ,33.82319 
113 ,22.7016 ,1.22124 ,3.42317 ,33.58814 
114 ,22.8935 ,1.22298 ,3.41633 ,33.52099 
115 ,23.0859 ,1.22499 ,3.39579 ,33.31952 
116 ,23.2779 ,1.22688 ,3.37526 ,33.11805 
117 ,23.4700 ,1.22884 ,3.34788 ,32.84942 
118 ,23.6621 ,1.23073 ,3.35130 ,32.88300 
119 ,23.8700 ,1.23284 ,3.32393 ,32.61437 
120 ,24.0782 ,1.23480 ,3.31366 ,32.51364 
121 ,24.2701 ,1.23684 ,3.28971 ,32.27859 
122 ,24.4622 ,1.23870 ,3.29655 ,32.34575 
123 ,24.6546 ,1.24063 ,3.25548 ,31.94281 
124 ,24.8621 ,1.24270 ,3.25548 ,31.94281 
125 ,25.0542 ,1.24462 ,3.22126 ,31.60702 
126 ,25.2462 ,1.24653 ,3.21100 ,31.50629 
127 ,25.4384 ,1.24850 ,3.20757 ,31.47271 
128 ,25.6305 ,1.25034 ,3.17677 ,31.17051 
129 ,25.8225 ,1.25232 ,3.17335 ,31.13693 
130 ,26.0145 ,1.25424 ,3.14940 ,30.90188 
131 ,26.1907 ,1.25615 ,3.15282 ,30.93546 
132 ,26.3827 ,1.25789 ,3.13229 ,30.73399 
133 ,26.5747 ,1.25982 ,3.10833 ,30.49894 
134 ,26.7508 ,1.26170 ,3.08780 ,30.29747 
135 ,26.9429 ,1.26350 ,3.07411 ,30.16316 
136 ,27.1510 ,1.26560 ,3.05700 ,29.99527 
137 ,27.3432 ,1.26751 ,3.05358 ,29.96169 
138 ,27.5351 ,1.26937 ,3.03304 ,29.76022 
139 ,27.7432 ,1.27147 ,3.00909 ,29.52517 
140 ,27.9514 ,1.27354 ,2.98171 ,29.25654 
141 ,28.1434 ,1.27549 ,2.99198 ,29.35728 
142 ,28.3354 ,1.27743 ,2.95776 ,29.02150 
143 ,28.5596 ,1.27968 ,2.94407 ,28.88718 
144 ,28.7356 ,1.28156 ,2.92696 ,28.71929 
145 ,28.9117 ,1.28333 ,2.92696 ,28.71929 
146 ,29.0878 ,1.28505 ,2.90642 ,28.51782 
147 ,29.2798 ,1.28689 ,2.89958 ,28.45066 
148 ,29.4719 ,1.28879 ,2.87562 ,28.21562 
149 ,29.6804 ,1.29077 ,2.86193 ,28.08130 
150 ,29.8724 ,1.29279 ,2.82429 ,27.71194 
151 ,30.0645 ,1.29467 ,2.83114 ,27.77910 
152 ,30.2562 ,1.29661 ,2.81060 ,27.57763 
153 ,30.4648 ,1.29870 ,2.80034 ,27.47689 
154 ,30.6729 ,1.30080 ,2.77296 ,27.20827 
155 ,30.8649 ,1.30275 ,2.77296 ,27.20827 
156 ,31.0568 ,1.30461 ,2.74900 ,26.97322 
157 ,31.2651 ,1.30673 ,2.74216 ,26.90606 
158 ,31.4570 ,1.30861 ,2.71136 ,26.60386 
159 ,31.6489 ,1.31056 ,2.70452 ,26.53670 
160 ,31.8414 ,1.31247 ,2.69425 ,26.43597 
161 ,32.0654 ,1.31466 ,2.67714 ,26.26807 
162 ,32.2573 ,1.31665 ,2.65318 ,26.03303 
163 ,32.4652 ,1.31869 ,2.64976 ,25.99945 
164 ,32.6575 ,1.32060 ,2.63607 ,25.86514 
165 ,32.8498 ,1.32256 ,2.62238 ,25.73082 
166 ,33.0416 ,1.32450 ,2.60869 ,25.59651 
167 ,33.2500 ,1.32651 ,2.57789 ,25.29430 
168 ,33.4420 ,1.32849 ,2.57105 ,25.22715 
169 ,33.6180 ,1.33034 ,2.54367 ,24.95852 
170 ,33.8100 ,1.33213 ,2.52998 ,24.82421 
171 ,34.0022 ,1.33409 ,2.51972 ,24.72347 
172 ,34.2100 ,1.33613 ,2.50945 ,24.62274 
173 ,34.4024 ,1.33808 ,2.49576 ,24.48842 
174 ,34.5943 ,1.34000 ,2.46839 ,24.21980 
175 ,34.8024 ,1.34204 ,2.47523 ,24.28696 
176 ,35.0107 ,1.34417 ,2.44101 ,23.95117 
177 ,35.2025 ,1.34610 ,2.44101 ,23.95117 
178 ,35.3948 ,1.34802 ,2.40679 ,23.61539 
179 ,35.6028 ,1.34993 ,2.41021 ,23.64897 
180 ,35.8110 ,1.35217 ,2.38283 ,23.38034 
181 ,36.0191 ,1.35423 ,2.38625 ,23.41392 
182 ,36.2268 ,1.35627 ,2.36572 ,23.21245 
183 ,36.4193 ,1.35824 ,2.33492 ,22.91024 
184 ,36.6274 ,1.36032 ,2.32465 ,22.80951 
185 ,36.8029 ,1.36222 ,2.30412 ,22.60804 
186 ,36.9953 ,1.36401 ,2.29385 ,22.50731 
187 ,37.1872 ,1.36590 ,2.29385 ,22.50731 
188 ,37.3796 ,1.36784 ,2.26648 ,22.23868 
189 ,37.5718 ,1.36972 ,2.25279 ,22.10437 
190 ,37.7638 ,1.37168 ,2.23910 ,21.97005 
191 ,37.9717 ,1.37369 ,2.22199 ,21.80216 
192 ,38.1639 ,1.37564 ,2.21857 ,21.76858 
193 ,38.3560 ,1.37761 ,2.19119 ,21.49996 
194 ,38.5641 ,1.37966 ,2.19461 ,21.53353 
195 ,38.7561 ,1.38157 ,2.16723 ,21.26491 
196 ,38.9479 ,1.38348 ,2.15012 ,21.09702 
197 ,39.1403 ,1.38545 ,2.13986 ,20.99628 
198 ,39.3483 ,1.38749 ,2.13986 ,20.99628 
199 ,39.5564 ,1.38960 ,2.09537 ,20.55976 
200 ,39.7642 ,1.39167 ,2.11248 ,20.72766 
201 ,39.9567 ,1.39357 ,2.08168 ,20.42545 
202 ,40.1322 ,1.39548 ,2.06457 ,20.25756 
203 ,40.3248 ,1.39724 ,2.06115 ,20.22398 
204 ,40.5170 ,1.39920 ,2.02350 ,19.85462 
205 ,40.7251 ,1.40127 ,2.03035 ,19.92178 
206 ,40.9332 ,1.40338 ,2.00639 ,19.68673 
207 ,41.1252 ,1.40532 ,1.99613 ,19.58599 
208 ,41.3172 ,1.40720 ,1.97902 ,19.41810 
209 ,41.5254 ,1.40928 ,1.96875 ,19.31737 
210 ,41.7174 ,1.41121 ,1.94479 ,19.08232 
211 ,41.9255 ,1.41332 ,1.94137 ,19.04874 
212 ,42.1176 ,1.41518 ,1.91399 ,18.78011 
213 ,42.3257 ,1.41731 ,1.91742 ,18.81369 
214 ,42.5335 ,1.41937 ,1.89004 ,18.54507 
215 ,42.7259 ,1.42125 ,1.90031 ,18.64580 
216 ,42.9335 ,1.42338 ,1.85240 ,18.17570 
217 ,43.1260 ,1.42529 ,1.86608 ,18.31002 
218 ,43.3338 ,1.42736 ,1.82502 ,17.90708 
219 ,43.5422 ,1.42943 ,1.83528 ,18.00781 
220 ,43.7502 ,1.43151 ,1.81133 ,17.77276 
221 ,43.9423 ,1.43346 ,1.79764 ,17.63845 
222 ,44.1345 ,1.43537 ,1.78395 ,17.50414 
223 ,44.3585 ,1.43762 ,1.75657 ,17.23551 
224 ,44.5505 ,1.43953 ,1.75315 ,17.20193 
225 ,44.7586 ,1.44155 ,1.72578 ,16.93331 
226 ,44.9347 ,1.44351 ,1.72578 ,16.93331 
227 ,45.1429 ,1.44531 ,1.71551 ,16.83257 
228 ,45.3349 ,1.44737 ,1.69840 ,16.66468 
229 ,45.5266 ,1.44928 ,1.68813 ,16.56395 
230 ,45.7191 ,1.45122 ,1.66418 ,16.32890 
231 ,45.9269 ,1.45327 ,1.65049 ,16.19458 
232 ,46.1191 ,1.45519 ,1.64364 ,16.12743 
233 ,46.3271 ,1.45722 ,1.64364 ,16.12743 
234 ,46.5033 ,1.45913 ,1.62311 ,15.92596 
235 ,46.6949 ,1.46094 ,1.58547 ,15.55660 
236 ,46.8870 ,1.46289 ,1.59231 ,15.62375 
237 ,47.0953 ,1.46490 ,1.56493 ,15.35513 
238 ,47.3197 ,1.46723 ,1.55124 ,15.22081 
239 ,47.5278 ,1.46923 ,1.54782 ,15.18724 
240 ,47.7197 ,1.47121 ,1.52387 ,14.95219 
241 ,47.9277 ,1.47324 ,1.53071 ,15.01934 
242 ,48.1359 ,1.47534 ,1.49991 ,14.71714 
243 ,48.3279 ,1.47728 ,1.50676 ,14.78430 
244 ,48.5200 ,1.47917 ,1.47253 ,14.44851 
245 ,48.7119 ,1.48114 ,1.46911 ,14.41493 
246 ,48.9039 ,1.48299 ,1.46569 ,14.38136 
247 ,49.0962 ,1.48496 ,1.41778 ,13.91126 
248 ,49.2723 ,1.48682 ,1.43831 ,14.11273 
249 ,49.4804 ,1.48879 ,1.40409 ,13.77695 
250 ,49.8803 ,1.49178 ,1.40067 ,13.74337 
251 ,50.0887 ,1.49481 ,1.36303 ,13.37401 
252 ,50.2966 ,1.49691 ,1.33907 ,13.13896 
253 ,50.4887 ,1.49889 ,1.36303 ,13.37401 
254 ,50.6810 ,1.50085 ,1.32880 ,13.03822 
255 ,50.8730 ,1.50271 ,1.31169 ,12.87033 
256 ,51.0648 ,1.50461 ,1.31169 ,12.87033 
257 ,51.2733 ,1.50666 ,1.29800 ,12.73602 
258 ,51.4973 ,1.50886 ,1.27747 ,12.53455 
259 ,51.6895 ,1.51089 ,1.27063 ,12.46739 
260 ,51.8971 ,1.51300 ,1.23983 ,12.16519 
261 ,52.0897 ,1.51490 ,1.24325 ,12.19877 
262 ,52.2816 ,1.51682 ,1.21245 ,11.89656 
263 ,52.4896 ,1.51886 ,1.22272 ,11.99730 
264 ,52.6815 ,1.52080 ,1.20218 ,11.79583 
265 ,52.8740 ,1.52275 ,1.18165 ,11.59436 
266 ,53.0659 ,1.52466 ,1.15770 ,11.35931 
267 ,53.2576 ,1.52653 ,1.14401 ,11.22500 
268 ,53.4502 ,1.52847 ,1.14743 ,11.25857 
269 ,53.6743 ,1.53068 ,1.14058 ,11.19142 
270 ,53.8664 ,1.53265 ,1.12690 ,11.05710 
271 ,54.0583 ,1.53459 ,1.09267 ,10.72132 
272 ,54.2666 ,1.53667 ,1.10294 ,10.82206 
273 ,54.4582 ,1.53857 ,1.08241 ,10.62059 
274 ,54.6506 ,1.54049 ,1.07556 ,10.55343 
275 ,54.8427 ,1.54244 ,1.04476 ,10.25123 
276 ,55.0508 ,1.54450 ,1.04476 ,10.25123 
277 ,55.2589 ,1.54645 ,1.02423 ,10.04976 
278 ,55.4505 ,1.54849 ,1.01739 ,9.98260 
279 ,55.6429 ,1.55037 ,0.97974 ,9.61324 
280 ,55.8510 ,1.55249 ,1.00028 ,9.81471 
281 ,56.0430 ,1.55443 ,0.97632 ,9.57966 
282 ,56.2353 ,1.55631 ,0.96605 ,9.47892 
283 ,56.4271 ,1.55823 ,0.95579 ,9.37819 
284 ,56.6033 ,1.56014 ,0.94552 ,9.27745 
285 ,56.7955 ,1.56189 ,0.92841 ,9.10956 
286 ,57.0033 ,1.56399 ,0.91472 ,8.97525 
287 ,57.1955 ,1.56590 ,0.90788 ,8.90809 
288 ,57.3874 ,1.56786 ,0.89761 ,8.80736 
289 ,57.5794 ,1.56977 ,0.87708 ,8.60589 
290 ,57.7720 ,1.57171 ,0.87708 ,8.60589 
291 ,57.9798 ,1.57378 ,0.84286 ,8.27011 
292 ,58.1876 ,1.57572 ,0.84970 ,8.33726 
293 ,58.3798 ,1.57770 ,0.82232 ,8.06864 
294 ,58.5722 ,1.57966 ,0.82917 ,8.13579 
295 ,58.7803 ,1.58174 ,0.79495 ,7.80001 
296 ,59.0524 ,1.58435 ,0.78126 ,7.66570 
297 ,59.2445 ,1.58643 ,0.77784 ,7.63212 
298 ,59.4526 ,1.58852 ,0.76757 ,7.53138 
299 ,59.6606 ,1.59049 ,0.74019 ,7.26276 
300 ,59.8528 ,1.59250 ,0.73677 ,7.22918 
301 ,60.0604 ,1.59457 ,0.72992 ,7.16202 
302 ,60.2525 ,1.59645 ,0.71966 ,7.06129 
303 ,60.4446 ,1.59837 ,0.69228 ,6.79266 
304 ,60.6531 ,1.60035 ,0.69228 ,6.79266 
305 ,60.8607 ,1.60258 ,0.66833 ,6.55761 
306 ,61.0532 ,1.60449 ,0.67517 ,6.62477 
307 ,61.2613 ,1.60662 ,0.64095 ,6.28899 
308 ,61.4532 ,1.60849 ,0.64095 ,6.28899 
309 ,61.6612 ,1.61054 ,0.61699 ,6.05394 
310 ,61.8534 ,1.61249 ,0.62042 ,6.08752 
311 ,62.0616 ,1.61453 ,0.60673 ,5.95320 
312 ,62.2536 ,1.61647 ,0.58962 ,5.78531 
313 ,62.4458 ,1.61840 ,0.58277 ,5.71815 
314 ,62.6538 ,1.62051 ,0.58277 ,5.71815 
315 ,62.8620 ,1.62255 ,0.53828 ,5.28164 
316 ,63.0696 ,1.62465 ,0.55882 ,5.48311 
317 ,63.2621 ,1.62656 ,0.51433 ,5.04659 
318 ,63.4702 ,1.62864 ,0.53144 ,5.21448 
319 ,63.6782 ,1.63070 ,0.50748 ,4.97943 
320 ,63.8703 ,1.63262 ,0.51433 ,5.04659 
321 ,64.0624 ,1.63456 ,0.48011 ,4.71081 
322 ,64.2702 ,1.63666 ,0.48353 ,4.74438 
323 ,64.4785 ,1.63873 ,0.45615 ,4.47576 
324 ,64.6707 ,1.64060 ,0.46642 ,4.57649 
325 ,64.8788 ,1.64268 ,0.43220 ,4.24071 
326 ,65.0708 ,1.64466 ,0.43562 ,4.27429 
327 ,65.2624 ,1.64656 ,0.41851 ,4.10640 
328 ,65.4549 ,1.64850 ,0.42535 ,4.17355 
329 ,65.6789 ,1.65065 ,0.39113 ,3.83777 
330 ,65.8712 ,1.65265 ,0.39455 ,3.87135 
331 ,66.0789 ,1.65470 ,0.37060 ,3.63630 
332 ,66.2713 ,1.65661 ,0.37402 ,3.66988 
333 ,66.4631 ,1.65864 ,0.33638 ,3.30052 
334 ,66.6554 ,1.66049 ,0.35006 ,3.43483 
335 ,66.8633 ,1.66246 ,0.32611 ,3.19978 
336 ,67.0715 ,1.66467 ,0.33295 ,3.26694 
337 ,67.2796 ,1.66669 ,0.30558 ,2.99831 
338 ,67.4713 ,1.66858 ,0.30558 ,2.99831 
339 ,67.6638 ,1.67056 ,0.26793 ,2.62895 
340 ,67.8560 ,1.67244 ,0.28504 ,2.79684 
341 ,68.0480 ,1.67443 ,0.26109 ,2.56179 
342 ,68.2561 ,1.67648 ,0.25767 ,2.52822 
343 ,68.4479 ,1.67838 ,0.24055 ,2.36032 
344 ,68.6561 ,1.68046 ,0.23029 ,2.25959 
345 ,68.8642 ,1.68256 ,0.21660 ,2.12528 
346 ,69.0566 ,1.68450 ,0.20633 ,2.02454 
347 ,69.2484 ,1.68641 ,0.18580 ,1.82307 
348 ,69.4405 ,1.68836 ,0.18580 ,1.82307 
349 ,69.6161 ,1.69021 ,0.18580 ,1.82307 
350 ,69.8086 ,1.69205 ,0.17211 ,1.68876 
351 ,70.0164 ,1.69409 ,0.14816 ,1.45371 
352 ,70.2087 ,1.69598 ,0.15158 ,1.48729 
353 ,70.4014 ,1.69789 ,0.13105 ,1.28582 
354 ,70.6088 ,1.70001 ,0.11736 ,1.15151 
355 ,70.8489 ,1.70221 ,0.10709 ,1.05077 
356 ,71.0411 ,1.70433 ,0.10025 ,0.98361 
357 ,71.2333 ,1.70624 ,0.09682 ,0.95004 
358 ,71.4413 ,1.70828 ,0.07629 ,0.74857 
359 ,71.6334 ,1.71022 ,0.07629 ,0.74857 
360 ,71.8251 ,1.71215 ,0.05234 ,0.51352 
361 ,72.0175 ,1.71409 ,0.04891 ,0.47994 
362 ,72.2256 ,1.71616 ,0.03180 ,0.31205 
363 ,72.4178 ,1.71809 ,0.02496 ,0.24489 
364 ,72.6256 ,1.72009 ,0.00785 ,0.07700 
365 ,72.8178 ,1.72207 ,0.00443 ,0.04342 
366 ,73.0099 ,1.72401 ,0.01127 ,0.11058 
367 ,73.2181 ,1.72610 ,-0.01611 ,-0.15805 
368 ,73.4098 ,1.72799 ,-0.03322 ,-0.32594 
369 ,73.6022 ,1.72991 ,-0.05033 ,-0.49383 
370 ,73.7942 ,1.73182 ,-0.04006 ,-0.39310 
371 ,73.9863 ,1.73376 ,-0.05375 ,-0.52741 
372 ,74.1943 ,1.73585 ,-0.05717 ,-0.56099 
373 ,74.4024 ,1.73790 ,-0.08797 ,-0.86319 
374 ,74.5948 ,1.73984 ,-0.07771 ,-0.76246 
375 ,74.8028 ,1.74193 ,-0.09482 ,-0.93035 
376 ,75.0106 ,1.74401 ,-0.10851 ,-1.06466 
377 ,75.2188 ,1.74604 ,-0.12219 ,-1.19898 
378 ,75.4108 ,1.74805 ,-0.12219 ,-1.19898 
379 ,75.6033 ,1.74997 ,-0.15299 ,-1.50118 
380 ,75.7951 ,1.75184 ,-0.13931 ,-1.36687 
381 ,75.9868 ,1.75372 ,-0.14957 ,-1.46760 
382 ,76.1788 ,1.75566 ,-0.18037 ,-1.76981 
383 ,76.3873 ,1.75768 ,-0.18037 ,-1.76981 
384 ,76.5954 ,1.75982 ,-0.18037 ,-1.76981 
385 ,76.7715 ,1.76169 ,-0.19748 ,-1.93770 
386 ,76.9795 ,1.76363 ,-0.21802 ,-2.13917 
387 ,77.1556 ,1.76558 ,-0.20775 ,-2.03843 
388 ,77.3638 ,1.76751 ,-0.23170 ,-2.27348 
389 ,77.5719 ,1.76959 ,-0.23513 ,-2.30706 
390 ,77.7638 ,1.77153 ,-0.26935 ,-2.64284 
391 ,77.9560 ,1.77342 ,-0.23855 ,-2.34064 
392 ,78.1480 ,1.77530 ,-0.27619 ,-2.71000 
393 ,78.3400 ,1.77726 ,-0.27619 ,-2.71000 
394 ,78.5480 ,1.77928 ,-0.28304 ,-2.77716 
395 ,78.7562 ,1.78141 ,-0.29330 ,-2.87789 
396 ,78.9483 ,1.78333 ,-0.30357 ,-2.97863 
397 ,79.1401 ,1.78526 ,-0.32410 ,-3.18010 
398 ,79.3326 ,1.78720 ,-0.31726 ,-3.11294 
399 ,79.5241 ,1.78915 ,-0.35148 ,-3.44872 
400 ,79.7165 ,1.79102 ,-0.34806 ,-3.41514 
401 ,79.9408 ,1.79333 ,-0.35832 ,-3.51588 
402 ,80.1487 ,1.79534 ,-0.35832 ,-3.51588 
403 ,80.3408 ,1.79730 ,-0.38228 ,-3.75093 
404 ,80.5487 ,1.79937 ,-0.38228 ,-3.75093 
405 ,80.7409 ,1.80131 ,-0.40623 ,-3.98597 
406 ,80.9492 ,1.80333 ,-0.40281 ,-3.95240 
407 ,81.1412 ,1.80529 ,-0.42335 ,-4.15387 
408 ,81.3334 ,1.80722 ,-0.41650 ,-4.08671 
409 ,81.5253 ,1.80913 ,-0.44388 ,-4.35534 
410 ,81.7171 ,1.81101 ,-0.43361 ,-4.25460 
411 ,81.9096 ,1.81294 ,-0.45072 ,-4.42249 
412 ,82.1018 ,1.81488 ,-0.47468 ,-4.65754 
413 ,82.3096 ,1.81699 ,-0.47810 ,-4.69112 
414 ,82.5179 ,1.81903 ,-0.47126 ,-4.62396 
415 ,82.7100 ,1.82100 ,-0.48837 ,-4.79185 
416 ,82.9177 ,1.82307 ,-0.49863 ,-4.89259 
417 ,83.1262 ,1.82512 ,-0.51917 ,-5.09406 
418 ,83.3342 ,1.82721 ,-0.52601 ,-5.16121 
419 ,83.5423 ,1.82928 ,-0.54312 ,-5.32911 
420 ,83.7344 ,1.83120 ,-0.53970 ,-5.29553 
421 ,83.9264 ,1.83307 ,-0.55339 ,-5.42984 
422 ,84.1185 ,1.83500 ,-0.56365 ,-5.53058 
423 ,84.3267 ,1.83709 ,-0.57392 ,-5.63131 
424 ,84.5348 ,1.83923 ,-0.57734 ,-5.66489 
425 ,84.7429 ,1.84127 ,-0.59445 ,-5.83278 
426 ,84.9346 ,1.84320 ,-0.58761 ,-5.76562 
427 ,85.1429 ,1.84530 ,-0.61841 ,-6.06783 
428 ,85.3509 ,1.84734 ,-0.60472 ,-5.93352 
429 ,85.5591 ,1.84943 ,-0.62183 ,-6.10141 
430 ,85.7510 ,1.85139 ,-0.63894 ,-6.26930 
431 ,85.9432 ,1.85330 ,-0.66290 ,-6.50435 
432 ,86.1511 ,1.85540 ,-0.64236 ,-6.30288 
433 ,86.3594 ,1.85745 ,-0.65605 ,-6.43719 
434 ,86.5673 ,1.85952 ,-0.67316 ,-6.60508 
435 ,86.7596 ,1.86144 ,-0.67316 ,-6.60508 
436 ,86.9675 ,1.86350 ,-0.69027 ,-6.77297 
437 ,87.1433 ,1.86542 ,-0.70396 ,-6.90729 
438 ,87.3360 ,1.86717 ,-0.69370 ,-6.80655 
439 ,87.5439 ,1.86932 ,-0.72450 ,-7.10876 
440 ,87.7359 ,1.87120 ,-0.73134 ,-7.17591 
441 ,87.9280 ,1.87309 ,-0.74161 ,-7.27665 
442 ,88.1202 ,1.87501 ,-0.74503 ,-7.31023 
443 ,88.3281 ,1.87713 ,-0.75187 ,-7.37738 
444 ,88.5365 ,1.87921 ,-0.76556 ,-7.51170 
445 ,88.7283 ,1.88112 ,-0.77241 ,-7.57885 
446 ,88.9524 ,1.88337 ,-0.77583 ,-7.61243 
447 ,89.1445 ,1.88528 ,-0.79636 ,-7.81390 
448 ,89.3682 ,1.88740 ,-0.78952 ,-7.74674 
449 ,89.5607 ,1.88943 ,-0.81005 ,-7.94821 
450 ,89.7684 ,1.89153 ,-0.83058 ,-8.14968 
451 ,89.9606 ,1.89345 ,-0.83058 ,-8.14968 
452 ,90.1528 ,1.89536 ,-0.83058 ,-8.14968 
453 ,90.3449 ,1.89732 ,-0.86138 ,-8.45189 
454 ,90.5369 ,1.89917 ,-0.85112 ,-8.35115 
455 ,90.7450 ,1.90127 ,-0.87165 ,-8.55262 
456 ,90.9532 ,1.90322 ,-0.86823 ,-8.51904 
457 ,91.1452 ,1.90539 ,-0.88192 ,-8.65336 
458 ,91.3534 ,1.90731 ,-0.87165 ,-8.55262 
459 ,91.5451 ,1.90928 ,-0.90587 ,-8.88841 
460 ,91.7374 ,1.91119 ,-0.90245 ,-8.85483 
461 ,91.9617 ,1.91335 ,-0.92298 ,-9.05630 
462 ,92.1538 ,1.91537 ,-0.93325 ,-9.15703 
463 ,92.3618 ,1.91747 ,-0.94009 ,-9.22419 
