Data stamp = , 29-04-2022 14:09:44 638

Calibration Values: 
Slope = , 26.54 , g/V 
Offset Voltage at no contact = , -0.501760 , V 

No , Time , Stage Position ,   Mass , Force 
   ,  (s) ,      (mm)      ,   (g)  , (mN)  

1 ,0.0000 ,1.04947 ,5.04870 ,49.53784 
2 ,0.2110 ,1.04956 ,5.05212 ,49.57142 
3 ,0.7391 ,1.05152 ,5.03843 ,49.43710 
4 ,0.9472 ,1.05358 ,5.04870 ,49.53784 
5 ,1.1556 ,1.05561 ,5.05212 ,49.57142 
6 ,1.3637 ,1.05779 ,5.05212 ,49.57142 
7 ,1.5557 ,1.05973 ,5.02817 ,49.33637 
8 ,1.7640 ,1.06176 ,5.01790 ,49.23563 
9 ,1.9557 ,1.06372 ,4.97683 ,48.83269 
10 ,2.1322 ,1.06559 ,4.98710 ,48.93343 
11 ,2.3402 ,1.06756 ,4.95972 ,48.66480 
12 ,2.5320 ,1.06947 ,4.93235 ,48.39618 
13 ,2.7243 ,1.07141 ,4.92208 ,48.29544 
14 ,2.9326 ,1.07346 ,4.88786 ,47.95966 
15 ,3.1245 ,1.07544 ,4.87759 ,47.85892 
16 ,3.3167 ,1.07731 ,4.85706 ,47.65745 
17 ,3.5247 ,1.07942 ,4.83652 ,47.45598 
18 ,3.7167 ,1.08139 ,4.83995 ,47.48956 
19 ,3.9090 ,1.08331 ,4.78177 ,46.91873 
20 ,4.1009 ,1.08517 ,4.78861 ,46.98589 
21 ,4.2933 ,1.08707 ,4.78177 ,46.91873 
22 ,4.5011 ,1.08916 ,4.76124 ,46.71726 
23 ,4.6928 ,1.09105 ,4.72359 ,46.34790 
24 ,4.8853 ,1.09301 ,4.71333 ,46.24716 
25 ,5.0933 ,1.09512 ,4.68937 ,46.01212 
26 ,5.2854 ,1.09706 ,4.67911 ,45.91138 
27 ,5.4775 ,1.09894 ,4.67911 ,45.91138 
28 ,5.6697 ,1.10083 ,4.64488 ,45.57560 
29 ,5.8616 ,1.10277 ,4.62777 ,45.40771 
30 ,6.0698 ,1.10486 ,4.60724 ,45.20624 
31 ,6.2457 ,1.10675 ,4.60382 ,45.17266 
32 ,6.4219 ,1.10849 ,4.56960 ,44.83688 
33 ,6.6140 ,1.11028 ,4.54906 ,44.63541 
34 ,6.8219 ,1.11241 ,4.54906 ,44.63541 
35 ,7.0302 ,1.11439 ,4.50457 ,44.19889 
36 ,7.2382 ,1.11658 ,4.50457 ,44.19889 
37 ,7.4142 ,1.11838 ,4.49773 ,44.13173 
38 ,7.6063 ,1.12020 ,4.47035 ,43.86310 
39 ,7.7984 ,1.12211 ,4.46351 ,43.79595 
40 ,8.0060 ,1.12418 ,4.43955 ,43.56090 
41 ,8.2306 ,1.12633 ,4.40191 ,43.19154 
42 ,8.4226 ,1.12835 ,4.39164 ,43.09080 
43 ,8.6146 ,1.13031 ,4.36084 ,42.78860 
44 ,8.8068 ,1.13220 ,4.36084 ,42.78860 
45 ,8.9985 ,1.13410 ,4.34716 ,42.65429 
46 ,9.1910 ,1.13608 ,4.31636 ,42.35208 
47 ,9.3990 ,1.13810 ,4.31293 ,42.31850 
48 ,9.5912 ,1.14010 ,4.28213 ,42.01630 
49 ,9.7833 ,1.14201 ,4.27871 ,41.98272 
50 ,9.9753 ,1.14392 ,4.25133 ,41.71409 
51 ,10.1668 ,1.14581 ,4.23765 ,41.57978 
52 ,10.3595 ,1.14775 ,4.22053 ,41.41189 
53 ,10.5675 ,1.14978 ,4.21369 ,41.34473 
54 ,10.7597 ,1.15172 ,4.18974 ,41.10968 
55 ,10.9676 ,1.15379 ,4.17262 ,40.94179 
56 ,11.1758 ,1.15578 ,4.13156 ,40.53885 
57 ,11.3840 ,1.15801 ,4.14183 ,40.63959 
58 ,11.5919 ,1.16010 ,4.11103 ,40.33738 
59 ,11.7839 ,1.16198 ,4.09391 ,40.16949 
60 ,11.9758 ,1.16389 ,4.08023 ,40.03518 
61 ,12.1681 ,1.16583 ,4.06312 ,39.86729 
62 ,12.3599 ,1.16772 ,4.04258 ,39.66582 
63 ,12.5521 ,1.16962 ,4.01178 ,39.36361 
64 ,12.7443 ,1.17158 ,4.02205 ,39.46435 
65 ,12.9525 ,1.17367 ,3.98783 ,39.12856 
66 ,13.1445 ,1.17555 ,3.97756 ,39.02783 
67 ,13.3532 ,1.17768 ,3.94676 ,38.72562 
68 ,13.5284 ,1.17956 ,3.96045 ,38.85994 
69 ,13.7207 ,1.18139 ,3.92281 ,38.49058 
70 ,13.9128 ,1.18326 ,3.90227 ,38.28911 
71 ,14.1207 ,1.18527 ,3.89885 ,38.25553 
72 ,14.3131 ,1.18722 ,3.86121 ,37.88617 
73 ,14.5208 ,1.18931 ,3.86121 ,37.88617 
74 ,14.7133 ,1.19125 ,3.84067 ,37.68470 
75 ,14.9054 ,1.19320 ,3.83041 ,37.58396 
76 ,15.0974 ,1.19511 ,3.80987 ,37.38249 
77 ,15.2891 ,1.19696 ,3.79276 ,37.21460 
78 ,15.4812 ,1.19885 ,3.78592 ,37.14744 
79 ,15.6571 ,1.20081 ,3.75854 ,36.87882 
80 ,15.8501 ,1.20264 ,3.74485 ,36.74450 
81 ,16.0416 ,1.20460 ,3.74143 ,36.71093 
82 ,16.2336 ,1.20645 ,3.71063 ,36.40872 
83 ,16.4261 ,1.20840 ,3.70379 ,36.34157 
84 ,16.6341 ,1.21040 ,3.67641 ,36.07294 
85 ,16.8582 ,1.21261 ,3.67641 ,36.07294 
86 ,17.0661 ,1.21477 ,3.64219 ,35.73716 
87 ,17.2580 ,1.21667 ,3.62850 ,35.60284 
88 ,17.4503 ,1.21865 ,3.60112 ,35.33422 
89 ,17.6423 ,1.22056 ,3.59428 ,35.26706 
90 ,17.8341 ,1.22238 ,3.57032 ,35.03201 
91 ,18.0267 ,1.22433 ,3.57717 ,35.09917 
92 ,18.2345 ,1.22645 ,3.54637 ,34.79696 
93 ,18.4269 ,1.22837 ,3.53610 ,34.69623 
94 ,18.6347 ,1.23045 ,3.50530 ,34.39402 
95 ,18.8270 ,1.23236 ,3.50188 ,34.36045 
96 ,19.0190 ,1.23424 ,3.48819 ,34.22613 
97 ,19.2270 ,1.23631 ,3.47450 ,34.09182 
98 ,19.4193 ,1.23832 ,3.44713 ,33.82319 
99 ,19.6274 ,1.24041 ,3.42659 ,33.62172 
100 ,19.8194 ,1.24223 ,3.42317 ,33.58814 
101 ,20.0111 ,1.24426 ,3.39237 ,33.28594 
102 ,20.2037 ,1.24618 ,3.38210 ,33.18520 
103 ,20.3958 ,1.24808 ,3.35473 ,32.91658 
104 ,20.5878 ,1.24999 ,3.34104 ,32.78227 
105 ,20.7800 ,1.25189 ,3.34788 ,32.84942 
106 ,20.9721 ,1.25386 ,3.31708 ,32.54722 
107 ,21.1640 ,1.25574 ,3.30682 ,32.44648 
108 ,21.3721 ,1.25786 ,3.26575 ,32.04354 
109 ,21.5802 ,1.25988 ,3.26917 ,32.07712 
110 ,21.7723 ,1.26188 ,3.23837 ,31.77492 
111 ,21.9644 ,1.26374 ,3.25206 ,31.90923 
112 ,22.1560 ,1.26573 ,3.21100 ,31.50629 
113 ,22.3488 ,1.26758 ,3.19388 ,31.33840 
114 ,22.5405 ,1.26953 ,3.20073 ,31.40555 
115 ,22.7646 ,1.27163 ,3.16651 ,31.06977 
116 ,22.9569 ,1.27366 ,3.14940 ,30.90188 
117 ,23.1489 ,1.27559 ,3.13913 ,30.80115 
118 ,23.3570 ,1.27768 ,3.11860 ,30.59968 
119 ,23.5651 ,1.27975 ,3.11175 ,30.53252 
120 ,23.7572 ,1.28167 ,3.09122 ,30.33105 
121 ,23.9653 ,1.28377 ,3.07411 ,30.16316 
122 ,24.1569 ,1.28564 ,3.03647 ,29.79380 
123 ,24.3490 ,1.28756 ,3.01251 ,29.55875 
124 ,24.5249 ,1.28949 ,3.02278 ,29.65948 
125 ,24.7172 ,1.29125 ,3.00909 ,29.52517 
126 ,24.9093 ,1.29316 ,2.97829 ,29.22297 
127 ,25.1014 ,1.29507 ,2.98171 ,29.25654 
128 ,25.2774 ,1.29695 ,2.94064 ,28.85360 
129 ,25.4695 ,1.29884 ,2.93380 ,28.78645 
130 ,25.6619 ,1.30074 ,2.94749 ,28.92076 
131 ,25.9181 ,1.30313 ,2.90985 ,28.55140 
132 ,26.0940 ,1.30514 ,2.87905 ,28.24919 
133 ,26.2862 ,1.30696 ,2.87905 ,28.24919 
134 ,26.4783 ,1.30886 ,2.86878 ,28.14846 
135 ,26.6864 ,1.31097 ,2.84482 ,27.91341 
136 ,26.8785 ,1.31289 ,2.83456 ,27.81268 
137 ,27.1024 ,1.31504 ,2.80718 ,27.54405 
138 ,27.2947 ,1.31697 ,2.77980 ,27.27542 
139 ,27.5028 ,1.31907 ,2.78665 ,27.34258 
140 ,27.6944 ,1.32104 ,2.75585 ,27.04038 
141 ,27.8870 ,1.32297 ,2.75243 ,27.00680 
142 ,28.0950 ,1.32508 ,2.71820 ,26.67101 
143 ,28.3031 ,1.32712 ,2.72163 ,26.70459 
144 ,28.4951 ,1.32909 ,2.69083 ,26.40239 
145 ,28.7032 ,1.33113 ,2.70109 ,26.50312 
146 ,28.8951 ,1.33311 ,2.65660 ,26.06661 
147 ,29.1193 ,1.33516 ,2.65318 ,26.03303 
148 ,29.3114 ,1.33715 ,2.63607 ,25.86514 
149 ,29.5035 ,1.33909 ,2.62581 ,25.76440 
150 ,29.6954 ,1.34101 ,2.60869 ,25.59651 
151 ,29.9037 ,1.34311 ,2.59843 ,25.49577 
152 ,30.1117 ,1.34518 ,2.57105 ,25.22715 
153 ,30.3038 ,1.34706 ,2.56763 ,25.19357 
154 ,30.4958 ,1.34900 ,2.52998 ,24.82421 
155 ,30.6880 ,1.35092 ,2.54025 ,24.92494 
156 ,30.8957 ,1.35303 ,2.51630 ,24.68989 
157 ,31.0880 ,1.35502 ,2.48892 ,24.42127 
158 ,31.2960 ,1.35698 ,2.47523 ,24.28696 
159 ,31.4882 ,1.35891 ,2.47865 ,24.32053 
160 ,31.6965 ,1.36091 ,2.46154 ,24.15264 
161 ,31.9046 ,1.36306 ,2.43759 ,23.91759 
162 ,32.0966 ,1.36500 ,2.39994 ,23.54823 
163 ,32.2887 ,1.36695 ,2.41021 ,23.64897 
164 ,32.4967 ,1.36899 ,2.37941 ,23.34676 
165 ,32.6888 ,1.37095 ,2.38625 ,23.41392 
166 ,32.9128 ,1.37309 ,2.35888 ,23.14529 
167 ,33.1204 ,1.37526 ,2.35203 ,23.07814 
168 ,33.3128 ,1.37720 ,2.31097 ,22.67520 
169 ,33.5051 ,1.37911 ,2.32465 ,22.80951 
170 ,33.6973 ,1.38102 ,2.28359 ,22.40657 
171 ,33.9213 ,1.38319 ,2.28701 ,22.44015 
172 ,34.1132 ,1.38516 ,2.25621 ,22.13794 
173 ,34.3054 ,1.38710 ,2.25963 ,22.17152 
174 ,34.4975 ,1.38902 ,2.23568 ,21.93647 
175 ,34.6896 ,1.39095 ,2.22199 ,21.80216 
176 ,34.8815 ,1.39288 ,2.22199 ,21.80216 
177 ,35.0732 ,1.39475 ,2.18092 ,21.39922 
178 ,35.2815 ,1.39685 ,2.18777 ,21.46638 
179 ,35.4899 ,1.39886 ,2.16039 ,21.19775 
180 ,35.6981 ,1.40100 ,2.13644 ,20.96270 
181 ,35.8900 ,1.40297 ,2.13986 ,20.99628 
182 ,36.0820 ,1.40484 ,2.12275 ,20.82839 
183 ,36.2741 ,1.40680 ,2.09537 ,20.55976 
184 ,36.4821 ,1.40886 ,2.10906 ,20.69408 
185 ,36.6900 ,1.41091 ,2.07141 ,20.32472 
186 ,36.8825 ,1.41288 ,2.05430 ,20.15682 
187 ,37.0744 ,1.41485 ,2.04404 ,20.05609 
188 ,37.2666 ,1.41672 ,2.02350 ,19.85462 
189 ,37.4582 ,1.41860 ,2.00639 ,19.68673 
190 ,37.6508 ,1.42055 ,2.00639 ,19.68673 
191 ,37.8589 ,1.42260 ,1.98928 ,19.51884 
192 ,38.0508 ,1.42453 ,1.97217 ,19.35094 
193 ,38.2586 ,1.42673 ,1.94479 ,19.08232 
194 ,38.4510 ,1.42851 ,1.94479 ,19.08232 
195 ,38.6428 ,1.43059 ,1.91057 ,18.74654 
196 ,38.8351 ,1.43238 ,1.91057 ,18.74654 
197 ,39.0271 ,1.43432 ,1.90031 ,18.64580 
198 ,39.2195 ,1.43622 ,1.88662 ,18.51149 
199 ,39.4275 ,1.43820 ,1.87635 ,18.41075 
200 ,39.6351 ,1.44037 ,1.84213 ,18.07497 
201 ,39.8276 ,1.44232 ,1.84555 ,18.10855 
202 ,40.0355 ,1.44439 ,1.81817 ,17.83992 
203 ,40.2279 ,1.44632 ,1.82160 ,17.87350 
204 ,40.4357 ,1.44836 ,1.79764 ,17.63845 
205 ,40.6280 ,1.45030 ,1.79080 ,17.57129 
206 ,40.8200 ,1.45218 ,1.75657 ,17.23551 
207 ,41.0120 ,1.45409 ,1.75315 ,17.20193 
208 ,41.2043 ,1.45604 ,1.74289 ,17.10120 
209 ,41.3963 ,1.45796 ,1.70866 ,16.76542 
210 ,41.5883 ,1.45992 ,1.71893 ,16.86615 
211 ,41.7802 ,1.46180 ,1.69840 ,16.66468 
212 ,41.9884 ,1.46388 ,1.68471 ,16.53037 
213 ,42.1966 ,1.46597 ,1.64707 ,16.16101 
214 ,42.3886 ,1.46789 ,1.65733 ,16.26174 
215 ,42.6127 ,1.47002 ,1.62653 ,15.95954 
216 ,42.8049 ,1.47207 ,1.61969 ,15.89238 
217 ,42.9969 ,1.47394 ,1.61627 ,15.85880 
218 ,43.1890 ,1.47592 ,1.60600 ,15.75807 
219 ,43.3811 ,1.47783 ,1.57520 ,15.45586 
220 ,43.6052 ,1.48003 ,1.57178 ,15.42228 
221 ,43.7974 ,1.48201 ,1.54440 ,15.15366 
222 ,43.9890 ,1.48392 ,1.53756 ,15.08650 
223 ,44.1815 ,1.48580 ,1.53071 ,15.01934 
224 ,44.3894 ,1.48792 ,1.50676 ,14.78430 
225 ,44.5817 ,1.48983 ,1.50333 ,14.75072 
226 ,44.7735 ,1.49171 ,1.48280 ,14.54925 
227 ,44.9658 ,1.49370 ,1.47938 ,14.51567 
228 ,45.1737 ,1.49577 ,1.45542 ,14.28062 
229 ,45.3820 ,1.49783 ,1.44858 ,14.21346 
230 ,45.5740 ,1.49980 ,1.42120 ,13.94484 
231 ,45.7661 ,1.50169 ,1.42462 ,13.97842 
232 ,45.9741 ,1.50373 ,1.39383 ,13.67621 
233 ,46.1659 ,1.50564 ,1.38356 ,13.57548 
234 ,46.3584 ,1.50759 ,1.36303 ,13.37401 
235 ,46.5664 ,1.50966 ,1.36645 ,13.40759 
236 ,46.7584 ,1.51156 ,1.34591 ,13.20612 
237 ,46.9503 ,1.51344 ,1.34591 ,13.20612 
238 ,47.1425 ,1.51544 ,1.33907 ,13.13896 
239 ,47.3505 ,1.51745 ,1.30485 ,12.80318 
240 ,47.5427 ,1.51943 ,1.29116 ,12.66886 
241 ,47.7507 ,1.52143 ,1.26720 ,12.43381 
242 ,47.9430 ,1.52345 ,1.25009 ,12.26592 
243 ,48.1190 ,1.52527 ,1.24325 ,12.19877 
244 ,48.2947 ,1.52704 ,1.22956 ,12.06445 
245 ,48.4868 ,1.52886 ,1.23983 ,12.16519 
246 ,48.6953 ,1.53096 ,1.19534 ,11.72867 
247 ,48.8873 ,1.53287 ,1.20561 ,11.82941 
248 ,49.0955 ,1.53489 ,1.16796 ,11.46004 
249 ,49.2871 ,1.53685 ,1.18165 ,11.59436 
250 ,49.4792 ,1.53879 ,1.14058 ,11.19142 
251 ,49.6715 ,1.54072 ,1.12347 ,11.02353 
252 ,49.8798 ,1.54279 ,1.13374 ,11.12426 
253 ,50.0714 ,1.54472 ,1.12347 ,11.02353 
254 ,50.2798 ,1.54682 ,1.09610 ,10.75490 
255 ,50.4881 ,1.54883 ,1.10636 ,10.85563 
256 ,50.6962 ,1.55091 ,1.06872 ,10.48627 
257 ,50.8880 ,1.55292 ,1.05845 ,10.38554 
258 ,51.0803 ,1.55482 ,1.04476 ,10.25123 
259 ,51.2880 ,1.55679 ,1.03792 ,10.18407 
260 ,51.4804 ,1.55878 ,1.00370 ,9.84829 
261 ,51.6560 ,1.56063 ,1.01396 ,9.94902 
262 ,51.8491 ,1.56249 ,1.00370 ,9.84829 
263 ,52.0565 ,1.56454 ,0.96948 ,9.51250 
264 ,52.2487 ,1.56646 ,0.98659 ,9.68039 
265 ,52.4406 ,1.56839 ,0.95921 ,9.41177 
266 ,52.6329 ,1.57027 ,0.94894 ,9.31103 
267 ,52.8247 ,1.57222 ,0.94552 ,9.27745 
268 ,53.0170 ,1.57415 ,0.90103 ,8.84094 
269 ,53.2091 ,1.57607 ,0.91472 ,8.97525 
270 ,53.4011 ,1.57801 ,0.89077 ,8.74020 
271 ,53.5932 ,1.57986 ,0.89419 ,8.77378 
272 ,53.7850 ,1.58180 ,0.87708 ,8.60589 
273 ,53.9934 ,1.58390 ,0.86681 ,8.50515 
274 ,54.2015 ,1.58598 ,0.84628 ,8.30368 
275 ,54.4093 ,1.58808 ,0.83943 ,8.23653 
276 ,54.6017 ,1.58993 ,0.80179 ,7.86717 
277 ,54.7936 ,1.59191 ,0.80179 ,7.86717 
278 ,54.9857 ,1.59381 ,0.81548 ,8.00148 
279 ,55.1778 ,1.59575 ,0.77099 ,7.56496 
280 ,55.3699 ,1.59758 ,0.77441 ,7.59854 
281 ,55.5778 ,1.59980 ,0.75046 ,7.36349 
282 ,55.7861 ,1.60182 ,0.76072 ,7.46423 
283 ,55.9777 ,1.60373 ,0.73677 ,7.22918 
284 ,56.1700 ,1.60569 ,0.72650 ,7.12844 
285 ,56.3623 ,1.60761 ,0.69913 ,6.85982 
286 ,56.5704 ,1.60961 ,0.69913 ,6.85982 
287 ,56.7624 ,1.61159 ,0.67175 ,6.59119 
288 ,56.9703 ,1.61366 ,0.66833 ,6.55761 
289 ,57.1627 ,1.61555 ,0.66148 ,6.49046 
290 ,57.3707 ,1.61770 ,0.65464 ,6.42330 
291 ,57.5628 ,1.61962 ,0.62384 ,6.12109 
292 ,57.7550 ,1.62152 ,0.62726 ,6.15467 
293 ,57.9631 ,1.62348 ,0.61357 ,6.02036 
294 ,58.1707 ,1.62564 ,0.59988 ,5.88605 
295 ,58.3631 ,1.62758 ,0.58277 ,5.71815 
296 ,58.5552 ,1.62950 ,0.57251 ,5.61742 
297 ,58.7473 ,1.63140 ,0.56566 ,5.55026 
298 ,58.9393 ,1.63331 ,0.52459 ,5.14732 
299 ,59.1475 ,1.63533 ,0.55539 ,5.44953 
300 ,59.3396 ,1.63735 ,0.51775 ,5.08017 
301 ,59.5315 ,1.63923 ,0.52117 ,5.11375 
302 ,59.7238 ,1.64119 ,0.50064 ,4.91228 
303 ,59.9159 ,1.64313 ,0.47668 ,4.67723 
304 ,60.1239 ,1.64516 ,0.46300 ,4.54291 
305 ,60.3157 ,1.64715 ,0.46642 ,4.57649 
306 ,60.5082 ,1.64905 ,0.46642 ,4.57649 
307 ,60.7161 ,1.65109 ,0.44246 ,4.34144 
308 ,60.9243 ,1.65309 ,0.43562 ,4.27429 
309 ,61.1158 ,1.65511 ,0.41509 ,4.07282 
310 ,61.3079 ,1.65701 ,0.40824 ,4.00566 
311 ,61.4999 ,1.65896 ,0.38771 ,3.80419 
312 ,61.7086 ,1.66090 ,0.39113 ,3.83777 
313 ,61.9167 ,1.66314 ,0.39113 ,3.83777 
314 ,62.1083 ,1.66508 ,0.39797 ,3.90493 
315 ,62.3009 ,1.66695 ,0.38086 ,3.73703 
316 ,62.5085 ,1.66905 ,0.37060 ,3.63630 
317 ,62.7010 ,1.67099 ,0.35691 ,3.50199 
318 ,62.9090 ,1.67304 ,0.35349 ,3.46841 
319 ,63.1012 ,1.67497 ,0.32611 ,3.19978 
320 ,63.2930 ,1.67686 ,0.33295 ,3.26694 
321 ,63.4853 ,1.67880 ,0.31926 ,3.13263 
322 ,63.6769 ,1.68072 ,0.29873 ,2.93116 
323 ,63.8695 ,1.68259 ,0.29531 ,2.89758 
324 ,64.0772 ,1.68472 ,0.29531 ,2.89758 
325 ,64.2697 ,1.68658 ,0.26451 ,2.59537 
326 ,64.4775 ,1.68872 ,0.25767 ,2.52822 
327 ,64.6698 ,1.69062 ,0.24740 ,2.42748 
328 ,64.8780 ,1.69273 ,0.22344 ,2.19243 
329 ,65.1018 ,1.69492 ,0.21318 ,2.09170 
330 ,65.2940 ,1.69684 ,0.21660 ,2.12528 
331 ,65.4858 ,1.69880 ,0.19607 ,1.92381 
332 ,65.6778 ,1.70072 ,0.18238 ,1.78949 
333 ,65.8698 ,1.70260 ,0.18580 ,1.82307 
334 ,66.0459 ,1.70450 ,0.15500 ,1.52087 
335 ,66.2380 ,1.70633 ,0.14473 ,1.42013 
336 ,66.4300 ,1.70821 ,0.15158 ,1.48729 
337 ,66.6221 ,1.71014 ,0.12762 ,1.25224 
338 ,66.8147 ,1.71210 ,0.12762 ,1.25224 
339 ,67.0066 ,1.71398 ,0.11736 ,1.15151 
340 ,67.1988 ,1.71588 ,0.09682 ,0.95004 
341 ,67.3748 ,1.71777 ,0.08656 ,0.84930 
342 ,67.5668 ,1.71961 ,0.08656 ,0.84930 
343 ,67.7590 ,1.72150 ,0.05576 ,0.54710 
344 ,67.9510 ,1.72346 ,0.06945 ,0.68141 
345 ,68.1432 ,1.72540 ,0.04207 ,0.41278 
346 ,68.3518 ,1.72735 ,0.04549 ,0.44636 
347 ,68.5592 ,1.72952 ,0.02496 ,0.24489 
348 ,68.7511 ,1.73146 ,0.02496 ,0.24489 
349 ,68.9437 ,1.73335 ,-0.00926 ,-0.09089 
350 ,69.1351 ,1.73541 ,-0.00242 ,-0.02373 
351 ,69.3273 ,1.73720 ,-0.03322 ,-0.32594 
352 ,69.5197 ,1.73908 ,-0.02980 ,-0.29236 
353 ,69.7118 ,1.74107 ,-0.04348 ,-0.42667 
354 ,69.9041 ,1.74293 ,-0.05033 ,-0.49383 
355 ,70.0959 ,1.74487 ,-0.06744 ,-0.66172 
356 ,70.2879 ,1.74675 ,-0.07771 ,-0.76246 
357 ,70.4959 ,1.74886 ,-0.07086 ,-0.69530 
358 ,70.6882 ,1.75083 ,-0.10166 ,-0.99751 
359 ,70.8802 ,1.75267 ,-0.11193 ,-1.09824 
360 ,71.0560 ,1.75456 ,-0.10508 ,-1.03108 
361 ,71.2481 ,1.75635 ,-0.13246 ,-1.29971 
362 ,71.4403 ,1.75828 ,-0.13931 ,-1.36687 
363 ,71.6485 ,1.76039 ,-0.13246 ,-1.29971 
364 ,71.8406 ,1.76227 ,-0.15642 ,-1.53476 
365 ,72.0328 ,1.76418 ,-0.16668 ,-1.63549 
366 ,72.2407 ,1.76630 ,-0.19406 ,-1.90412 
367 ,72.4325 ,1.76820 ,-0.18722 ,-1.83696 
368 ,72.6251 ,1.77017 ,-0.20775 ,-2.03843 
369 ,72.8330 ,1.77226 ,-0.19748 ,-1.93770 
370 ,73.0252 ,1.77414 ,-0.23513 ,-2.30706 
371 ,73.2173 ,1.77603 ,-0.22828 ,-2.23990 
372 ,73.4094 ,1.77797 ,-0.25908 ,-2.54211 
373 ,73.6174 ,1.78005 ,-0.25566 ,-2.50853 
374 ,73.8257 ,1.78215 ,-0.27277 ,-2.67642 
375 ,74.0177 ,1.78405 ,-0.28646 ,-2.81073 
376 ,74.2098 ,1.78605 ,-0.27619 ,-2.71000 
377 ,74.4018 ,1.78793 ,-0.30699 ,-3.01220 
378 ,74.5935 ,1.78981 ,-0.30699 ,-3.01220 
379 ,74.7861 ,1.79179 ,-0.33437 ,-3.28083 
380 ,74.9941 ,1.79383 ,-0.32752 ,-3.21367 
381 ,75.1857 ,1.79571 ,-0.35490 ,-3.48230 
382 ,75.3779 ,1.79766 ,-0.35148 ,-3.44872 
383 ,75.5699 ,1.79957 ,-0.35832 ,-3.51588 
384 ,75.7621 ,1.80148 ,-0.36517 ,-3.58303 
385 ,75.9545 ,1.80351 ,-0.36517 ,-3.58303 
386 ,76.1626 ,1.80547 ,-0.38912 ,-3.81808 
387 ,76.3548 ,1.80746 ,-0.39597 ,-3.88524 
388 ,76.5468 ,1.80938 ,-0.40966 ,-4.01955 
389 ,76.7388 ,1.81129 ,-0.41308 ,-4.05313 
390 ,76.9468 ,1.81335 ,-0.43361 ,-4.25460 
391 ,77.1705 ,1.81546 ,-0.42335 ,-4.15387 
392 ,77.3790 ,1.81766 ,-0.46099 ,-4.52323 
393 ,77.5710 ,1.81957 ,-0.46441 ,-4.55681 
394 ,77.7631 ,1.82145 ,-0.47810 ,-4.69112 
395 ,77.9389 ,1.82339 ,-0.47468 ,-4.65754 
396 ,78.1313 ,1.82517 ,-0.49179 ,-4.82543 
397 ,78.3234 ,1.82713 ,-0.50548 ,-4.95975 
398 ,78.5315 ,1.82919 ,-0.50548 ,-4.95975 
399 ,78.7393 ,1.83123 ,-0.52601 ,-5.16121 
400 ,78.9313 ,1.83320 ,-0.52259 ,-5.12764 
401 ,79.1236 ,1.83509 ,-0.53970 ,-5.29553 
402 ,79.3318 ,1.83713 ,-0.54997 ,-5.39626 
403 ,79.5237 ,1.83911 ,-0.57050 ,-5.59773 
404 ,79.7159 ,1.84107 ,-0.57392 ,-5.63131 
405 ,79.9079 ,1.84292 ,-0.56708 ,-5.56415 
406 ,80.1156 ,1.84506 ,-0.58419 ,-5.73205 
407 ,80.3242 ,1.84699 ,-0.59445 ,-5.83278 
408 ,80.5163 ,1.84904 ,-0.61156 ,-6.00067 
409 ,80.7242 ,1.85110 ,-0.63894 ,-6.26930 
410 ,80.9164 ,1.85301 ,-0.62525 ,-6.13499 
411 ,81.1085 ,1.85493 ,-0.64579 ,-6.33646 
412 ,81.3004 ,1.85690 ,-0.66290 ,-6.50435 
413 ,81.5246 ,1.85901 ,-0.66632 ,-6.53793 
414 ,81.7168 ,1.86107 ,-0.66974 ,-6.57150 
415 ,81.9249 ,1.86314 ,-0.69027 ,-6.77297 
416 ,82.1169 ,1.86500 ,-0.68343 ,-6.70582 
417 ,82.3249 ,1.86709 ,-0.70054 ,-6.87371 
418 ,82.5171 ,1.86902 ,-0.71423 ,-7.00802 
419 ,82.7252 ,1.87111 ,-0.73476 ,-7.20949 
420 ,82.9171 ,1.87305 ,-0.73134 ,-7.17591 
421 ,83.1089 ,1.87493 ,-0.74161 ,-7.27665 
422 ,83.3011 ,1.87684 ,-0.75872 ,-7.44454 
423 ,83.4936 ,1.87885 ,-0.75187 ,-7.37738 
424 ,83.7012 ,1.88084 ,-0.77925 ,-7.64601 
425 ,83.8937 ,1.88283 ,-0.76556 ,-7.51170 
426 ,84.0857 ,1.88472 ,-0.78952 ,-7.74674 
427 ,84.2778 ,1.88666 ,-0.79978 ,-7.84748 
428 ,84.4534 ,1.88854 ,-0.79294 ,-7.78032 
429 ,84.6619 ,1.89039 ,-0.80663 ,-7.91464 
430 ,84.8700 ,1.89253 ,-0.80663 ,-7.91464 
431 ,85.0621 ,1.89444 ,-0.85112 ,-8.35115 
432 ,85.2701 ,1.89653 ,-0.83743 ,-8.21684 
433 ,85.4783 ,1.89867 ,-0.85454 ,-8.38473 
434 ,85.6701 ,1.90057 ,-0.84427 ,-8.28400 
435 ,85.8784 ,1.90259 ,-0.86823 ,-8.51904 
436 ,86.0703 ,1.90450 ,-0.87507 ,-8.58620 
437 ,86.3105 ,1.90696 ,-0.88534 ,-8.68694 
438 ,86.5187 ,1.90902 ,-0.90587 ,-8.88841 
439 ,86.7107 ,1.91090 ,-0.90245 ,-8.85483 
440 ,86.9028 ,1.91291 ,-0.92298 ,-9.05630 
441 ,87.0949 ,1.91485 ,-0.92640 ,-9.08988 
442 ,87.2871 ,1.91676 ,-0.92983 ,-9.12345 
443 ,87.4791 ,1.91864 ,-0.96063 ,-9.42566 
444 ,87.6711 ,1.92055 ,-0.95036 ,-9.32492 
445 ,87.8792 ,1.92263 ,-0.97431 ,-9.55997 
446 ,88.1032 ,1.92478 ,-0.97774 ,-9.59355 
447 ,88.3114 ,1.92690 ,-0.98800 ,-9.69429 
448 ,88.5035 ,1.92884 ,-0.99827 ,-9.79502 
449 ,88.7115 ,1.93096 ,-0.98116 ,-9.62713 
450 ,88.9036 ,1.93288 ,-1.00854 ,-9.89576 
451 ,89.0957 ,1.93476 ,-0.99485 ,-9.76144 
452 ,89.3039 ,1.93689 ,-1.00511 ,-9.86218 
453 ,89.4957 ,1.93880 ,-1.00854 ,-9.89576 
454 ,89.7040 ,1.94090 ,-1.00169 ,-9.82860 
455 ,89.8959 ,1.94283 ,-1.02222 ,-10.03007 
456 ,90.1042 ,1.94480 ,-0.99485 ,-9.76144 
457 ,90.3121 ,1.94700 ,-0.99485 ,-9.76144 
458 ,90.5043 ,1.94881 ,-1.00169 ,-9.82860 
459 ,90.6963 ,1.95081 ,-0.98800 ,-9.69429 
460 ,90.8886 ,1.95278 ,-0.98800 ,-9.69429 
461 ,91.0803 ,1.95464 ,-1.00854 ,-9.89576 
462 ,91.2727 ,1.95649 ,-0.98800 ,-9.69429 
