Data stamp = , 29-04-2022 13:23:30 760

Calibration Values: 
Slope = , 26.54 , g/V 
Offset Voltage at no contact = , -0.501760 , V 

No , Time , Stage Position ,   Mass , Force 
   ,  (s) ,      (mm)      ,   (g)  , (mN)  

1 ,0.0000 ,1.04953 ,5.07950 ,49.84004 
2 ,0.2058 ,1.04960 ,5.07608 ,49.80646 
3 ,0.8783 ,1.05215 ,5.07265 ,49.77289 
4 ,1.0866 ,1.05508 ,5.07608 ,49.80646 
5 ,1.2787 ,1.05702 ,5.05897 ,49.63857 
6 ,1.4705 ,1.05889 ,5.06581 ,49.70573 
7 ,1.6628 ,1.06087 ,5.03501 ,49.40352 
8 ,1.8709 ,1.06292 ,5.03159 ,49.36995 
9 ,2.0629 ,1.06495 ,4.99394 ,49.00058 
10 ,2.2710 ,1.06699 ,4.98710 ,48.93343 
11 ,2.4792 ,1.06904 ,4.94261 ,48.49691 
12 ,2.6872 ,1.07116 ,4.94261 ,48.49691 
13 ,2.8797 ,1.07310 ,4.91523 ,48.22828 
14 ,3.0872 ,1.07514 ,4.90497 ,48.12755 
15 ,3.2792 ,1.07705 ,4.87759 ,47.85892 
16 ,3.4713 ,1.07906 ,4.87417 ,47.82534 
17 ,3.6631 ,1.08092 ,4.83652 ,47.45598 
18 ,3.8556 ,1.08279 ,4.80573 ,47.15378 
19 ,4.0637 ,1.08495 ,4.79888 ,47.08662 
20 ,4.2396 ,1.08678 ,4.78519 ,46.95231 
21 ,4.4318 ,1.08858 ,4.78519 ,46.95231 
22 ,4.6238 ,1.09047 ,4.75097 ,46.61653 
23 ,4.7996 ,1.09235 ,4.73728 ,46.48221 
24 ,4.9922 ,1.09419 ,4.72702 ,46.38148 
25 ,5.1998 ,1.09627 ,4.69279 ,46.04569 
26 ,5.3921 ,1.09814 ,4.68937 ,46.01212 
27 ,5.5842 ,1.10006 ,4.66884 ,45.81065 
28 ,5.7764 ,1.10197 ,4.65857 ,45.70991 
29 ,5.9845 ,1.10407 ,4.64146 ,45.54202 
30 ,6.1764 ,1.10596 ,4.61066 ,45.23981 
31 ,6.3686 ,1.10796 ,4.60382 ,45.17266 
32 ,6.5927 ,1.11016 ,4.57986 ,44.93761 
33 ,6.7845 ,1.11212 ,4.55933 ,44.73614 
34 ,6.9767 ,1.11398 ,4.53880 ,44.53467 
35 ,7.1691 ,1.11599 ,4.54564 ,44.60183 
36 ,7.3771 ,1.11803 ,4.49773 ,44.13173 
37 ,7.5852 ,1.12009 ,4.48062 ,43.96384 
38 ,7.7773 ,1.12208 ,4.44640 ,43.62806 
39 ,7.9693 ,1.12395 ,4.45324 ,43.69521 
40 ,8.1614 ,1.12586 ,4.43271 ,43.49374 
41 ,8.3535 ,1.12780 ,4.41560 ,43.32585 
42 ,8.5456 ,1.12969 ,4.39849 ,43.15796 
43 ,8.7377 ,1.13162 ,4.36084 ,42.78860 
44 ,8.9298 ,1.13353 ,4.37111 ,42.88933 
45 ,9.1377 ,1.13558 ,4.33689 ,42.55355 
46 ,9.3299 ,1.13756 ,4.31978 ,42.38566 
47 ,9.5540 ,1.13969 ,4.29582 ,42.15061 
48 ,9.7460 ,1.14166 ,4.28556 ,42.04988 
49 ,9.9540 ,1.14377 ,4.26845 ,41.88198 
50 ,10.1460 ,1.14565 ,4.26502 ,41.84841 
51 ,10.3543 ,1.14775 ,4.23422 ,41.54620 
52 ,10.5624 ,1.14973 ,4.22396 ,41.44547 
53 ,10.7545 ,1.15179 ,4.18974 ,41.10968 
54 ,10.9623 ,1.15387 ,4.17605 ,40.97537 
55 ,11.1545 ,1.15577 ,4.15894 ,40.80748 
56 ,11.3302 ,1.15766 ,4.15209 ,40.74032 
57 ,11.5226 ,1.15947 ,4.14525 ,40.67317 
58 ,11.7308 ,1.16151 ,4.12471 ,40.47170 
59 ,11.9228 ,1.16348 ,4.08707 ,40.10233 
60 ,12.1309 ,1.16553 ,4.09049 ,40.13591 
61 ,12.3230 ,1.16752 ,4.06996 ,39.93444 
62 ,12.5149 ,1.16953 ,4.04943 ,39.73297 
63 ,12.7072 ,1.17128 ,4.03574 ,39.59866 
64 ,12.9152 ,1.17329 ,4.00152 ,39.26288 
65 ,13.1072 ,1.17531 ,4.00836 ,39.33003 
66 ,13.2995 ,1.17731 ,3.97072 ,38.96067 
67 ,13.4914 ,1.17910 ,3.96045 ,38.85994 
68 ,13.6838 ,1.18110 ,3.93992 ,38.65847 
69 ,13.8916 ,1.18316 ,3.92965 ,38.55773 
70 ,14.0837 ,1.18510 ,3.91596 ,38.42342 
71 ,14.2757 ,1.18696 ,3.87490 ,38.02048 
72 ,14.4680 ,1.18890 ,3.89201 ,38.18837 
73 ,14.6596 ,1.19082 ,3.85094 ,37.78543 
74 ,14.8521 ,1.19276 ,3.83383 ,37.61754 
75 ,15.0763 ,1.19492 ,3.82014 ,37.48323 
76 ,15.2684 ,1.19693 ,3.81330 ,37.41607 
77 ,15.4761 ,1.19900 ,3.76539 ,36.94597 
78 ,15.6685 ,1.20094 ,3.78934 ,37.18102 
79 ,15.8606 ,1.20285 ,3.75854 ,36.87882 
80 ,16.0686 ,1.20496 ,3.75170 ,36.81166 
81 ,16.2607 ,1.20681 ,3.70721 ,36.37514 
82 ,16.4528 ,1.20877 ,3.69694 ,36.27441 
83 ,16.6449 ,1.21065 ,3.70721 ,36.37514 
84 ,16.8525 ,1.21274 ,3.66957 ,36.00578 
85 ,17.0450 ,1.21464 ,3.65588 ,35.87147 
86 ,17.2527 ,1.21671 ,3.62850 ,35.60284 
87 ,17.4451 ,1.21862 ,3.61139 ,35.43495 
88 ,17.6531 ,1.22073 ,3.58401 ,35.16632 
89 ,17.8453 ,1.22264 ,3.59086 ,35.23348 
90 ,18.0695 ,1.22481 ,3.55321 ,34.86412 
91 ,18.2615 ,1.22694 ,3.53952 ,34.72981 
92 ,18.4530 ,1.22872 ,3.52584 ,34.59549 
93 ,18.6617 ,1.23080 ,3.52584 ,34.59549 
94 ,18.8698 ,1.23290 ,3.50872 ,34.42760 
95 ,19.0619 ,1.23478 ,3.48135 ,34.15898 
96 ,19.2537 ,1.23674 ,3.45055 ,33.85677 
97 ,19.4458 ,1.23863 ,3.45739 ,33.92393 
98 ,19.6380 ,1.24060 ,3.43001 ,33.65530 
99 ,19.8142 ,1.24244 ,3.40606 ,33.42025 
100 ,20.0061 ,1.24424 ,3.41633 ,33.52099 
101 ,20.1823 ,1.24615 ,3.36499 ,33.01731 
102 ,20.3906 ,1.24800 ,3.36157 ,32.98374 
103 ,20.5985 ,1.25017 ,3.33419 ,32.71511 
104 ,20.7907 ,1.25216 ,3.33419 ,32.71511 
105 ,20.9984 ,1.25420 ,3.31024 ,32.48006 
106 ,21.2062 ,1.25625 ,3.30339 ,32.41290 
107 ,21.3988 ,1.25822 ,3.27944 ,32.17786 
108 ,21.6065 ,1.26030 ,3.27259 ,32.11070 
109 ,21.7988 ,1.26220 ,3.25206 ,31.90923 
110 ,22.0232 ,1.26439 ,3.23495 ,31.74134 
111 ,22.2311 ,1.26653 ,3.20757 ,31.47271 
112 ,22.4392 ,1.26855 ,3.19388 ,31.33840 
113 ,22.6312 ,1.27061 ,3.18704 ,31.27124 
114 ,22.8231 ,1.27246 ,3.16993 ,31.10335 
115 ,23.0155 ,1.27434 ,3.13571 ,30.76757 
116 ,23.2396 ,1.27647 ,3.14940 ,30.90188 
117 ,23.4316 ,1.27845 ,3.10833 ,30.49894 
118 ,23.6396 ,1.28058 ,3.10149 ,30.43178 
119 ,23.8317 ,1.28252 ,3.08095 ,30.23031 
120 ,24.0237 ,1.28444 ,3.08438 ,30.26389 
121 ,24.2319 ,1.28650 ,3.02620 ,29.69306 
122 ,24.4235 ,1.28842 ,3.04331 ,29.86095 
123 ,24.6160 ,1.29040 ,3.01251 ,29.55875 
124 ,24.8240 ,1.29241 ,3.01251 ,29.55875 
125 ,25.0322 ,1.29447 ,2.97487 ,29.18939 
126 ,25.2401 ,1.29660 ,2.97487 ,29.18939 
127 ,25.4322 ,1.29849 ,2.94407 ,28.88718 
128 ,25.6404 ,1.30053 ,2.92696 ,28.71929 
129 ,25.8485 ,1.30254 ,2.93038 ,28.75287 
130 ,26.0406 ,1.30464 ,2.91669 ,28.61856 
131 ,26.2327 ,1.30649 ,2.88247 ,28.28277 
132 ,26.4568 ,1.30861 ,2.87905 ,28.24919 
133 ,26.6644 ,1.31074 ,2.85851 ,28.04772 
134 ,26.8570 ,1.31273 ,2.83798 ,27.84625 
135 ,27.0651 ,1.31485 ,2.83798 ,27.84625 
136 ,27.2570 ,1.31674 ,2.80718 ,27.54405 
137 ,27.4491 ,1.31867 ,2.77638 ,27.24185 
138 ,27.6411 ,1.32053 ,2.77980 ,27.27542 
139 ,27.8331 ,1.32247 ,2.75243 ,27.00680 
140 ,28.0254 ,1.32445 ,2.76611 ,27.14111 
141 ,28.2176 ,1.32630 ,2.72847 ,26.77175 
142 ,28.4257 ,1.32839 ,2.73531 ,26.83891 
143 ,28.6335 ,1.33050 ,2.68056 ,26.30165 
144 ,28.8093 ,1.33238 ,2.68740 ,26.36881 
145 ,29.0018 ,1.33417 ,2.68398 ,26.33523 
146 ,29.1935 ,1.33611 ,2.65318 ,26.03303 
147 ,29.3857 ,1.33805 ,2.64292 ,25.93229 
148 ,29.5617 ,1.33986 ,2.62581 ,25.76440 
149 ,29.7538 ,1.34169 ,2.61554 ,25.66367 
150 ,29.9459 ,1.34369 ,2.59501 ,25.46220 
151 ,30.1385 ,1.34551 ,2.58816 ,25.39504 
152 ,30.3142 ,1.34744 ,2.55052 ,25.02568 
153 ,30.4902 ,1.34917 ,2.55052 ,25.02568 
154 ,30.6824 ,1.35096 ,2.55052 ,25.02568 
155 ,30.8905 ,1.35295 ,2.51972 ,24.72347 
156 ,31.0985 ,1.35518 ,2.51287 ,24.65632 
157 ,31.3066 ,1.35719 ,2.48550 ,24.38769 
158 ,31.4989 ,1.35910 ,2.48550 ,24.38769 
159 ,31.7068 ,1.36126 ,2.45470 ,24.08549 
160 ,31.8990 ,1.36312 ,2.45127 ,24.05191 
161 ,32.0907 ,1.36518 ,2.42048 ,23.74970 
162 ,32.2832 ,1.36695 ,2.41705 ,23.71612 
163 ,32.4914 ,1.36908 ,2.37941 ,23.34676 
164 ,32.6994 ,1.37118 ,2.39994 ,23.54823 
165 ,32.9073 ,1.37319 ,2.35203 ,23.07814 
166 ,33.0835 ,1.37510 ,2.36230 ,23.17887 
167 ,33.2756 ,1.37689 ,2.34519 ,23.01098 
168 ,33.4833 ,1.37899 ,2.33150 ,22.87667 
169 ,33.6920 ,1.38096 ,2.31097 ,22.67520 
170 ,33.8838 ,1.38309 ,2.30412 ,22.60804 
171 ,34.0758 ,1.38494 ,2.29043 ,22.47373 
172 ,34.2675 ,1.38676 ,2.24937 ,22.07079 
173 ,34.4600 ,1.38874 ,2.23910 ,21.97005 
174 ,34.6522 ,1.39070 ,2.23568 ,21.93647 
175 ,34.8442 ,1.39259 ,2.21515 ,21.73500 
176 ,35.0363 ,1.39450 ,2.20146 ,21.60069 
177 ,35.2444 ,1.39660 ,2.17408 ,21.33206 
178 ,35.4364 ,1.39848 ,2.18435 ,21.43280 
179 ,35.6286 ,1.40041 ,2.16039 ,21.19775 
180 ,35.8207 ,1.40233 ,2.15012 ,21.09702 
181 ,36.0287 ,1.40438 ,2.11248 ,20.72766 
182 ,36.2209 ,1.40634 ,2.12617 ,20.86197 
183 ,36.4125 ,1.40828 ,2.09879 ,20.59334 
184 ,36.6529 ,1.41056 ,2.09879 ,20.59334 
185 ,36.8770 ,1.41281 ,2.08168 ,20.42545 
186 ,37.0852 ,1.41491 ,2.05430 ,20.15682 
187 ,37.2933 ,1.41701 ,2.03719 ,19.98893 
188 ,37.4851 ,1.41902 ,2.02008 ,19.82104 
189 ,37.6773 ,1.42094 ,2.00982 ,19.72031 
190 ,37.8853 ,1.42295 ,1.98928 ,19.51884 
191 ,38.0773 ,1.42489 ,1.98244 ,19.45168 
192 ,38.2698 ,1.42682 ,1.95848 ,19.21663 
193 ,38.4617 ,1.42874 ,1.95506 ,19.18305 
194 ,38.6532 ,1.43069 ,1.95164 ,19.14948 
195 ,38.8459 ,1.43259 ,1.91057 ,18.74654 
196 ,39.0379 ,1.43456 ,1.91742 ,18.81369 
197 ,39.2300 ,1.43645 ,1.89346 ,18.57864 
198 ,39.4220 ,1.43836 ,1.86951 ,18.34360 
199 ,39.6141 ,1.44025 ,1.86608 ,18.31002 
200 ,39.8222 ,1.44230 ,1.84897 ,18.14213 
201 ,40.0142 ,1.44426 ,1.84897 ,18.14213 
202 ,40.2064 ,1.44620 ,1.82502 ,17.90708 
203 ,40.3985 ,1.44814 ,1.81475 ,17.80634 
204 ,40.6065 ,1.45014 ,1.78395 ,17.50414 
205 ,40.7982 ,1.45210 ,1.78053 ,17.47056 
206 ,40.9908 ,1.45406 ,1.77369 ,17.40340 
207 ,41.1988 ,1.45608 ,1.75657 ,17.23551 
208 ,41.3910 ,1.45801 ,1.73604 ,17.03404 
209 ,41.5989 ,1.46014 ,1.72578 ,16.93331 
210 ,41.7911 ,1.46206 ,1.70524 ,16.73184 
211 ,41.9828 ,1.46407 ,1.69155 ,16.59752 
212 ,42.1751 ,1.46583 ,1.69498 ,16.63110 
213 ,42.3672 ,1.46782 ,1.64707 ,16.16101 
214 ,42.5592 ,1.46968 ,1.66418 ,16.32890 
215 ,42.7513 ,1.47164 ,1.64364 ,16.12743 
216 ,42.9435 ,1.47352 ,1.62311 ,15.92596 
217 ,43.1355 ,1.47547 ,1.62653 ,15.95954 
218 ,43.3435 ,1.47751 ,1.58547 ,15.55660 
219 ,43.5355 ,1.47948 ,1.58889 ,15.59018 
220 ,43.7278 ,1.48142 ,1.56836 ,15.38871 
221 ,43.9357 ,1.48347 ,1.56493 ,15.35513 
222 ,44.1436 ,1.48557 ,1.53756 ,15.08650 
223 ,44.3360 ,1.48744 ,1.54782 ,15.18724 
224 ,44.5439 ,1.48949 ,1.52045 ,14.91861 
225 ,44.7361 ,1.49146 ,1.50333 ,14.75072 
226 ,44.9283 ,1.49344 ,1.49307 ,14.64998 
227 ,45.1202 ,1.49528 ,1.47253 ,14.44851 
228 ,45.3123 ,1.49726 ,1.47596 ,14.48209 
229 ,45.5203 ,1.49930 ,1.43831 ,14.11273 
230 ,45.7126 ,1.50120 ,1.43831 ,14.11273 
231 ,45.9046 ,1.50315 ,1.41778 ,13.91126 
232 ,46.1125 ,1.50517 ,1.41094 ,13.84410 
233 ,46.3205 ,1.50723 ,1.39725 ,13.70979 
234 ,46.5289 ,1.50936 ,1.36645 ,13.40759 
235 ,46.7210 ,1.51131 ,1.36645 ,13.40759 
236 ,46.9291 ,1.51337 ,1.34591 ,13.20612 
237 ,47.1208 ,1.51530 ,1.32880 ,13.03822 
238 ,47.3131 ,1.51721 ,1.33565 ,13.10538 
239 ,47.5052 ,1.51915 ,1.30485 ,12.80318 
240 ,47.7133 ,1.52127 ,1.30143 ,12.76960 
241 ,47.9052 ,1.52307 ,1.28432 ,12.60171 
242 ,48.1135 ,1.52516 ,1.28089 ,12.56813 
243 ,48.3053 ,1.52714 ,1.24667 ,12.23235 
244 ,48.4973 ,1.52903 ,1.24325 ,12.19877 
245 ,48.6901 ,1.53096 ,1.23641 ,12.13161 
246 ,48.8817 ,1.53293 ,1.21245 ,11.89656 
247 ,49.0738 ,1.53481 ,1.21245 ,11.89656 
248 ,49.2660 ,1.53670 ,1.16112 ,11.39289 
249 ,49.4739 ,1.53879 ,1.16796 ,11.46004 
250 ,49.6502 ,1.54072 ,1.15427 ,11.32573 
251 ,49.8422 ,1.54247 ,1.14401 ,11.22500 
252 ,50.0342 ,1.54440 ,1.14401 ,11.22500 
253 ,50.2423 ,1.54653 ,1.11321 ,10.92279 
254 ,50.4342 ,1.54839 ,1.11663 ,10.95637 
255 ,50.6421 ,1.55055 ,1.08583 ,10.65416 
256 ,50.8186 ,1.55240 ,1.09610 ,10.75490 
257 ,51.0268 ,1.55437 ,1.05503 ,10.35196 
258 ,51.2344 ,1.55639 ,1.05845 ,10.38554 
259 ,51.4108 ,1.55827 ,1.03450 ,10.15049 
260 ,51.6029 ,1.56007 ,1.01396 ,9.94902 
261 ,51.7945 ,1.56205 ,1.03108 ,10.11691 
262 ,51.9872 ,1.56400 ,1.00370 ,9.84829 
263 ,52.1946 ,1.56603 ,0.99343 ,9.74755 
264 ,52.3868 ,1.56800 ,0.96605 ,9.47892 
265 ,52.5789 ,1.56985 ,0.95579 ,9.37819 
266 ,52.7873 ,1.57186 ,0.95921 ,9.41177 
267 ,53.0114 ,1.57419 ,0.94552 ,9.27745 
268 ,53.2196 ,1.57627 ,0.91130 ,8.94167 
269 ,53.4117 ,1.57820 ,0.93183 ,9.14314 
270 ,53.6197 ,1.58024 ,0.90446 ,8.87451 
271 ,53.8118 ,1.58218 ,0.88392 ,8.67305 
272 ,54.0355 ,1.58431 ,0.87023 ,8.53873 
273 ,54.2279 ,1.58636 ,0.86681 ,8.50515 
274 ,54.4198 ,1.58827 ,0.82917 ,8.13579 
275 ,54.6282 ,1.59034 ,0.82232 ,8.06864 
276 ,54.8364 ,1.59248 ,0.81548 ,8.00148 
277 ,55.0443 ,1.59439 ,0.82575 ,8.10221 
278 ,55.2363 ,1.59645 ,0.79495 ,7.80001 
279 ,55.4442 ,1.59853 ,0.77441 ,7.59854 
280 ,55.6205 ,1.60037 ,0.77784 ,7.63212 
281 ,55.8126 ,1.60215 ,0.76072 ,7.46423 
282 ,56.0047 ,1.60416 ,0.74019 ,7.26276 
283 ,56.2123 ,1.60614 ,0.73677 ,7.22918 
284 ,56.4049 ,1.60811 ,0.71966 ,7.06129 
285 ,56.6128 ,1.61023 ,0.71966 ,7.06129 
286 ,56.8050 ,1.61216 ,0.68544 ,6.72550 
287 ,57.0129 ,1.61417 ,0.68544 ,6.72550 
288 ,57.2052 ,1.61612 ,0.66148 ,6.49046 
289 ,57.3973 ,1.61806 ,0.65121 ,6.38972 
290 ,57.6052 ,1.62007 ,0.64095 ,6.28899 
291 ,57.8134 ,1.62216 ,0.63410 ,6.22183 
292 ,58.0055 ,1.62410 ,0.61357 ,6.02036 
293 ,58.1973 ,1.62615 ,0.60673 ,5.95320 
294 ,58.3891 ,1.62793 ,0.59646 ,5.85247 
295 ,58.5817 ,1.62988 ,0.57251 ,5.61742 
296 ,58.7899 ,1.63197 ,0.57593 ,5.65100 
297 ,58.9817 ,1.63389 ,0.55197 ,5.41595 
298 ,59.1739 ,1.63577 ,0.54171 ,5.31522 
299 ,59.3820 ,1.63791 ,0.51433 ,5.04659 
300 ,59.5736 ,1.63974 ,0.53144 ,5.21448 
301 ,59.7660 ,1.64166 ,0.50406 ,4.94585 
302 ,59.9582 ,1.64363 ,0.48695 ,4.77796 
303 ,60.1503 ,1.64552 ,0.49037 ,4.81154 
304 ,60.3259 ,1.64742 ,0.46642 ,4.57649 
305 ,60.5344 ,1.64928 ,0.46300 ,4.54291 
306 ,60.7266 ,1.65129 ,0.45273 ,4.44218 
307 ,60.9183 ,1.65326 ,0.42535 ,4.17355 
308 ,61.1107 ,1.65511 ,0.43562 ,4.27429 
309 ,61.3028 ,1.65705 ,0.41166 ,4.03924 
310 ,61.4948 ,1.65900 ,0.40140 ,3.93850 
311 ,61.7026 ,1.66105 ,0.37744 ,3.70346 
312 ,61.8950 ,1.66298 ,0.38086 ,3.73703 
313 ,62.0872 ,1.66492 ,0.36718 ,3.60272 
314 ,62.2792 ,1.66686 ,0.35349 ,3.46841 
315 ,62.4713 ,1.66876 ,0.35691 ,3.50199 
316 ,62.6634 ,1.67071 ,0.33638 ,3.30052 
317 ,62.8551 ,1.67253 ,0.32269 ,3.16620 
318 ,63.0475 ,1.67450 ,0.31584 ,3.09905 
319 ,63.2395 ,1.67648 ,0.28504 ,2.79684 
320 ,63.4475 ,1.67846 ,0.28504 ,2.79684 
321 ,63.6557 ,1.68046 ,0.26793 ,2.62895 
322 ,63.8634 ,1.68253 ,0.28162 ,2.76326 
323 ,64.0556 ,1.68460 ,0.23371 ,2.29317 
324 ,64.2478 ,1.68652 ,0.24740 ,2.42748 
325 ,64.4398 ,1.68840 ,0.21318 ,2.09170 
326 ,64.6321 ,1.69040 ,0.22002 ,2.15885 
327 ,64.8400 ,1.69251 ,0.20633 ,2.02454 
328 ,65.0482 ,1.69448 ,0.19949 ,1.95738 
329 ,65.2404 ,1.69639 ,0.17896 ,1.75592 
330 ,65.4484 ,1.69849 ,0.17896 ,1.75592 
331 ,65.6403 ,1.70038 ,0.15158 ,1.48729 
332 ,65.8325 ,1.70231 ,0.14473 ,1.42013 
333 ,66.0248 ,1.70433 ,0.14473 ,1.42013 
334 ,66.2327 ,1.70630 ,0.12420 ,1.21866 
335 ,66.4408 ,1.70845 ,0.09682 ,0.95004 
336 ,66.6650 ,1.71050 ,0.10709 ,1.05077 
337 ,66.8571 ,1.71263 ,0.08314 ,0.81572 
338 ,67.0651 ,1.71470 ,0.08656 ,0.84930 
339 ,67.2572 ,1.71659 ,0.05576 ,0.54710 
340 ,67.4493 ,1.71852 ,0.05234 ,0.51352 
341 ,67.6573 ,1.72057 ,0.03522 ,0.34563 
342 ,67.8495 ,1.72255 ,0.03522 ,0.34563 
343 ,68.0574 ,1.72461 ,0.01127 ,0.11058 
344 ,68.2492 ,1.72650 ,0.01469 ,0.14416 
345 ,68.4417 ,1.72844 ,-0.00584 ,-0.05731 
346 ,68.6498 ,1.73050 ,-0.00926 ,-0.09089 
347 ,68.8419 ,1.73242 ,-0.02295 ,-0.22520 
348 ,69.0338 ,1.73435 ,-0.04348 ,-0.42667 
349 ,69.2259 ,1.73626 ,-0.04006 ,-0.39310 
350 ,69.4177 ,1.73819 ,-0.05717 ,-0.56099 
351 ,69.6102 ,1.74009 ,-0.06744 ,-0.66172 
352 ,69.8182 ,1.74223 ,-0.09140 ,-0.89677 
353 ,70.0103 ,1.74414 ,-0.07771 ,-0.76246 
354 ,70.2024 ,1.74601 ,-0.09482 ,-0.93035 
355 ,70.3948 ,1.74796 ,-0.11193 ,-1.09824 
356 ,70.6023 ,1.75004 ,-0.10851 ,-1.06466 
357 ,70.8267 ,1.75230 ,-0.11535 ,-1.13182 
358 ,71.0344 ,1.75434 ,-0.15642 ,-1.53476 
359 ,71.2269 ,1.75628 ,-0.13588 ,-1.33329 
360 ,71.4347 ,1.75832 ,-0.18379 ,-1.80338 
361 ,71.6109 ,1.76023 ,-0.16668 ,-1.63549 
362 ,71.8029 ,1.76201 ,-0.18379 ,-1.80338 
363 ,71.9953 ,1.76391 ,-0.20090 ,-1.97128 
364 ,72.2033 ,1.76606 ,-0.20090 ,-1.97128 
365 ,72.3954 ,1.76793 ,-0.23170 ,-2.27348 
366 ,72.5713 ,1.76982 ,-0.22486 ,-2.20632 
367 ,72.7633 ,1.77164 ,-0.23170 ,-2.27348 
368 ,72.9715 ,1.77370 ,-0.26250 ,-2.57569 
369 ,73.1636 ,1.77564 ,-0.24197 ,-2.37422 
370 ,73.3718 ,1.77774 ,-0.27619 ,-2.71000 
371 ,73.5798 ,1.77976 ,-0.27277 ,-2.67642 
372 ,73.7713 ,1.78173 ,-0.31041 ,-3.04578 
373 ,73.9639 ,1.78363 ,-0.28988 ,-2.84431 
374 ,74.1560 ,1.78555 ,-0.31726 ,-3.11294 
375 ,74.3477 ,1.78752 ,-0.32068 ,-3.14652 
376 ,74.5400 ,1.78934 ,-0.32068 ,-3.14652 
377 ,74.7481 ,1.79150 ,-0.33437 ,-3.28083 
378 ,74.9403 ,1.79339 ,-0.34464 ,-3.38156 
379 ,75.1645 ,1.79552 ,-0.35490 ,-3.48230 
380 ,75.3561 ,1.79775 ,-0.37544 ,-3.68377 
381 ,75.5484 ,1.79947 ,-0.37886 ,-3.71735 
382 ,75.7406 ,1.80134 ,-0.38228 ,-3.75093 
383 ,75.9484 ,1.80349 ,-0.40281 ,-3.95240 
384 ,76.1247 ,1.80530 ,-0.40281 ,-3.95240 
385 ,76.3166 ,1.80718 ,-0.41992 ,-4.12029 
386 ,76.5088 ,1.80905 ,-0.43361 ,-4.25460 
387 ,76.7169 ,1.81116 ,-0.43703 ,-4.28818 
388 ,76.9090 ,1.81308 ,-0.46441 ,-4.55681 
389 ,77.1012 ,1.81501 ,-0.44730 ,-4.38891 
390 ,77.3092 ,1.81709 ,-0.48152 ,-4.72470 
391 ,77.5171 ,1.81916 ,-0.49863 ,-4.89259 
392 ,77.7093 ,1.82107 ,-0.50206 ,-4.92617 
393 ,77.9010 ,1.82295 ,-0.49863 ,-4.89259 
394 ,78.0932 ,1.82489 ,-0.51574 ,-5.06048 
395 ,78.2855 ,1.82684 ,-0.51917 ,-5.09406 
396 ,78.4938 ,1.82893 ,-0.53628 ,-5.26195 
397 ,78.7176 ,1.83119 ,-0.54997 ,-5.39626 
398 ,78.9098 ,1.83310 ,-0.56365 ,-5.53058 
399 ,79.1016 ,1.83500 ,-0.54997 ,-5.39626 
400 ,79.2941 ,1.83697 ,-0.58419 ,-5.73205 
401 ,79.5018 ,1.83898 ,-0.57392 ,-5.63131 
402 ,79.7102 ,1.84108 ,-0.61499 ,-6.03425 
403 ,79.9023 ,1.84299 ,-0.59788 ,-5.86636 
404 ,80.0940 ,1.84496 ,-0.61841 ,-6.06783 
405 ,80.2859 ,1.84681 ,-0.62183 ,-6.10141 
406 ,80.4784 ,1.84878 ,-0.62868 ,-6.16856 
407 ,80.6704 ,1.85064 ,-0.65263 ,-6.40361 
408 ,80.8625 ,1.85254 ,-0.65263 ,-6.40361 
409 ,81.0544 ,1.85446 ,-0.65947 ,-6.47077 
410 ,81.2467 ,1.85642 ,-0.64579 ,-6.33646 
411 ,81.4388 ,1.85834 ,-0.65263 ,-6.40361 
412 ,81.6308 ,1.86023 ,-0.67316 ,-6.60508 
413 ,81.8389 ,1.86241 ,-0.65947 ,-6.47077 
414 ,82.0310 ,1.86426 ,-0.66974 ,-6.57150 
415 ,82.2392 ,1.86636 ,-0.66290 ,-6.50435 
416 ,82.4309 ,1.86825 ,-0.68001 ,-6.67224 
417 ,82.6235 ,1.87019 ,-0.66290 ,-6.50435 
418 ,82.8314 ,1.87232 ,-0.68343 ,-6.70582 
419 ,83.0235 ,1.87417 ,-0.68001 ,-6.67224 
420 ,83.2155 ,1.87611 ,-0.67316 ,-6.60508 
421 ,83.4077 ,1.87797 ,-0.66974 ,-6.57150 
422 ,83.6153 ,1.88009 ,-0.68343 ,-6.70582 
423 ,83.8078 ,1.88203 ,-0.69027 ,-6.77297 
424 ,83.9998 ,1.88393 ,-0.68001 ,-6.67224 
425 ,84.1920 ,1.88586 ,-0.69370 ,-6.80655 
426 ,84.3999 ,1.88790 ,-0.67316 ,-6.60508 
427 ,84.5921 ,1.88984 ,-0.69027 ,-6.77297 
428 ,84.7838 ,1.89178 ,-0.69027 ,-6.77297 
429 ,84.9762 ,1.89373 ,-0.70739 ,-6.94086 
430 ,85.1683 ,1.89567 ,-0.70739 ,-6.94086 
431 ,85.3760 ,1.89769 ,-0.69712 ,-6.84013 
432 ,85.5685 ,1.89960 ,-0.67659 ,-6.63866 
433 ,85.7600 ,1.90166 ,-0.67659 ,-6.63866 
434 ,85.9526 ,1.90350 ,-0.68685 ,-6.73940 
435 ,86.1926 ,1.90587 ,-0.67659 ,-6.63866 
436 ,86.3845 ,1.90777 ,-0.65263 ,-6.40361 
437 ,86.5767 ,1.90963 ,-0.65605 ,-6.43719 
438 ,86.7690 ,1.91166 ,-0.66632 ,-6.53793 
439 ,86.9608 ,1.91355 ,-0.63552 ,-6.23572 
440 ,87.1528 ,1.91545 ,-0.64236 ,-6.30288 
441 ,87.3452 ,1.91733 ,-0.62183 ,-6.10141 
442 ,87.5368 ,1.91928 ,-0.62183 ,-6.10141 
443 ,87.7294 ,1.92120 ,-0.63552 ,-6.23572 
444 ,87.9370 ,1.92333 ,-0.61499 ,-6.03425 
445 ,88.1295 ,1.92526 ,-0.63210 ,-6.20214 
446 ,88.3375 ,1.92727 ,-0.34121 ,-3.34799 
447 ,88.5297 ,1.92919 ,0.48695 ,4.77796 
448 ,88.7215 ,1.93115 ,0.60673 ,5.95320 
449 ,88.9137 ,1.93305 ,0.61357 ,6.02036 
450 ,89.1056 ,1.93496 ,0.65121 ,6.38972 
451 ,89.2976 ,1.93689 ,0.67175 ,6.59119 
452 ,89.4897 ,1.93881 ,0.66148 ,6.49046 
453 ,89.6982 ,1.94079 ,0.67517 ,6.62477 
454 ,89.9060 ,1.94301 ,0.65806 ,6.45688 
455 ,90.0983 ,1.94493 ,0.67175 ,6.59119 
456 ,90.2903 ,1.94681 ,0.65121 ,6.38972 
457 ,90.4824 ,1.94880 ,0.66833 ,6.55761 
458 ,90.7066 ,1.95098 ,0.64779 ,6.35614 
459 ,90.8987 ,1.95294 ,0.66490 ,6.52403 
460 ,91.1065 ,1.95496 ,0.64779 ,6.35614 
461 ,91.2983 ,1.95687 ,0.66490 ,6.52403 
462 ,91.4911 ,1.95884 ,0.64779 ,6.35614 
463 ,91.6830 ,1.96075 ,0.63753 ,6.25541 
