Data stamp = , 01-05-2022 12:23:42 843

Calibration Values: 
Slope = , 26.54 , g/V 
Offset Voltage at no contact = , -0.501760 , V 

No , Time , Stage Position ,   Mass , Force 
   ,  (s) ,      (mm)      ,   (g)  , (mN)  

1 ,0.0000 ,0.99950 ,5.41145 ,53.09714 
2 ,0.2091 ,0.99959 ,5.41487 ,53.13072 
3 ,0.7694 ,1.00175 ,5.39776 ,52.96282 
4 ,0.9932 ,1.00414 ,5.39776 ,52.96282 
5 ,1.1856 ,1.00609 ,5.38749 ,52.86209 
6 ,1.3779 ,1.00796 ,5.38065 ,52.79493 
7 ,1.5860 ,1.01009 ,5.36696 ,52.66062 
8 ,1.7941 ,1.01204 ,5.32932 ,52.29126 
9 ,1.9862 ,1.01414 ,5.33616 ,52.35841 
10 ,2.1938 ,1.01627 ,5.32247 ,52.22410 
11 ,2.4023 ,1.01822 ,5.28483 ,51.85474 
12 ,2.6104 ,1.02036 ,5.28825 ,51.88832 
13 ,2.8022 ,1.02230 ,5.23350 ,51.35107 
14 ,2.9947 ,1.02420 ,5.24718 ,51.48538 
15 ,3.2026 ,1.02629 ,5.20270 ,51.04886 
16 ,3.3947 ,1.02817 ,5.20270 ,51.04886 
17 ,3.6348 ,1.03038 ,5.17190 ,50.74666 
18 ,3.8428 ,1.03256 ,5.14110 ,50.44445 
19 ,4.0351 ,1.03462 ,5.13083 ,50.34372 
20 ,4.2266 ,1.03654 ,5.11030 ,50.14225 
21 ,4.4192 ,1.03848 ,5.09661 ,50.00793 
22 ,4.6270 ,1.04055 ,5.07265 ,49.77289 
23 ,4.8194 ,1.04247 ,5.05212 ,49.57142 
24 ,5.0111 ,1.04435 ,5.04528 ,49.50426 
25 ,5.2035 ,1.04628 ,5.00763 ,49.13490 
26 ,5.4112 ,1.04833 ,5.00421 ,49.10132 
27 ,5.6357 ,1.05050 ,4.98026 ,48.86627 
28 ,5.8282 ,1.05253 ,4.94603 ,48.53049 
29 ,6.0199 ,1.05451 ,4.92892 ,48.36260 
30 ,6.2279 ,1.05654 ,4.92208 ,48.29544 
31 ,6.4197 ,1.05843 ,4.89812 ,48.06039 
32 ,6.6278 ,1.06049 ,4.88786 ,47.95966 
33 ,6.8202 ,1.06246 ,4.85706 ,47.65745 
34 ,7.0122 ,1.06439 ,4.85364 ,47.62387 
35 ,7.2043 ,1.06626 ,4.81257 ,47.22093 
36 ,7.4121 ,1.06840 ,4.81257 ,47.22093 
37 ,7.6365 ,1.07057 ,4.79204 ,47.01946 
38 ,7.8446 ,1.07266 ,4.75097 ,46.61653 
39 ,8.0366 ,1.07463 ,4.74755 ,46.58295 
40 ,8.2287 ,1.07651 ,4.72017 ,46.31432 
41 ,8.4369 ,1.07849 ,4.70990 ,46.21359 
42 ,8.6445 ,1.08066 ,4.67568 ,45.87780 
43 ,8.8371 ,1.08260 ,4.66884 ,45.81065 
44 ,9.0609 ,1.08474 ,4.63804 ,45.50844 
45 ,9.2529 ,1.08677 ,4.63119 ,45.44128 
46 ,9.4772 ,1.08888 ,4.60724 ,45.20624 
47 ,9.6849 ,1.09110 ,4.58328 ,44.97119 
48 ,9.8774 ,1.09302 ,4.58328 ,44.97119 
49 ,10.0695 ,1.09497 ,4.54222 ,44.56825 
50 ,10.2612 ,1.09685 ,4.53195 ,44.46751 
51 ,10.4857 ,1.09894 ,4.51142 ,44.26604 
52 ,10.7097 ,1.10124 ,4.50457 ,44.19889 
53 ,10.9175 ,1.10341 ,4.47720 ,43.93026 
54 ,11.1099 ,1.10534 ,4.46009 ,43.76237 
55 ,11.3178 ,1.10741 ,4.45324 ,43.69521 
56 ,11.5099 ,1.10935 ,4.41218 ,43.29227 
57 ,11.7022 ,1.11126 ,4.38822 ,43.05723 
58 ,11.8939 ,1.11319 ,4.39849 ,43.15796 
59 ,12.0862 ,1.11509 ,4.35742 ,42.75502 
60 ,12.2944 ,1.11717 ,4.35742 ,42.75502 
61 ,12.4864 ,1.11910 ,4.32320 ,42.41924 
62 ,12.6785 ,1.12096 ,4.32320 ,42.41924 
63 ,12.8706 ,1.12292 ,4.29582 ,42.15061 
64 ,13.0462 ,1.12481 ,4.28213 ,42.01630 
65 ,13.2709 ,1.12692 ,4.25476 ,41.74767 
66 ,13.4788 ,1.12907 ,4.25476 ,41.74767 
67 ,13.6708 ,1.13087 ,4.23080 ,41.51262 
68 ,13.8630 ,1.13289 ,4.21027 ,41.31115 
69 ,14.0552 ,1.13478 ,4.19316 ,41.14326 
70 ,14.2630 ,1.13688 ,4.17605 ,40.97537 
71 ,14.4709 ,1.13891 ,4.14867 ,40.70674 
72 ,14.6631 ,1.14089 ,4.13840 ,40.60601 
73 ,14.8713 ,1.14296 ,4.11445 ,40.37096 
74 ,15.0631 ,1.14484 ,4.10418 ,40.27023 
75 ,15.2550 ,1.14673 ,4.09391 ,40.16949 
76 ,15.4636 ,1.14876 ,4.05627 ,39.80013 
77 ,15.6557 ,1.15077 ,4.06312 ,39.86729 
78 ,15.8478 ,1.15269 ,4.02889 ,39.53150 
79 ,16.0399 ,1.15463 ,4.02547 ,39.49793 
80 ,16.2320 ,1.15650 ,4.00152 ,39.26288 
81 ,16.4400 ,1.15861 ,3.99125 ,39.16214 
82 ,16.6481 ,1.16070 ,3.95018 ,38.75920 
83 ,16.8402 ,1.16260 ,3.95361 ,38.79278 
84 ,17.0478 ,1.16467 ,3.92623 ,38.52415 
85 ,17.2400 ,1.16657 ,3.92623 ,38.52415 
86 ,17.4158 ,1.16852 ,3.89201 ,38.18837 
87 ,17.6081 ,1.17033 ,3.87832 ,38.05406 
88 ,17.8163 ,1.17237 ,3.87147 ,37.98690 
89 ,18.0087 ,1.17429 ,3.82699 ,37.55038 
90 ,18.2167 ,1.17636 ,3.83041 ,37.58396 
91 ,18.4087 ,1.17824 ,3.79961 ,37.28176 
92 ,18.6003 ,1.18020 ,3.80303 ,37.31534 
93 ,18.8090 ,1.18233 ,3.76539 ,36.94597 
94 ,19.0009 ,1.18422 ,3.77565 ,37.04671 
95 ,19.2091 ,1.18633 ,3.72432 ,36.54303 
96 ,19.4009 ,1.18821 ,3.73117 ,36.61019 
97 ,19.5928 ,1.19014 ,3.71063 ,36.40872 
98 ,19.7853 ,1.19208 ,3.69010 ,36.20725 
99 ,19.9773 ,1.19399 ,3.69694 ,36.27441 
100 ,20.1856 ,1.19592 ,3.66272 ,35.93863 
101 ,20.3775 ,1.19797 ,3.64561 ,35.77073 
102 ,20.5697 ,1.19989 ,3.60112 ,35.33422 
103 ,20.7456 ,1.20178 ,3.60797 ,35.40137 
104 ,20.9538 ,1.20359 ,3.59770 ,35.30064 
105 ,21.1456 ,1.20563 ,3.57032 ,35.03201 
106 ,21.3379 ,1.20754 ,3.56348 ,34.96485 
107 ,21.5460 ,1.20961 ,3.54637 ,34.79696 
108 ,21.7537 ,1.21168 ,3.52926 ,34.62907 
109 ,21.9460 ,1.21374 ,3.50188 ,34.36045 
110 ,22.1385 ,1.21554 ,3.50188 ,34.36045 
111 ,22.3464 ,1.21766 ,3.46766 ,34.02466 
112 ,22.5384 ,1.21957 ,3.46424 ,33.99108 
113 ,22.7143 ,1.22145 ,3.42659 ,33.62172 
114 ,22.9066 ,1.22327 ,3.43001 ,33.65530 
115 ,23.0986 ,1.22515 ,3.42659 ,33.62172 
116 ,23.2907 ,1.22706 ,3.37868 ,33.15163 
117 ,23.4988 ,1.22917 ,3.38210 ,33.18520 
118 ,23.6908 ,1.23107 ,3.35130 ,32.88300 
119 ,23.8827 ,1.23305 ,3.35130 ,32.88300 
120 ,24.0911 ,1.23509 ,3.31708 ,32.54722 
121 ,24.2991 ,1.23717 ,3.33077 ,32.68153 
122 ,24.4911 ,1.23913 ,3.27602 ,32.14428 
123 ,24.6990 ,1.24114 ,3.28286 ,32.21143 
124 ,24.8911 ,1.24308 ,3.24864 ,31.87565 
125 ,25.0832 ,1.24500 ,3.24864 ,31.87565 
126 ,25.2913 ,1.24706 ,3.21784 ,31.57345 
127 ,25.4835 ,1.24898 ,3.21442 ,31.53987 
128 ,25.6916 ,1.25106 ,3.19388 ,31.33840 
129 ,25.8675 ,1.25294 ,3.18362 ,31.23766 
130 ,26.0600 ,1.25475 ,3.17335 ,31.13693 
131 ,26.2839 ,1.25688 ,3.13229 ,30.73399 
132 ,26.4920 ,1.25908 ,3.11518 ,30.56610 
133 ,26.6842 ,1.26103 ,3.11175 ,30.53252 
134 ,26.8922 ,1.26306 ,3.08780 ,30.29747 
135 ,27.1003 ,1.26513 ,3.09122 ,30.33105 
136 ,27.2763 ,1.26705 ,3.06384 ,30.06242 
137 ,27.4684 ,1.26886 ,3.05015 ,29.92811 
138 ,27.6602 ,1.27076 ,3.03989 ,29.82737 
139 ,27.8525 ,1.27267 ,3.01251 ,29.55875 
140 ,28.0447 ,1.27463 ,2.99540 ,29.39086 
141 ,28.2525 ,1.27664 ,2.98171 ,29.25654 
142 ,28.4449 ,1.27863 ,2.96802 ,29.12223 
143 ,28.6529 ,1.28067 ,2.94064 ,28.85360 
144 ,28.8450 ,1.28265 ,2.94064 ,28.85360 
145 ,29.0531 ,1.28470 ,2.90300 ,28.48424 
146 ,29.2451 ,1.28664 ,2.90642 ,28.51782 
147 ,29.4372 ,1.28854 ,2.89616 ,28.41709 
148 ,29.6293 ,1.29042 ,2.86536 ,28.11488 
149 ,29.8213 ,1.29234 ,2.87562 ,28.21562 
150 ,30.0135 ,1.29430 ,2.83456 ,27.81268 
151 ,30.2055 ,1.29620 ,2.83798 ,27.84625 
152 ,30.4136 ,1.29817 ,2.82087 ,27.67836 
153 ,30.6380 ,1.30043 ,2.81745 ,27.64479 
154 ,30.8614 ,1.30281 ,2.79691 ,27.44332 
155 ,31.0540 ,1.30470 ,2.77980 ,27.27542 
156 ,31.2457 ,1.30664 ,2.75585 ,27.04038 
157 ,31.4541 ,1.30870 ,2.74558 ,26.93964 
158 ,31.6457 ,1.31072 ,2.72847 ,26.77175 
159 ,31.8384 ,1.31249 ,2.71136 ,26.60386 
160 ,32.0299 ,1.31445 ,2.68056 ,26.30165 
161 ,32.2384 ,1.31639 ,2.68398 ,26.33523 
162 ,32.4304 ,1.31845 ,2.65318 ,26.03303 
163 ,32.6221 ,1.32033 ,2.66345 ,26.13376 
164 ,32.8144 ,1.32232 ,2.62581 ,25.76440 
165 ,33.0225 ,1.32436 ,2.61896 ,25.69724 
166 ,33.2148 ,1.32632 ,2.59843 ,25.49577 
167 ,33.4069 ,1.32824 ,2.58132 ,25.32788 
168 ,33.5990 ,1.33015 ,2.58474 ,25.36146 
169 ,33.8070 ,1.33235 ,2.56763 ,25.19357 
170 ,33.9991 ,1.33413 ,2.54367 ,24.95852 
171 ,34.1910 ,1.33604 ,2.51287 ,24.65632 
172 ,34.3991 ,1.33811 ,2.50945 ,24.62274 
173 ,34.6074 ,1.34008 ,2.48207 ,24.35411 
174 ,34.7990 ,1.34213 ,2.48550 ,24.38769 
175 ,35.0075 ,1.34420 ,2.46154 ,24.15264 
176 ,35.2156 ,1.34632 ,2.45127 ,24.05191 
177 ,35.4077 ,1.34824 ,2.42732 ,23.81686 
178 ,35.5997 ,1.35013 ,2.44101 ,23.95117 
179 ,35.7918 ,1.35206 ,2.39310 ,23.48108 
180 ,35.9834 ,1.35400 ,2.38968 ,23.44750 
181 ,36.1759 ,1.35589 ,2.37256 ,23.27961 
182 ,36.3841 ,1.35799 ,2.36914 ,23.24603 
183 ,36.5761 ,1.35991 ,2.35203 ,23.07814 
184 ,36.7843 ,1.36204 ,2.32808 ,22.84309 
185 ,36.9922 ,1.36404 ,2.30754 ,22.64162 
186 ,37.1843 ,1.36598 ,2.31097 ,22.67520 
187 ,37.3924 ,1.36799 ,2.26990 ,22.27226 
188 ,37.6005 ,1.37006 ,2.27674 ,22.33941 
189 ,37.8244 ,1.37226 ,2.23910 ,21.97005 
190 ,38.0167 ,1.37430 ,2.24594 ,22.03721 
191 ,38.2085 ,1.37621 ,2.22199 ,21.80216 
192 ,38.4006 ,1.37810 ,2.21515 ,21.73500 
193 ,38.6090 ,1.38012 ,2.19461 ,21.53353 
194 ,38.8171 ,1.38229 ,2.17408 ,21.33206 
195 ,39.0092 ,1.38424 ,2.17066 ,21.29849 
196 ,39.2009 ,1.38615 ,2.15355 ,21.13059 
197 ,39.3931 ,1.38809 ,2.12617 ,20.86197 
198 ,39.6013 ,1.39010 ,2.13986 ,20.99628 
199 ,39.7934 ,1.39204 ,2.10564 ,20.66050 
200 ,40.0014 ,1.39412 ,2.11248 ,20.72766 
201 ,40.1936 ,1.39606 ,2.07826 ,20.39187 
202 ,40.3855 ,1.39800 ,2.06799 ,20.29114 
203 ,40.5778 ,1.39988 ,2.05088 ,20.12325 
204 ,40.7858 ,1.40198 ,2.04746 ,20.08967 
205 ,40.9780 ,1.40386 ,2.02008 ,19.82104 
206 ,41.1701 ,1.40586 ,2.02008 ,19.82104 
207 ,41.3616 ,1.40778 ,2.00639 ,19.68673 
208 ,41.5540 ,1.40969 ,1.97559 ,19.38452 
209 ,41.7622 ,1.41179 ,1.98928 ,19.51884 
210 ,41.9864 ,1.41387 ,1.94137 ,19.04874 
211 ,42.1943 ,1.41604 ,1.93111 ,18.94801 
212 ,42.3865 ,1.41797 ,1.92084 ,18.84727 
213 ,42.5945 ,1.42008 ,1.91399 ,18.78011 
214 ,42.8027 ,1.42208 ,1.91057 ,18.74654 
215 ,43.0108 ,1.42424 ,1.87977 ,18.44433 
216 ,43.2029 ,1.42615 ,1.87635 ,18.41075 
217 ,43.4110 ,1.42819 ,1.83871 ,18.04139 
218 ,43.6026 ,1.43012 ,1.85924 ,18.24286 
219 ,43.7952 ,1.43206 ,1.81133 ,17.77276 
220 ,43.9871 ,1.43397 ,1.81475 ,17.80634 
221 ,44.1790 ,1.43593 ,1.79422 ,17.60487 
222 ,44.3712 ,1.43782 ,1.78053 ,17.47056 
223 ,44.5794 ,1.43989 ,1.77369 ,17.40340 
224 ,44.7712 ,1.44179 ,1.75315 ,17.20193 
225 ,44.9636 ,1.44372 ,1.75315 ,17.20193 
226 ,45.1714 ,1.44574 ,1.72920 ,16.96689 
227 ,45.3639 ,1.44770 ,1.72235 ,16.89973 
228 ,45.5558 ,1.44969 ,1.69498 ,16.63110 
229 ,45.7634 ,1.45174 ,1.69498 ,16.63110 
230 ,45.9563 ,1.45368 ,1.66760 ,16.36248 
231 ,46.1481 ,1.45556 ,1.65733 ,16.26174 
232 ,46.3402 ,1.45741 ,1.66760 ,16.36248 
233 ,46.5324 ,1.45938 ,1.62653 ,15.95954 
234 ,46.7405 ,1.46149 ,1.62995 ,15.99311 
235 ,46.9483 ,1.46352 ,1.59231 ,15.62375 
236 ,47.1404 ,1.46547 ,1.60258 ,15.72449 
237 ,47.3326 ,1.46739 ,1.57178 ,15.42228 
238 ,47.5246 ,1.46933 ,1.58204 ,15.52302 
239 ,47.7166 ,1.47126 ,1.55809 ,15.28797 
240 ,47.9084 ,1.47317 ,1.55124 ,15.22081 
241 ,48.1165 ,1.47525 ,1.52387 ,14.95219 
242 ,48.3085 ,1.47720 ,1.52045 ,14.91861 
243 ,48.5170 ,1.47913 ,1.50676 ,14.78430 
244 ,48.7251 ,1.48134 ,1.48965 ,14.61640 
245 ,48.9171 ,1.48327 ,1.48622 ,14.58283 
246 ,49.1092 ,1.48518 ,1.46569 ,14.38136 
247 ,49.3014 ,1.48709 ,1.46569 ,14.38136 
248 ,49.4935 ,1.48904 ,1.42805 ,14.01199 
249 ,49.7014 ,1.49107 ,1.43489 ,14.07915 
250 ,49.8936 ,1.49305 ,1.39725 ,13.70979 
251 ,50.1013 ,1.49510 ,1.39040 ,13.64263 
252 ,50.2938 ,1.49704 ,1.36987 ,13.44116 
253 ,50.5019 ,1.49910 ,1.39040 ,13.64263 
254 ,50.7098 ,1.50120 ,1.35276 ,13.27327 
255 ,50.9020 ,1.50310 ,1.36645 ,13.40759 
256 ,51.0941 ,1.50503 ,1.31854 ,12.93749 
257 ,51.3021 ,1.50711 ,1.32538 ,13.00465 
258 ,51.5264 ,1.50920 ,1.30143 ,12.76960 
259 ,51.7180 ,1.51125 ,1.29116 ,12.66886 
260 ,51.9104 ,1.51313 ,1.27747 ,12.53455 
261 ,52.1185 ,1.51528 ,1.26720 ,12.43381 
262 ,52.3101 ,1.51716 ,1.24325 ,12.19877 
263 ,52.5026 ,1.51914 ,1.25694 ,12.33308 
264 ,52.7105 ,1.52116 ,1.22272 ,11.99730 
265 ,52.9026 ,1.52309 ,1.23298 ,12.09803 
266 ,53.1109 ,1.52516 ,1.19534 ,11.72867 
267 ,53.3030 ,1.52713 ,1.19876 ,11.76225 
268 ,53.5111 ,1.52911 ,1.16454 ,11.42647 
269 ,53.7191 ,1.53126 ,1.16112 ,11.39289 
270 ,53.9111 ,1.53322 ,1.13032 ,11.09068 
271 ,54.1033 ,1.53508 ,1.14401 ,11.22500 
272 ,54.2955 ,1.53701 ,1.10979 ,10.88921 
273 ,54.4871 ,1.53898 ,1.10294 ,10.82206 
274 ,54.6794 ,1.54086 ,1.10294 ,10.82206 
275 ,54.8873 ,1.54295 ,1.08925 ,10.68774 
276 ,55.1112 ,1.54502 ,1.07214 ,10.51985 
277 ,55.3194 ,1.54720 ,1.05161 ,10.31838 
278 ,55.5115 ,1.54921 ,1.02765 ,10.08333 
279 ,55.7195 ,1.55128 ,1.02423 ,10.04976 
280 ,55.9120 ,1.55323 ,1.01396 ,9.94902 
281 ,56.1201 ,1.55527 ,1.00712 ,9.88186 
282 ,56.3278 ,1.55735 ,0.98659 ,9.68039 
283 ,56.5200 ,1.55922 ,0.97632 ,9.57966 
284 ,56.7119 ,1.56113 ,0.95579 ,9.37819 
285 ,56.9045 ,1.56313 ,0.95579 ,9.37819 
286 ,57.0965 ,1.56505 ,0.93183 ,9.14314 
287 ,57.3047 ,1.56711 ,0.92841 ,9.10956 
288 ,57.5124 ,1.56915 ,0.89419 ,8.77378 
289 ,57.7048 ,1.57107 ,0.90788 ,8.90809 
290 ,57.8967 ,1.57302 ,0.88734 ,8.70662 
291 ,58.1207 ,1.57522 ,0.88392 ,8.67305 
292 ,58.3130 ,1.57719 ,0.85312 ,8.37084 
293 ,58.5052 ,1.57910 ,0.85997 ,8.43800 
294 ,58.7131 ,1.58116 ,0.82917 ,8.13579 
295 ,58.9049 ,1.58310 ,0.82917 ,8.13579 
296 ,59.1133 ,1.58506 ,0.81206 ,7.96790 
297 ,59.3213 ,1.58723 ,0.80863 ,7.93432 
298 ,59.5134 ,1.58917 ,0.77441 ,7.59854 
299 ,59.7537 ,1.59158 ,0.76415 ,7.49780 
300 ,59.9615 ,1.59362 ,0.76415 ,7.49780 
301 ,60.1698 ,1.59573 ,0.73677 ,7.22918 
302 ,60.3939 ,1.59786 ,0.72992 ,7.16202 
303 ,60.5858 ,1.59992 ,0.72992 ,7.16202 
304 ,60.7940 ,1.60193 ,0.70255 ,6.89340 
305 ,60.9861 ,1.60397 ,0.69913 ,6.85982 
306 ,61.1782 ,1.60592 ,0.68544 ,6.72550 
307 ,61.3703 ,1.60777 ,0.66490 ,6.52403 
308 ,61.5783 ,1.60978 ,0.65806 ,6.45688 
309 ,61.7706 ,1.61175 ,0.64779 ,6.35614 
310 ,61.9785 ,1.61381 ,0.63068 ,6.18825 
311 ,62.1703 ,1.61570 ,0.61015 ,5.98678 
312 ,62.3623 ,1.61767 ,0.61357 ,6.02036 
313 ,62.5548 ,1.61958 ,0.59646 ,5.85247 
314 ,62.7469 ,1.62147 ,0.58619 ,5.75173 
315 ,62.9390 ,1.62344 ,0.56224 ,5.51668 
316 ,63.1471 ,1.62548 ,0.56566 ,5.55026 
317 ,63.3549 ,1.62757 ,0.54855 ,5.38237 
318 ,63.5469 ,1.62946 ,0.54171 ,5.31522 
319 ,63.7391 ,1.63141 ,0.54513 ,5.34879 
320 ,63.9313 ,1.63332 ,0.50406 ,4.94585 
321 ,64.1235 ,1.63526 ,0.51775 ,5.08017 
322 ,64.3156 ,1.63721 ,0.48695 ,4.77796 
323 ,64.5236 ,1.63918 ,0.49380 ,4.84512 
324 ,64.7317 ,1.64137 ,0.45615 ,4.47576 
325 ,64.9236 ,1.64323 ,0.46300 ,4.54291 
326 ,65.1156 ,1.64516 ,0.43904 ,4.30787 
327 ,65.3238 ,1.64723 ,0.44246 ,4.34144 
328 ,65.5154 ,1.64920 ,0.42193 ,4.13997 
329 ,65.7081 ,1.65108 ,0.40824 ,4.00566 
330 ,65.9161 ,1.65317 ,0.39455 ,3.87135 
331 ,66.1243 ,1.65517 ,0.40140 ,3.93850 
332 ,66.3321 ,1.65730 ,0.37060 ,3.63630 
333 ,66.5245 ,1.65922 ,0.37744 ,3.70346 
334 ,66.7321 ,1.66132 ,0.33980 ,3.33410 
335 ,66.9246 ,1.66328 ,0.35349 ,3.46841 
336 ,67.1327 ,1.66532 ,0.31242 ,3.06547 
337 ,67.3247 ,1.66731 ,0.33295 ,3.26694 
338 ,67.5326 ,1.66932 ,0.29531 ,2.89758 
339 ,67.7405 ,1.67136 ,0.30558 ,2.99831 
340 ,67.9325 ,1.67329 ,0.29189 ,2.86400 
341 ,68.1250 ,1.67527 ,0.27820 ,2.72969 
342 ,68.3169 ,1.67717 ,0.26451 ,2.59537 
343 ,68.5092 ,1.67913 ,0.26109 ,2.56179 
344 ,68.7009 ,1.68101 ,0.26109 ,2.56179 
345 ,68.8931 ,1.68292 ,0.22344 ,2.19243 
346 ,69.1014 ,1.68498 ,0.24398 ,2.39390 
347 ,69.2935 ,1.68693 ,0.20976 ,2.05812 
348 ,69.4693 ,1.68886 ,0.19949 ,1.95738 
349 ,69.6615 ,1.69062 ,0.19607 ,1.92381 
350 ,69.8693 ,1.69259 ,0.17553 ,1.72234 
351 ,70.0617 ,1.69466 ,0.18238 ,1.78949 
352 ,70.2538 ,1.69649 ,0.15842 ,1.55445 
353 ,70.4460 ,1.69849 ,0.15500 ,1.52087 
354 ,70.6379 ,1.70038 ,0.13447 ,1.31940 
355 ,70.8301 ,1.70232 ,0.11393 ,1.11793 
356 ,71.0061 ,1.70415 ,0.11736 ,1.15151 
357 ,71.1984 ,1.70597 ,0.11051 ,1.08435 
358 ,71.4062 ,1.70808 ,0.10025 ,0.98361 
359 ,71.5982 ,1.70999 ,0.08656 ,0.84930 
360 ,71.7903 ,1.71190 ,0.06945 ,0.68141 
361 ,71.9984 ,1.71400 ,0.07287 ,0.71499 
362 ,72.2067 ,1.71594 ,0.05234 ,0.51352 
363 ,72.4147 ,1.71812 ,0.05234 ,0.51352 
364 ,72.6068 ,1.72008 ,0.03865 ,0.37920 
365 ,72.8146 ,1.72204 ,0.03522 ,0.34563 
366 ,73.0071 ,1.72407 ,0.00443 ,0.04342 
367 ,73.1991 ,1.72599 ,0.00100 ,0.00984 
368 ,73.4073 ,1.72805 ,0.00100 ,0.00984 
369 ,73.5993 ,1.72997 ,-0.00926 ,-0.09089 
370 ,73.8074 ,1.73206 ,-0.01953 ,-0.19163 
371 ,73.9992 ,1.73398 ,-0.04006 ,-0.39310 
372 ,74.2071 ,1.73605 ,-0.05033 ,-0.49383 
373 ,74.4154 ,1.73806 ,-0.05717 ,-0.56099 
374 ,74.6238 ,1.74016 ,-0.06402 ,-0.62814 
375 ,74.8158 ,1.74219 ,-0.08113 ,-0.79604 
376 ,75.0079 ,1.74405 ,-0.09482 ,-0.93035 
377 ,75.2159 ,1.74612 ,-0.10508 ,-1.03108 
378 ,75.4081 ,1.74803 ,-0.12219 ,-1.19898 
379 ,75.6160 ,1.75015 ,-0.13246 ,-1.29971 
380 ,75.8243 ,1.75223 ,-0.12904 ,-1.26613 
381 ,76.0160 ,1.75415 ,-0.15642 ,-1.53476 
382 ,76.2243 ,1.75621 ,-0.14957 ,-1.46760 
383 ,76.4159 ,1.75813 ,-0.17695 ,-1.73623 
384 ,76.6406 ,1.76026 ,-0.17353 ,-1.70265 
385 ,76.8486 ,1.76246 ,-0.20090 ,-1.97128 
386 ,77.0404 ,1.76437 ,-0.19064 ,-1.87054 
387 ,77.2163 ,1.76625 ,-0.21802 ,-2.13917 
388 ,77.4084 ,1.76802 ,-0.22486 ,-2.20632 
389 ,77.6005 ,1.77000 ,-0.22486 ,-2.20632 
390 ,77.8090 ,1.77205 ,-0.24881 ,-2.44137 
391 ,78.0011 ,1.77396 ,-0.22828 ,-2.23990 
392 ,78.2091 ,1.77602 ,-0.26250 ,-2.57569 
393 ,78.4172 ,1.77799 ,-0.25566 ,-2.50853 
394 ,78.6249 ,1.78023 ,-0.27277 ,-2.67642 
395 ,78.8173 ,1.78220 ,-0.30015 ,-2.94505 
396 ,79.0252 ,1.78419 ,-0.28988 ,-2.84431 
397 ,79.2335 ,1.78628 ,-0.31726 ,-3.11294 
398 ,79.4415 ,1.78835 ,-0.31726 ,-3.11294 
399 ,79.6337 ,1.79032 ,-0.34121 ,-3.34799 
400 ,79.8418 ,1.79240 ,-0.33095 ,-3.24725 
401 ,80.0498 ,1.79446 ,-0.35490 ,-3.48230 
402 ,80.2418 ,1.79639 ,-0.35490 ,-3.48230 
403 ,80.4341 ,1.79835 ,-0.37886 ,-3.71735 
404 ,80.6419 ,1.80037 ,-0.37201 ,-3.65019 
405 ,80.8337 ,1.80228 ,-0.40281 ,-3.95240 
406 ,81.0261 ,1.80422 ,-0.38912 ,-3.81808 
407 ,81.2503 ,1.80628 ,-0.40966 ,-4.01955 
408 ,81.4586 ,1.80854 ,-0.41992 ,-4.12029 
409 ,81.6504 ,1.81046 ,-0.44046 ,-4.32176 
410 ,81.8427 ,1.81237 ,-0.43703 ,-4.28818 
411 ,82.0346 ,1.81431 ,-0.46441 ,-4.55681 
412 ,82.2428 ,1.81635 ,-0.45414 ,-4.45607 
413 ,82.4188 ,1.81826 ,-0.47810 ,-4.69112 
414 ,82.6108 ,1.82002 ,-0.48494 ,-4.75828 
415 ,82.8189 ,1.82209 ,-0.49521 ,-4.85901 
416 ,83.0106 ,1.82401 ,-0.50890 ,-4.99332 
417 ,83.2032 ,1.82600 ,-0.50206 ,-4.92617 
418 ,83.4109 ,1.82804 ,-0.52601 ,-5.16121 
419 ,83.6031 ,1.82993 ,-0.51232 ,-5.02690 
420 ,83.7793 ,1.83187 ,-0.54654 ,-5.36268 
421 ,83.9711 ,1.83366 ,-0.54997 ,-5.39626 
422 ,84.1792 ,1.83572 ,-0.54312 ,-5.32911 
423 ,84.4035 ,1.83789 ,-0.56708 ,-5.56415 
424 ,84.5955 ,1.83987 ,-0.58077 ,-5.69847 
425 ,84.8198 ,1.84194 ,-0.58761 ,-5.76562 
426 ,85.0277 ,1.84419 ,-0.59445 ,-5.83278 
427 ,85.2194 ,1.84610 ,-0.59788 ,-5.86636 
428 ,85.4280 ,1.84812 ,-0.61841 ,-6.06783 
429 ,85.6361 ,1.85029 ,-0.62868 ,-6.16856 
430 ,85.8282 ,1.85222 ,-0.63552 ,-6.23572 
431 ,86.0202 ,1.85416 ,-0.63552 ,-6.23572 
432 ,86.1961 ,1.85602 ,-0.65263 ,-6.40361 
433 ,86.3880 ,1.85779 ,-0.65605 ,-6.43719 
434 ,86.5964 ,1.85980 ,-0.65605 ,-6.43719 
435 ,86.7884 ,1.86184 ,-0.66632 ,-6.53793 
436 ,86.9805 ,1.86373 ,-0.67659 ,-6.63866 
437 ,87.1725 ,1.86566 ,-0.70739 ,-6.94086 
438 ,87.3647 ,1.86752 ,-0.69712 ,-6.84013 
439 ,87.5567 ,1.86948 ,-0.71423 ,-7.00802 
440 ,87.7645 ,1.87155 ,-0.73818 ,-7.24307 
441 ,87.9727 ,1.87357 ,-0.72792 ,-7.14233 
442 ,88.1971 ,1.87576 ,-0.73134 ,-7.17591 
443 ,88.3890 ,1.87784 ,-0.74845 ,-7.34380 
444 ,88.5806 ,1.87972 ,-0.74161 ,-7.27665 
445 ,88.7730 ,1.88169 ,-0.77583 ,-7.61243 
446 ,88.9812 ,1.88372 ,-0.76556 ,-7.51170 
447 ,89.1735 ,1.88565 ,-0.79978 ,-7.84748 
448 ,89.3976 ,1.88775 ,-0.78952 ,-7.74674 
449 ,89.5895 ,1.88985 ,-0.80663 ,-7.91464 
450 ,89.7978 ,1.89186 ,-0.80321 ,-7.88106 
451 ,90.0060 ,1.89398 ,-0.83058 ,-8.14968 
452 ,90.1980 ,1.89590 ,-0.83743 ,-8.21684 
453 ,90.3899 ,1.89788 ,-0.84427 ,-8.28400 
454 ,90.5981 ,1.89976 ,-0.84427 ,-8.28400 
455 ,90.7897 ,1.90180 ,-0.85454 ,-8.38473 
456 ,90.9821 ,1.90370 ,-0.85796 ,-8.41831 
457 ,91.2062 ,1.90590 ,-0.89560 ,-8.78767 
458 ,91.3985 ,1.90788 ,-0.88876 ,-8.72051 
459 ,91.5903 ,1.90984 ,-0.90245 ,-8.85483 
460 ,91.7826 ,1.91169 ,-0.89560 ,-8.78767 
461 ,91.9907 ,1.91374 ,-0.92983 ,-9.12345 
462 ,92.2146 ,1.91596 ,-0.92640 ,-9.08988 
463 ,92.4064 ,1.91795 ,-0.92983 ,-9.12345 
