Data stamp = , 01-05-2022 10:55:21 932

Calibration Values: 
Slope = , 26.54 , g/V 
Offset Voltage at no contact = , -0.501760 , V 

No , Time , Stage Position ,   Mass , Force 
   ,  (s) ,      (mm)      ,   (g)  , (mN)  

1 ,0.0000 ,0.99953 ,5.39434 ,52.92925 
2 ,0.2155 ,0.99956 ,5.41487 ,53.13072 
3 ,0.8558 ,1.00213 ,5.40118 ,52.99640 
4 ,1.0482 ,1.00475 ,5.39434 ,52.92925 
5 ,1.2563 ,1.00679 ,5.40460 ,53.02998 
6 ,1.4484 ,1.00875 ,5.37381 ,52.72778 
7 ,1.6405 ,1.01067 ,5.34985 ,52.49273 
8 ,1.8486 ,1.01277 ,5.32247 ,52.22410 
9 ,2.0725 ,1.01487 ,5.31563 ,52.15694 
10 ,2.2645 ,1.01691 ,5.28141 ,51.82116 
11 ,2.4730 ,1.01899 ,5.29510 ,51.95548 
12 ,2.6967 ,1.02119 ,5.27114 ,51.72043 
13 ,2.9046 ,1.02325 ,5.22665 ,51.28391 
14 ,3.0967 ,1.02520 ,5.22323 ,51.25033 
15 ,3.2887 ,1.02714 ,5.22323 ,51.25033 
16 ,3.4808 ,1.02902 ,5.18559 ,50.88097 
17 ,3.6728 ,1.03099 ,5.18216 ,50.84739 
18 ,3.8653 ,1.03293 ,5.13768 ,50.41087 
19 ,4.0570 ,1.03484 ,5.13083 ,50.34372 
20 ,4.2495 ,1.03673 ,5.11372 ,50.17583 
21 ,4.4574 ,1.03887 ,5.07608 ,49.80646 
22 ,4.6658 ,1.04091 ,5.05897 ,49.63857 
23 ,4.8737 ,1.04300 ,5.05554 ,49.60499 
24 ,5.0814 ,1.04495 ,5.01790 ,49.23563 
25 ,5.2739 ,1.04698 ,5.03159 ,49.36995 
26 ,5.4661 ,1.04889 ,4.98368 ,48.89985 
27 ,5.6581 ,1.05085 ,4.96657 ,48.73196 
28 ,5.8502 ,1.05272 ,4.96999 ,48.76554 
29 ,6.0422 ,1.05467 ,4.92208 ,48.29544 
30 ,6.2344 ,1.05660 ,4.92550 ,48.32902 
31 ,6.4424 ,1.05865 ,4.89470 ,48.02681 
32 ,6.6340 ,1.06058 ,4.89128 ,47.99324 
33 ,6.8424 ,1.06263 ,4.85364 ,47.62387 
34 ,7.0668 ,1.06479 ,4.85021 ,47.59030 
35 ,7.2586 ,1.06686 ,4.80573 ,47.15378 
36 ,7.4507 ,1.06869 ,4.80573 ,47.15378 
37 ,7.6428 ,1.07066 ,4.78861 ,46.98589 
38 ,7.8507 ,1.07270 ,4.76808 ,46.78442 
39 ,8.0426 ,1.07473 ,4.74413 ,46.54937 
40 ,8.2352 ,1.07662 ,4.71333 ,46.24716 
41 ,8.4431 ,1.07862 ,4.70306 ,46.14643 
42 ,8.6353 ,1.08060 ,4.68253 ,45.94496 
43 ,8.8271 ,1.08253 ,4.67226 ,45.84422 
44 ,9.0355 ,1.08458 ,4.64831 ,45.60918 
45 ,9.2435 ,1.08670 ,4.63462 ,45.47486 
46 ,9.4356 ,1.08860 ,4.61408 ,45.27339 
47 ,9.6277 ,1.09051 ,4.59697 ,45.10550 
48 ,9.8197 ,1.09241 ,4.57644 ,44.90403 
49 ,10.0117 ,1.09449 ,4.57302 ,44.87045 
50 ,10.2038 ,1.09629 ,4.54564 ,44.60183 
51 ,10.4119 ,1.09833 ,4.53537 ,44.50109 
52 ,10.6040 ,1.10027 ,4.51142 ,44.26604 
53 ,10.8121 ,1.10225 ,4.48404 ,43.99742 
54 ,11.0038 ,1.10424 ,4.48062 ,43.96384 
55 ,11.2444 ,1.10669 ,4.44982 ,43.66163 
56 ,11.4524 ,1.10875 ,4.44982 ,43.66163 
57 ,11.6606 ,1.11086 ,4.40191 ,43.19154 
58 ,11.8526 ,1.11273 ,4.39164 ,43.09080 
59 ,12.0607 ,1.11486 ,4.36769 ,42.85576 
60 ,12.2523 ,1.11674 ,4.35742 ,42.75502 
61 ,12.4448 ,1.11870 ,4.35058 ,42.68786 
62 ,12.6209 ,1.12051 ,4.31636 ,42.35208 
63 ,12.8290 ,1.12246 ,4.32320 ,42.41924 
64 ,13.0209 ,1.12439 ,4.29240 ,42.11703 
65 ,13.2129 ,1.12636 ,4.28556 ,42.04988 
66 ,13.4214 ,1.12841 ,4.24449 ,41.64694 
67 ,13.6294 ,1.13050 ,4.24791 ,41.68051 
68 ,13.8212 ,1.13245 ,4.21369 ,41.34473 
69 ,14.0132 ,1.13439 ,4.20342 ,41.24400 
70 ,14.2537 ,1.13662 ,4.17262 ,40.94179 
71 ,14.4614 ,1.13883 ,4.15894 ,40.80748 
72 ,14.6697 ,1.14089 ,4.14183 ,40.63959 
73 ,14.8616 ,1.14284 ,4.13156 ,40.53885 
74 ,15.0699 ,1.14492 ,4.12471 ,40.47170 
75 ,15.2780 ,1.14688 ,4.10076 ,40.23665 
76 ,15.4859 ,1.14908 ,4.08365 ,40.06876 
77 ,15.6781 ,1.15097 ,4.05285 ,39.76655 
78 ,15.8703 ,1.15293 ,4.04258 ,39.66582 
79 ,16.0622 ,1.15484 ,4.03232 ,39.56508 
80 ,16.2703 ,1.15695 ,4.01178 ,39.36361 
81 ,16.4623 ,1.15883 ,3.99809 ,39.22930 
82 ,16.6546 ,1.16080 ,3.95703 ,38.82636 
83 ,16.8626 ,1.16285 ,3.95361 ,38.79278 
84 ,17.0547 ,1.16475 ,3.92623 ,38.52415 
85 ,17.2468 ,1.16669 ,3.92965 ,38.55773 
86 ,17.4389 ,1.16860 ,3.89201 ,38.18837 
87 ,17.6305 ,1.17056 ,3.90227 ,38.28911 
88 ,17.8391 ,1.17250 ,3.86463 ,37.91975 
89 ,18.0472 ,1.17472 ,3.86121 ,37.88617 
90 ,18.2552 ,1.17679 ,3.82014 ,37.48323 
91 ,18.4474 ,1.17868 ,3.82014 ,37.48323 
92 ,18.6550 ,1.18078 ,3.78250 ,37.11387 
93 ,18.8633 ,1.18279 ,3.78934 ,37.18102 
94 ,19.0556 ,1.18477 ,3.75512 ,36.84524 
95 ,19.2316 ,1.18663 ,3.76539 ,36.94597 
96 ,19.4397 ,1.18858 ,3.71748 ,36.47588 
97 ,19.6317 ,1.19052 ,3.70379 ,36.34157 
98 ,19.8074 ,1.19240 ,3.69694 ,36.27441 
99 ,19.9998 ,1.19423 ,3.67983 ,36.10652 
100 ,20.2077 ,1.19627 ,3.66957 ,36.00578 
101 ,20.4001 ,1.19820 ,3.65588 ,35.87147 
102 ,20.5921 ,1.20014 ,3.62166 ,35.53569 
103 ,20.7843 ,1.20206 ,3.62166 ,35.53569 
104 ,20.9763 ,1.20397 ,3.59086 ,35.23348 
105 ,21.1844 ,1.20608 ,3.57375 ,35.06559 
106 ,21.3924 ,1.20810 ,3.53952 ,34.72981 
107 ,21.5845 ,1.21000 ,3.54979 ,34.83054 
108 ,21.7925 ,1.21206 ,3.52241 ,34.56192 
109 ,21.9684 ,1.21401 ,3.50872 ,34.42760 
110 ,22.1765 ,1.21583 ,3.50188 ,34.36045 
111 ,22.3848 ,1.21808 ,3.49161 ,34.25971 
112 ,22.5769 ,1.21999 ,3.44028 ,33.75604 
113 ,22.7850 ,1.22203 ,3.44370 ,33.78961 
114 ,22.9770 ,1.22401 ,3.42317 ,33.58814 
115 ,23.2172 ,1.22629 ,3.39579 ,33.31952 
116 ,23.4251 ,1.22840 ,3.39237 ,33.28594 
117 ,23.6173 ,1.23037 ,3.37526 ,33.11805 
118 ,23.8253 ,1.23241 ,3.36842 ,33.05089 
119 ,24.0175 ,1.23435 ,3.33077 ,32.68153 
120 ,24.2092 ,1.23634 ,3.32051 ,32.58080 
121 ,24.4015 ,1.23815 ,3.31366 ,32.51364 
122 ,24.5937 ,1.24009 ,3.27944 ,32.17786 
123 ,24.8178 ,1.24229 ,3.26575 ,32.04354 
124 ,25.0100 ,1.24427 ,3.24522 ,31.84207 
125 ,25.2175 ,1.24633 ,3.24180 ,31.80849 
126 ,25.4095 ,1.24825 ,3.22811 ,31.67418 
127 ,25.6018 ,1.25020 ,3.20415 ,31.43913 
128 ,25.8263 ,1.25239 ,3.19388 ,31.33840 
129 ,26.0180 ,1.25437 ,3.16651 ,31.06977 
130 ,26.2102 ,1.25641 ,3.16651 ,31.06977 
131 ,26.3864 ,1.25813 ,3.14940 ,30.90188 
132 ,26.5786 ,1.25994 ,3.12544 ,30.66683 
133 ,26.7706 ,1.26186 ,3.10491 ,30.46536 
134 ,26.9627 ,1.26377 ,3.11518 ,30.56610 
135 ,27.1548 ,1.26574 ,3.05700 ,29.99527 
136 ,27.3469 ,1.26765 ,3.06384 ,30.06242 
137 ,27.5547 ,1.26971 ,3.03304 ,29.76022 
138 ,27.7470 ,1.27169 ,3.03304 ,29.76022 
139 ,27.9390 ,1.27355 ,3.01593 ,29.59233 
140 ,28.1311 ,1.27545 ,2.98855 ,29.32370 
141 ,28.3233 ,1.27742 ,2.98513 ,29.29012 
142 ,28.5150 ,1.27930 ,2.96460 ,29.08865 
143 ,28.7074 ,1.28126 ,2.94407 ,28.88718 
144 ,28.9156 ,1.28335 ,2.93722 ,28.82003 
145 ,29.1235 ,1.28537 ,2.91327 ,28.58498 
146 ,29.3157 ,1.28737 ,2.89958 ,28.45066 
147 ,29.5076 ,1.28925 ,2.87905 ,28.24919 
148 ,29.7479 ,1.29148 ,2.86193 ,28.08130 
149 ,29.9560 ,1.29374 ,2.84825 ,27.94699 
150 ,30.1480 ,1.29564 ,2.81745 ,27.64479 
151 ,30.3401 ,1.29757 ,2.82429 ,27.71194 
152 ,30.5482 ,1.29966 ,2.79691 ,27.44332 
153 ,30.7402 ,1.30154 ,2.78665 ,27.34258 
154 ,30.9320 ,1.30339 ,2.75585 ,27.04038 
155 ,31.1243 ,1.30539 ,2.75585 ,27.04038 
156 ,31.3324 ,1.30747 ,2.73189 ,26.80533 
157 ,31.5405 ,1.30956 ,2.73531 ,26.83891 
158 ,31.7321 ,1.31149 ,2.70109 ,26.50312 
159 ,31.9246 ,1.31343 ,2.69767 ,26.46954 
160 ,32.1327 ,1.31549 ,2.66687 ,26.16734 
161 ,32.3409 ,1.31754 ,2.67714 ,26.26807 
162 ,32.5325 ,1.31945 ,2.63265 ,25.83156 
163 ,32.7250 ,1.32142 ,2.61896 ,25.69724 
164 ,32.9170 ,1.32332 ,2.62238 ,25.73082 
165 ,33.1250 ,1.32525 ,2.59501 ,25.46220 
166 ,33.3331 ,1.32734 ,2.58474 ,25.36146 
167 ,33.5253 ,1.32944 ,2.54710 ,24.99210 
168 ,33.7173 ,1.33135 ,2.56421 ,25.15999 
169 ,33.9091 ,1.33327 ,2.52656 ,24.79063 
170 ,34.1015 ,1.33516 ,2.52656 ,24.79063 
171 ,34.3096 ,1.33723 ,2.49576 ,24.48842 
172 ,34.5014 ,1.33911 ,2.49576 ,24.48842 
173 ,34.7097 ,1.34120 ,2.47181 ,24.25338 
174 ,34.9016 ,1.34317 ,2.45812 ,24.11906 
175 ,35.1417 ,1.34541 ,2.43416 ,23.88402 
176 ,35.3501 ,1.34761 ,2.41363 ,23.68255 
177 ,35.5420 ,1.34959 ,2.40679 ,23.61539 
178 ,35.7342 ,1.35143 ,2.39652 ,23.51465 
179 ,35.9423 ,1.35352 ,2.37941 ,23.34676 
180 ,36.1340 ,1.35548 ,2.36572 ,23.21245 
181 ,36.3265 ,1.35738 ,2.34519 ,23.01098 
182 ,36.5342 ,1.35946 ,2.34177 ,22.97740 
183 ,36.7267 ,1.36139 ,2.30754 ,22.64162 
184 ,36.9346 ,1.36351 ,2.31781 ,22.74235 
185 ,37.1268 ,1.36541 ,2.27332 ,22.30584 
186 ,37.3348 ,1.36749 ,2.28017 ,22.37299 
187 ,37.5429 ,1.36959 ,2.24937 ,22.07079 
188 ,37.7350 ,1.37152 ,2.24252 ,22.00363 
189 ,37.9427 ,1.37359 ,2.21857 ,21.76858 
190 ,38.1508 ,1.37551 ,2.20830 ,21.66785 
191 ,38.3427 ,1.37757 ,2.18435 ,21.43280 
192 ,38.5350 ,1.37952 ,2.19119 ,21.49996 
193 ,38.7434 ,1.38157 ,2.16381 ,21.23133 
194 ,38.9355 ,1.38351 ,2.16723 ,21.26491 
195 ,39.1276 ,1.38544 ,2.13986 ,20.99628 
196 ,39.3353 ,1.38736 ,2.11590 ,20.76123 
197 ,39.5277 ,1.38943 ,2.09879 ,20.59334 
198 ,39.7359 ,1.39148 ,2.10221 ,20.62692 
199 ,39.9278 ,1.39342 ,2.06799 ,20.29114 
200 ,40.1200 ,1.39529 ,2.06799 ,20.29114 
201 ,40.3120 ,1.39730 ,2.06457 ,20.25756 
202 ,40.5040 ,1.39917 ,2.03719 ,19.98893 
203 ,40.6960 ,1.40105 ,2.03719 ,19.98893 
204 ,40.8884 ,1.40303 ,2.00297 ,19.65315 
205 ,41.0960 ,1.40507 ,1.99955 ,19.61957 
206 ,41.2885 ,1.40696 ,1.97217 ,19.35094 
207 ,41.4964 ,1.40912 ,1.96875 ,19.31737 
208 ,41.7047 ,1.41118 ,1.93795 ,19.01516 
209 ,41.9124 ,1.41323 ,1.94137 ,19.04874 
210 ,42.1048 ,1.41514 ,1.91057 ,18.74654 
211 ,42.2969 ,1.41707 ,1.90715 ,18.71296 
212 ,42.4889 ,1.41897 ,1.90031 ,18.64580 
213 ,42.6808 ,1.42087 ,1.86608 ,18.31002 
214 ,42.8891 ,1.42287 ,1.87977 ,18.44433 
215 ,43.0972 ,1.42511 ,1.84897 ,18.14213 
216 ,43.2893 ,1.42701 ,1.84213 ,18.07497 
217 ,43.4814 ,1.42894 ,1.80449 ,17.70561 
218 ,43.6890 ,1.43097 ,1.82502 ,17.90708 
219 ,43.8812 ,1.43292 ,1.78737 ,17.53772 
220 ,44.0896 ,1.43502 ,1.78395 ,17.50414 
221 ,44.2818 ,1.43692 ,1.75315 ,17.20193 
222 ,44.4898 ,1.43899 ,1.76000 ,17.26909 
223 ,44.6979 ,1.44106 ,1.73946 ,17.06762 
224 ,44.9059 ,1.44314 ,1.71551 ,16.83257 
225 ,45.1140 ,1.44518 ,1.71209 ,16.79899 
226 ,45.3060 ,1.44718 ,1.69498 ,16.63110 
227 ,45.4983 ,1.44909 ,1.68471 ,16.53037 
228 ,45.6903 ,1.45101 ,1.67444 ,16.42963 
229 ,45.8980 ,1.45311 ,1.66075 ,16.29532 
230 ,46.1222 ,1.45518 ,1.64707 ,16.16101 
231 ,46.3467 ,1.45744 ,1.62653 ,15.95954 
232 ,46.5382 ,1.45947 ,1.59916 ,15.69091 
233 ,46.7309 ,1.46139 ,1.59231 ,15.62375 
234 ,46.9549 ,1.46355 ,1.57862 ,15.48944 
235 ,47.1788 ,1.46575 ,1.56151 ,15.32155 
236 ,47.3870 ,1.46796 ,1.55124 ,15.22081 
237 ,47.5788 ,1.47003 ,1.53756 ,15.08650 
238 ,47.7713 ,1.47180 ,1.52729 ,14.98577 
239 ,47.9632 ,1.47372 ,1.48622 ,14.58283 
240 ,48.1715 ,1.47583 ,1.49991 ,14.71714 
241 ,48.3954 ,1.47802 ,1.47253 ,14.44851 
242 ,48.6036 ,1.48012 ,1.46569 ,14.38136 
243 ,48.7954 ,1.48201 ,1.45542 ,14.28062 
244 ,49.0035 ,1.48413 ,1.42462 ,13.97842 
245 ,49.1953 ,1.48602 ,1.42805 ,14.01199 
246 ,49.3878 ,1.48800 ,1.41436 ,13.87768 
247 ,49.5958 ,1.48999 ,1.39040 ,13.64263 
248 ,49.8039 ,1.49209 ,1.37671 ,13.50832 
249 ,50.0120 ,1.49420 ,1.36645 ,13.40759 
250 ,50.2041 ,1.49612 ,1.34934 ,13.23969 
251 ,50.3963 ,1.49806 ,1.34591 ,13.20612 
252 ,50.6043 ,1.50016 ,1.32880 ,13.03822 
253 ,50.8124 ,1.50220 ,1.31854 ,12.93749 
254 ,51.0043 ,1.50412 ,1.30827 ,12.83675 
255 ,51.1964 ,1.50603 ,1.28432 ,12.60171 
256 ,51.3882 ,1.50797 ,1.28432 ,12.60171 
257 ,51.5804 ,1.50991 ,1.25352 ,12.29950 
258 ,51.7726 ,1.51181 ,1.26720 ,12.43381 
259 ,51.9647 ,1.51369 ,1.24667 ,12.23235 
260 ,52.1570 ,1.51565 ,1.21245 ,11.89656 
261 ,52.3490 ,1.51761 ,1.22272 ,11.99730 
262 ,52.5570 ,1.51962 ,1.19534 ,11.72867 
263 ,52.7812 ,1.52176 ,1.18850 ,11.66151 
264 ,52.9732 ,1.52385 ,1.17823 ,11.56078 
265 ,53.1813 ,1.52586 ,1.16454 ,11.42647 
266 ,53.3893 ,1.52794 ,1.15770 ,11.35931 
267 ,53.5810 ,1.52987 ,1.12690 ,11.05710 
268 ,53.7737 ,1.53186 ,1.12347 ,11.02353 
269 ,53.9814 ,1.53387 ,1.10979 ,10.88921 
270 ,54.1737 ,1.53581 ,1.09952 ,10.78848 
271 ,54.3818 ,1.53785 ,1.07556 ,10.55343 
272 ,54.5740 ,1.53978 ,1.07214 ,10.51985 
273 ,54.7817 ,1.54185 ,1.05161 ,10.31838 
274 ,54.9739 ,1.54380 ,1.04134 ,10.21765 
275 ,55.1663 ,1.54572 ,1.03450 ,10.15049 
276 ,55.3582 ,1.54765 ,1.00370 ,9.84829 
277 ,55.5503 ,1.54960 ,1.01396 ,9.94902 
278 ,55.7422 ,1.55147 ,0.98659 ,9.68039 
279 ,55.9665 ,1.55359 ,0.98659 ,9.68039 
280 ,56.1745 ,1.55584 ,0.94894 ,9.31103 
281 ,56.3826 ,1.55788 ,0.94210 ,9.24388 
282 ,56.5905 ,1.55993 ,0.93183 ,9.14314 
283 ,56.7828 ,1.56189 ,0.92499 ,9.07598 
284 ,56.9749 ,1.56381 ,0.90103 ,8.84094 
285 ,57.1669 ,1.56574 ,0.90103 ,8.84094 
286 ,57.3591 ,1.56766 ,0.88050 ,8.63947 
287 ,57.5671 ,1.56971 ,0.89419 ,8.77378 
288 ,57.7593 ,1.57165 ,0.86681 ,8.50515 
289 ,57.9669 ,1.57372 ,0.85997 ,8.43800 
290 ,58.1594 ,1.57566 ,0.82575 ,8.10221 
291 ,58.3674 ,1.57773 ,0.81548 ,8.00148 
292 ,58.5756 ,1.57967 ,0.80863 ,7.93432 
293 ,58.7837 ,1.58189 ,0.81206 ,7.96790 
294 ,58.9917 ,1.58387 ,0.76757 ,7.53138 
295 ,59.2315 ,1.58619 ,0.78810 ,7.73285 
296 ,59.4400 ,1.58846 ,0.75730 ,7.43065 
297 ,59.6316 ,1.59035 ,0.74361 ,7.29633 
298 ,59.8240 ,1.59225 ,0.74704 ,7.32991 
299 ,60.0159 ,1.59419 ,0.71966 ,7.06129 
300 ,60.2080 ,1.59621 ,0.71966 ,7.06129 
301 ,60.4001 ,1.59804 ,0.70597 ,6.92697 
302 ,60.6083 ,1.60015 ,0.70597 ,6.92697 
303 ,60.8164 ,1.60222 ,0.67175 ,6.59119 
304 ,61.0084 ,1.60417 ,0.66490 ,6.52403 
305 ,61.2162 ,1.60623 ,0.64437 ,6.32256 
306 ,61.4085 ,1.60817 ,0.64095 ,6.28899 
307 ,61.6168 ,1.61019 ,0.61699 ,6.05394 
308 ,61.8248 ,1.61223 ,0.62042 ,6.08752 
309 ,62.0169 ,1.61418 ,0.59304 ,5.81889 
310 ,62.2250 ,1.61624 ,0.59646 ,5.85247 
311 ,62.4169 ,1.61831 ,0.57251 ,5.61742 
312 ,62.6090 ,1.62013 ,0.55882 ,5.48311 
313 ,62.8009 ,1.62201 ,0.56224 ,5.51668 
314 ,62.9932 ,1.62392 ,0.52459 ,5.14732 
315 ,63.1854 ,1.62593 ,0.54171 ,5.31522 
316 ,63.3773 ,1.62789 ,0.51091 ,5.01301 
317 ,63.5696 ,1.62974 ,0.49722 ,4.87870 
318 ,63.7776 ,1.63179 ,0.49722 ,4.87870 
319 ,63.9696 ,1.63380 ,0.49037 ,4.81154 
320 ,64.1613 ,1.63565 ,0.46984 ,4.61007 
321 ,64.3538 ,1.63755 ,0.44931 ,4.40860 
322 ,64.5456 ,1.63947 ,0.44588 ,4.37502 
323 ,64.7380 ,1.64143 ,0.44931 ,4.40860 
324 ,64.9300 ,1.64332 ,0.42535 ,4.17355 
325 ,65.1219 ,1.64525 ,0.42535 ,4.17355 
326 ,65.3142 ,1.64717 ,0.39797 ,3.90493 
327 ,65.5222 ,1.64927 ,0.40482 ,3.97208 
328 ,65.7143 ,1.65113 ,0.37744 ,3.70346 
329 ,65.9223 ,1.65328 ,0.38086 ,3.73703 
330 ,66.1145 ,1.65513 ,0.34664 ,3.40125 
331 ,66.3066 ,1.65711 ,0.35006 ,3.43483 
332 ,66.4987 ,1.65905 ,0.32953 ,3.23336 
333 ,66.7062 ,1.66107 ,0.31926 ,3.13263 
334 ,66.8987 ,1.66297 ,0.32611 ,3.19978 
335 ,67.1069 ,1.66511 ,0.30558 ,2.99831 
336 ,67.3148 ,1.66714 ,0.28847 ,2.83042 
337 ,67.5071 ,1.66911 ,0.27478 ,2.69611 
338 ,67.6988 ,1.67100 ,0.28162 ,2.76326 
339 ,67.9067 ,1.67308 ,0.25424 ,2.49464 
340 ,68.0987 ,1.67498 ,0.25424 ,2.49464 
341 ,68.3070 ,1.67701 ,0.24055 ,2.36032 
342 ,68.4990 ,1.67897 ,0.24398 ,2.39390 
343 ,68.7074 ,1.68110 ,0.21318 ,2.09170 
344 ,68.9312 ,1.68323 ,0.19607 ,1.92381 
345 ,69.1237 ,1.68527 ,0.20291 ,1.99096 
346 ,69.3153 ,1.68714 ,0.17211 ,1.68876 
347 ,69.5238 ,1.68913 ,0.16185 ,1.58802 
348 ,69.7160 ,1.69116 ,0.16527 ,1.62160 
349 ,69.9240 ,1.69330 ,0.16185 ,1.58802 
350 ,70.1481 ,1.69546 ,0.12762 ,1.25224 
351 ,70.3562 ,1.69757 ,0.13105 ,1.28582 
352 ,70.5483 ,1.69951 ,0.10367 ,1.01719 
353 ,70.7405 ,1.70139 ,0.11393 ,1.11793 
354 ,70.9324 ,1.70331 ,0.08656 ,0.84930 
355 ,71.1081 ,1.70522 ,0.08656 ,0.84930 
356 ,71.3006 ,1.70699 ,0.08314 ,0.81572 
357 ,71.5248 ,1.70914 ,0.06945 ,0.68141 
358 ,71.7327 ,1.71135 ,0.04207 ,0.41278 
359 ,71.9248 ,1.71320 ,0.03180 ,0.31205 
360 ,72.1168 ,1.71515 ,0.04207 ,0.41278 
361 ,72.3090 ,1.71707 ,0.01469 ,0.14416 
362 ,72.5009 ,1.71898 ,0.01469 ,0.14416 
363 ,72.6930 ,1.72094 ,0.00100 ,0.00984 
364 ,72.9014 ,1.72296 ,0.00443 ,0.04342 
365 ,73.0933 ,1.72493 ,-0.02295 ,-0.22520 
366 ,73.3010 ,1.72697 ,-0.01953 ,-0.19163 
367 ,73.4933 ,1.72895 ,-0.05033 ,-0.49383 
368 ,73.7015 ,1.73099 ,-0.05033 ,-0.49383 
369 ,73.9096 ,1.73308 ,-0.07428 ,-0.72888 
370 ,74.1016 ,1.73499 ,-0.06402 ,-0.62814 
371 ,74.3256 ,1.73728 ,-0.09140 ,-0.89677 
372 ,74.5501 ,1.73936 ,-0.07428 ,-0.72888 
373 ,74.7582 ,1.74159 ,-0.09482 ,-0.93035 
374 ,74.9664 ,1.74365 ,-0.12219 ,-1.19898 
375 ,75.1583 ,1.74558 ,-0.10851 ,-1.06466 
376 ,75.3665 ,1.74767 ,-0.14273 ,-1.40045 
377 ,75.5582 ,1.74968 ,-0.13588 ,-1.33329 
378 ,75.7505 ,1.75143 ,-0.17011 ,-1.66907 
379 ,75.9426 ,1.75341 ,-0.16326 ,-1.60191 
380 ,76.1507 ,1.75544 ,-0.18722 ,-1.83696 
381 ,76.3426 ,1.75740 ,-0.17353 ,-1.70265 
382 ,76.5348 ,1.75926 ,-0.18722 ,-1.83696 
383 ,76.7427 ,1.76135 ,-0.20775 ,-2.03843 
384 ,76.9509 ,1.76347 ,-0.22144 ,-2.17275 
385 ,77.1752 ,1.76557 ,-0.23170 ,-2.27348 
386 ,77.3672 ,1.76765 ,-0.24881 ,-2.44137 
387 ,77.5754 ,1.76974 ,-0.22486 ,-2.20632 
388 ,77.7669 ,1.77164 ,-0.27277 ,-2.67642 
389 ,77.9595 ,1.77355 ,-0.26250 ,-2.57569 
390 ,78.1510 ,1.77546 ,-0.26593 ,-2.60926 
391 ,78.3596 ,1.77747 ,-0.29673 ,-2.91147 
392 ,78.5678 ,1.77962 ,-0.29673 ,-2.91147 
393 ,78.7753 ,1.78173 ,-0.30357 ,-2.97863 
394 ,78.9678 ,1.78367 ,-0.32068 ,-3.14652 
395 ,79.1760 ,1.78572 ,-0.31726 ,-3.11294 
396 ,79.3841 ,1.78781 ,-0.35148 ,-3.44872 
397 ,79.5760 ,1.78975 ,-0.34464 ,-3.38156 
398 ,79.7680 ,1.79164 ,-0.36517 ,-3.58303 
399 ,79.9602 ,1.79355 ,-0.36517 ,-3.58303 
400 ,80.1518 ,1.79545 ,-0.37201 ,-3.65019 
401 ,80.3767 ,1.79766 ,-0.39255 ,-3.85166 
402 ,80.5846 ,1.79978 ,-0.39939 ,-3.91882 
403 ,80.7768 ,1.80173 ,-0.38570 ,-3.78450 
404 ,80.9683 ,1.80364 ,-0.42335 ,-4.15387 
405 ,81.1768 ,1.80571 ,-0.40966 ,-4.01955 
406 ,81.3685 ,1.80768 ,-0.44046 ,-4.32176 
407 ,81.5610 ,1.80956 ,-0.45757 ,-4.48965 
408 ,81.7692 ,1.81164 ,-0.45757 ,-4.48965 
409 ,81.9611 ,1.81358 ,-0.45757 ,-4.48965 
410 ,82.1532 ,1.81547 ,-0.46441 ,-4.55681 
411 ,82.3611 ,1.81759 ,-0.49179 ,-4.82543 
412 ,82.5534 ,1.81948 ,-0.48152 ,-4.72470 
413 ,82.7455 ,1.82142 ,-0.50206 ,-4.92617 
414 ,82.9375 ,1.82334 ,-0.50548 ,-4.95975 
415 ,83.1453 ,1.82540 ,-0.52259 ,-5.12764 
416 ,83.3537 ,1.82745 ,-0.51232 ,-5.02690 
417 ,83.5616 ,1.82963 ,-0.54312 ,-5.32911 
418 ,83.7700 ,1.83164 ,-0.54312 ,-5.32911 
419 ,83.9621 ,1.83356 ,-0.57050 ,-5.59773 
420 ,84.1860 ,1.83569 ,-0.55681 ,-5.46342 
421 ,84.3781 ,1.83776 ,-0.56365 ,-5.53058 
422 ,84.5863 ,1.83980 ,-0.58761 ,-5.76562 
423 ,84.7944 ,1.84191 ,-0.58419 ,-5.73205 
424 ,85.0023 ,1.84400 ,-0.61156 ,-6.00067 
425 ,85.2103 ,1.84602 ,-0.59445 ,-5.83278 
426 ,85.4024 ,1.84792 ,-0.62183 ,-6.10141 
427 ,85.5942 ,1.84989 ,-0.62868 ,-6.16856 
428 ,85.7861 ,1.85190 ,-0.64236 ,-6.30288 
429 ,85.9782 ,1.85381 ,-0.63894 ,-6.26930 
430 ,86.1708 ,1.85566 ,-0.64579 ,-6.33646 
431 ,86.3785 ,1.85771 ,-0.67316 ,-6.60508 
432 ,86.5870 ,1.85972 ,-0.65947 ,-6.47077 
433 ,86.7952 ,1.86191 ,-0.68343 ,-6.70582 
434 ,86.9871 ,1.86381 ,-0.70054 ,-6.87371 
435 ,87.1793 ,1.86576 ,-0.70739 ,-6.94086 
436 ,87.3872 ,1.86779 ,-0.70396 ,-6.90729 
437 ,87.5794 ,1.86971 ,-0.73818 ,-7.24307 
438 ,87.7714 ,1.87162 ,-0.72792 ,-7.14233 
439 ,87.9636 ,1.87356 ,-0.73476 ,-7.20949 
440 ,88.1556 ,1.87552 ,-0.73476 ,-7.20949 
441 ,88.3478 ,1.87751 ,-0.75530 ,-7.41096 
442 ,88.5397 ,1.87930 ,-0.77241 ,-7.57885 
443 ,88.7798 ,1.88172 ,-0.77925 ,-7.64601 
444 ,88.9881 ,1.88380 ,-0.77583 ,-7.61243 
445 ,89.1800 ,1.88570 ,-0.80663 ,-7.91464 
446 ,89.3724 ,1.88761 ,-0.79636 ,-7.81390 
447 ,89.5803 ,1.88977 ,-0.82032 ,-8.04895 
448 ,89.7563 ,1.89162 ,-0.79978 ,-7.84748 
449 ,89.9484 ,1.89337 ,-0.81005 ,-7.94821 
450 ,90.1404 ,1.89527 ,-0.83058 ,-8.14968 
451 ,90.3326 ,1.89724 ,-0.83401 ,-8.18326 
452 ,90.5248 ,1.89914 ,-0.85796 ,-8.41831 
453 ,90.7322 ,1.90122 ,-0.86823 ,-8.51904 
454 ,90.9248 ,1.90317 ,-0.86481 ,-8.48547 
455 ,91.1328 ,1.90527 ,-0.87507 ,-8.58620 
456 ,91.3086 ,1.90712 ,-0.87165 ,-8.55262 
457 ,91.5009 ,1.90890 ,-0.90245 ,-8.85483 
458 ,91.7092 ,1.91102 ,-0.88876 ,-8.72051 
459 ,91.9170 ,1.91301 ,-0.91614 ,-8.98914 
460 ,92.1092 ,1.91495 ,-0.91272 ,-8.95556 
461 ,92.3653 ,1.91747 ,-0.91272 ,-8.95556 
462 ,92.5734 ,1.91966 ,-0.95036 ,-9.32492 
463 ,92.7657 ,1.92158 ,-0.93667 ,-9.19061 
