Data stamp = , 01-05-2022 03:45:21 280

Calibration Values: 
Slope = , 26.54 , g/V 
Offset Voltage at no contact = , -0.501760 , V 

No , Time , Stage Position ,   Mass , Force 
   ,  (s) ,      (mm)      ,   (g)  , (mN)  

1 ,0.0000 ,0.99948 ,5.39092 ,52.89567 
2 ,0.2073 ,0.99956 ,5.38065 ,52.79493 
3 ,0.7360 ,1.00153 ,5.37723 ,52.76135 
4 ,0.9441 ,1.00372 ,5.38065 ,52.79493 
5 ,1.1680 ,1.00580 ,5.38407 ,52.82851 
6 ,1.3763 ,1.00789 ,5.37381 ,52.72778 
7 ,1.5681 ,1.00982 ,5.36696 ,52.66062 
8 ,1.7765 ,1.01192 ,5.34643 ,52.45915 
9 ,1.9842 ,1.01396 ,5.34301 ,52.42557 
10 ,2.1922 ,1.01619 ,5.30536 ,52.05621 
11 ,2.3847 ,1.01809 ,5.26087 ,51.61969 
12 ,2.5768 ,1.02000 ,5.25403 ,51.55254 
13 ,2.7688 ,1.02192 ,5.25745 ,51.58611 
14 ,2.9770 ,1.02393 ,5.22665 ,51.28391 
15 ,3.1690 ,1.02590 ,5.20612 ,51.08244 
16 ,3.3771 ,1.02799 ,5.17190 ,50.74666 
17 ,3.5687 ,1.02992 ,5.17190 ,50.74666 
18 ,3.7452 ,1.03179 ,5.14110 ,50.44445 
19 ,3.9373 ,1.03354 ,5.11714 ,50.20940 
20 ,4.1292 ,1.03555 ,5.11714 ,50.20940 
21 ,4.3215 ,1.03739 ,5.08634 ,49.90720 
22 ,4.5295 ,1.03947 ,5.08292 ,49.87362 
23 ,4.7537 ,1.04177 ,5.05554 ,49.60499 
24 ,4.9454 ,1.04368 ,5.03159 ,49.36995 
25 ,5.1375 ,1.04559 ,5.00421 ,49.10132 
26 ,5.3294 ,1.04750 ,5.00763 ,49.13490 
27 ,5.5214 ,1.04943 ,4.96315 ,48.69838 
28 ,5.7137 ,1.05134 ,4.96999 ,48.76554 
29 ,5.9058 ,1.05326 ,4.94261 ,48.49691 
30 ,6.1139 ,1.05531 ,4.91181 ,48.19471 
31 ,6.3060 ,1.05725 ,4.90839 ,48.16113 
32 ,6.4820 ,1.05918 ,4.86048 ,47.69103 
33 ,6.6741 ,1.06093 ,4.87417 ,47.82534 
34 ,6.8663 ,1.06285 ,4.86732 ,47.75819 
35 ,7.0583 ,1.06480 ,4.81257 ,47.22093 
36 ,7.2503 ,1.06673 ,4.81599 ,47.25451 
37 ,7.4423 ,1.06861 ,4.80230 ,47.12020 
38 ,7.6345 ,1.07055 ,4.76808 ,46.78442 
39 ,7.8426 ,1.07263 ,4.75439 ,46.65010 
40 ,8.0347 ,1.07454 ,4.74755 ,46.58295 
41 ,8.2267 ,1.07645 ,4.74070 ,46.51579 
42 ,8.4028 ,1.07837 ,4.69622 ,46.07927 
43 ,8.5948 ,1.08011 ,4.68595 ,45.97854 
44 ,8.7870 ,1.08205 ,4.68253 ,45.94496 
45 ,8.9950 ,1.08409 ,4.66199 ,45.74349 
46 ,9.1872 ,1.08604 ,4.65173 ,45.64275 
47 ,9.3633 ,1.08796 ,4.62777 ,45.40771 
48 ,9.5553 ,1.08980 ,4.59355 ,45.07192 
49 ,9.7476 ,1.09167 ,4.60724 ,45.20624 
50 ,9.9396 ,1.09359 ,4.56960 ,44.83688 
51 ,10.1318 ,1.09550 ,4.56275 ,44.76972 
52 ,10.3400 ,1.09753 ,4.53537 ,44.50109 
53 ,10.5479 ,1.09970 ,4.51826 ,44.33320 
54 ,10.7402 ,1.10159 ,4.49089 ,44.06457 
55 ,10.9478 ,1.10365 ,4.49089 ,44.06457 
56 ,11.1403 ,1.10559 ,4.45324 ,43.69521 
57 ,11.3483 ,1.10755 ,4.46009 ,43.76237 
58 ,11.5565 ,1.10972 ,4.42244 ,43.39301 
59 ,11.7485 ,1.11166 ,4.41560 ,43.32585 
60 ,11.9406 ,1.11365 ,4.39507 ,43.12438 
61 ,12.1327 ,1.11550 ,4.37795 ,42.95649 
62 ,12.3408 ,1.11751 ,4.36084 ,42.78860 
63 ,12.5490 ,1.11969 ,4.36084 ,42.78860 
64 ,12.7406 ,1.12165 ,4.33004 ,42.48639 
65 ,12.9331 ,1.12351 ,4.30951 ,42.28492 
66 ,13.1248 ,1.12547 ,4.30267 ,42.21777 
67 ,13.3173 ,1.12735 ,4.26845 ,41.88198 
68 ,13.5253 ,1.12943 ,4.26845 ,41.88198 
69 ,13.7174 ,1.13134 ,4.23765 ,41.57978 
70 ,13.9094 ,1.13325 ,4.23422 ,41.54620 
71 ,14.1336 ,1.13532 ,4.20342 ,41.24400 
72 ,14.3417 ,1.13762 ,4.16920 ,40.90821 
73 ,14.5497 ,1.13965 ,4.17605 ,40.97537 
74 ,14.7418 ,1.14163 ,4.14867 ,40.70674 
75 ,14.9500 ,1.14366 ,4.15209 ,40.74032 
76 ,15.1419 ,1.14561 ,4.12814 ,40.50527 
77 ,15.3336 ,1.14752 ,4.11445 ,40.37096 
78 ,15.5262 ,1.14944 ,4.07338 ,39.96802 
79 ,15.7343 ,1.15154 ,4.06312 ,39.86729 
80 ,15.9422 ,1.15357 ,4.04943 ,39.73297 
81 ,16.1344 ,1.15546 ,4.02889 ,39.53150 
82 ,16.3263 ,1.15742 ,4.02205 ,39.46435 
83 ,16.5182 ,1.15931 ,3.99125 ,39.16214 
84 ,16.7265 ,1.16148 ,3.99467 ,39.19572 
85 ,16.9347 ,1.16351 ,3.95361 ,38.79278 
86 ,17.1265 ,1.16546 ,3.94676 ,38.72562 
87 ,17.3348 ,1.16749 ,3.93307 ,38.59131 
88 ,17.5266 ,1.16946 ,3.91938 ,38.45700 
89 ,17.7190 ,1.17138 ,3.88516 ,38.12122 
90 ,17.9109 ,1.17339 ,3.88858 ,38.15479 
91 ,18.1032 ,1.17520 ,3.86463 ,37.91975 
92 ,18.3114 ,1.17720 ,3.84067 ,37.68470 
93 ,18.5031 ,1.17924 ,3.83041 ,37.58396 
94 ,18.7110 ,1.18128 ,3.81330 ,37.41607 
95 ,18.9035 ,1.18323 ,3.80303 ,37.31534 
96 ,19.0955 ,1.18515 ,3.77565 ,37.04671 
97 ,19.2875 ,1.18702 ,3.75854 ,36.87882 
98 ,19.4797 ,1.18896 ,3.72774 ,36.57661 
99 ,19.6878 ,1.19106 ,3.73801 ,36.67735 
100 ,19.8800 ,1.19301 ,3.69010 ,36.20725 
101 ,20.0878 ,1.19506 ,3.71063 ,36.40872 
102 ,20.2962 ,1.19709 ,3.67299 ,36.03936 
103 ,20.4882 ,1.19906 ,3.66272 ,35.93863 
104 ,20.6803 ,1.20095 ,3.63534 ,35.67000 
105 ,20.8718 ,1.20301 ,3.62508 ,35.56926 
106 ,21.0644 ,1.20487 ,3.61139 ,35.43495 
107 ,21.2725 ,1.20690 ,3.60112 ,35.33422 
108 ,21.4646 ,1.20882 ,3.57375 ,35.06559 
109 ,21.6567 ,1.21073 ,3.54979 ,34.83054 
110 ,21.8487 ,1.21263 ,3.56006 ,34.93128 
111 ,22.0566 ,1.21474 ,3.52584 ,34.59549 
112 ,22.2647 ,1.21678 ,3.51557 ,34.49476 
113 ,22.4567 ,1.21872 ,3.48477 ,34.19255 
114 ,22.6490 ,1.22062 ,3.49161 ,34.25971 
115 ,22.8410 ,1.22260 ,3.45739 ,33.92393 
116 ,23.0327 ,1.22448 ,3.44370 ,33.78961 
117 ,23.2252 ,1.22642 ,3.43001 ,33.65530 
118 ,23.4333 ,1.22852 ,3.40264 ,33.38667 
119 ,23.6413 ,1.23053 ,3.38210 ,33.18520 
120 ,23.8334 ,1.23252 ,3.39237 ,33.28594 
121 ,24.0255 ,1.23442 ,3.37184 ,33.08447 
122 ,24.2334 ,1.23646 ,3.35473 ,32.91658 
123 ,24.4416 ,1.23857 ,3.33077 ,32.68153 
124 ,24.6337 ,1.24045 ,3.31708 ,32.54722 
125 ,24.8415 ,1.24244 ,3.29655 ,32.34575 
126 ,25.0499 ,1.24465 ,3.29313 ,32.31217 
127 ,25.2415 ,1.24652 ,3.25548 ,31.94281 
128 ,25.4341 ,1.24853 ,3.23837 ,31.77492 
129 ,25.6422 ,1.25054 ,3.22468 ,31.64060 
130 ,25.8341 ,1.25248 ,3.21442 ,31.53987 
131 ,26.0259 ,1.25439 ,3.20757 ,31.47271 
132 ,26.2344 ,1.25647 ,3.17677 ,31.17051 
133 ,26.4104 ,1.25837 ,3.14597 ,30.86830 
134 ,26.6026 ,1.26010 ,3.13571 ,30.76757 
135 ,26.8107 ,1.26229 ,3.14255 ,30.83472 
136 ,27.0188 ,1.26436 ,3.11175 ,30.53252 
137 ,27.2266 ,1.26640 ,3.09122 ,30.33105 
138 ,27.4184 ,1.26825 ,3.07753 ,30.19674 
139 ,27.6110 ,1.27029 ,3.07411 ,30.16316 
140 ,27.8186 ,1.27227 ,3.05015 ,29.92811 
141 ,27.9951 ,1.27415 ,3.04331 ,29.86095 
142 ,28.1868 ,1.27597 ,3.02962 ,29.72664 
143 ,28.3793 ,1.27785 ,2.99540 ,29.39086 
144 ,28.5872 ,1.27992 ,2.98855 ,29.32370 
145 ,28.7953 ,1.28204 ,2.97829 ,29.22297 
146 ,28.9874 ,1.28398 ,2.95091 ,28.95434 
147 ,29.1794 ,1.28591 ,2.93038 ,28.75287 
148 ,29.3717 ,1.28784 ,2.93038 ,28.75287 
149 ,29.5795 ,1.28992 ,2.89616 ,28.41709 
150 ,29.7718 ,1.29186 ,2.89616 ,28.41709 
151 ,29.9640 ,1.29389 ,2.87562 ,28.21562 
152 ,30.1879 ,1.29599 ,2.85851 ,28.04772 
153 ,30.3960 ,1.29808 ,2.84825 ,27.94699 
154 ,30.5879 ,1.29998 ,2.82087 ,27.67836 
155 ,30.7798 ,1.30190 ,2.81060 ,27.57763 
156 ,30.9882 ,1.30390 ,2.79691 ,27.44332 
157 ,31.1964 ,1.30610 ,2.78322 ,27.30900 
158 ,31.3883 ,1.30798 ,2.76954 ,27.17469 
159 ,31.5806 ,1.30989 ,2.74558 ,26.93964 
160 ,31.7724 ,1.31190 ,2.73874 ,26.87248 
161 ,31.9807 ,1.31391 ,2.70452 ,26.53670 
162 ,32.1724 ,1.31584 ,2.71820 ,26.67101 
163 ,32.3807 ,1.31779 ,2.68056 ,26.30165 
164 ,32.5726 ,1.31986 ,2.67714 ,26.26807 
165 ,32.7652 ,1.32176 ,2.65318 ,26.03303 
166 ,32.9406 ,1.32365 ,2.64292 ,25.93229 
167 ,33.1331 ,1.32546 ,2.63607 ,25.86514 
168 ,33.3411 ,1.32757 ,2.60185 ,25.52935 
169 ,33.5493 ,1.32951 ,2.60185 ,25.52935 
170 ,33.7413 ,1.33155 ,2.57447 ,25.26073 
171 ,33.9334 ,1.33345 ,2.57789 ,25.29430 
172 ,34.1253 ,1.33533 ,2.53341 ,24.85779 
173 ,34.3175 ,1.33728 ,2.53683 ,24.89136 
174 ,34.5096 ,1.33914 ,2.51972 ,24.72347 
175 ,34.7018 ,1.34114 ,2.51972 ,24.72347 
176 ,34.8940 ,1.34306 ,2.49918 ,24.52200 
177 ,35.1015 ,1.34516 ,2.46496 ,24.18622 
178 ,35.2941 ,1.34709 ,2.47181 ,24.25338 
179 ,35.5021 ,1.34911 ,2.43416 ,23.88402 
180 ,35.6943 ,1.35107 ,2.44101 ,23.95117 
181 ,35.9023 ,1.35317 ,2.39310 ,23.48108 
182 ,36.0945 ,1.35505 ,2.41021 ,23.64897 
183 ,36.2863 ,1.35694 ,2.37941 ,23.34676 
184 ,36.4625 ,1.35884 ,2.36914 ,23.24603 
185 ,36.6547 ,1.36064 ,2.36914 ,23.24603 
186 ,36.8630 ,1.36271 ,2.33834 ,22.94382 
187 ,37.0709 ,1.36474 ,2.31439 ,22.70877 
188 ,37.2631 ,1.36676 ,2.30070 ,22.57446 
189 ,37.4711 ,1.36883 ,2.30070 ,22.57446 
190 ,37.6790 ,1.37085 ,2.26990 ,22.27226 
191 ,37.8871 ,1.37296 ,2.25621 ,22.13794 
192 ,38.0790 ,1.37483 ,2.24594 ,22.03721 
193 ,38.2713 ,1.37676 ,2.24594 ,22.03721 
194 ,38.4629 ,1.37873 ,2.20488 ,21.63427 
195 ,38.6551 ,1.38066 ,2.20488 ,21.63427 
196 ,38.8470 ,1.38251 ,2.17408 ,21.33206 
197 ,39.0232 ,1.38443 ,2.18092 ,21.39922 
198 ,39.2156 ,1.38627 ,2.17408 ,21.33206 
199 ,39.4237 ,1.38834 ,2.12617 ,20.86197 
200 ,39.6157 ,1.39026 ,2.13986 ,20.99628 
201 ,39.8240 ,1.39232 ,2.10906 ,20.69408 
202 ,40.0161 ,1.39427 ,2.11248 ,20.72766 
203 ,40.2079 ,1.39613 ,2.08168 ,20.42545 
204 ,40.4002 ,1.39804 ,2.07484 ,20.35829 
205 ,40.6078 ,1.40011 ,2.05773 ,20.19040 
206 ,40.8001 ,1.40207 ,2.05088 ,20.12325 
207 ,40.9924 ,1.40403 ,2.04061 ,20.02251 
208 ,41.2325 ,1.40640 ,2.01324 ,19.75388 
209 ,41.4244 ,1.40832 ,1.98244 ,19.45168 
210 ,41.6486 ,1.41048 ,1.98244 ,19.45168 
211 ,41.8406 ,1.41249 ,1.96533 ,19.28379 
212 ,42.0329 ,1.41441 ,1.97217 ,19.35094 
213 ,42.2249 ,1.41635 ,1.93795 ,19.01516 
214 ,42.4330 ,1.41844 ,1.93111 ,18.94801 
215 ,42.6411 ,1.42049 ,1.90031 ,18.64580 
216 ,42.8327 ,1.42241 ,1.89346 ,18.57864 
217 ,43.0252 ,1.42429 ,1.86266 ,18.27644 
218 ,43.2333 ,1.42638 ,1.87293 ,18.37717 
219 ,43.4254 ,1.42830 ,1.84555 ,18.10855 
220 ,43.6495 ,1.43050 ,1.84555 ,18.10855 
221 ,43.8416 ,1.43246 ,1.82502 ,17.90708 
222 ,44.0492 ,1.43453 ,1.79422 ,17.60487 
223 ,44.2574 ,1.43664 ,1.79080 ,17.57129 
224 ,44.4498 ,1.43852 ,1.76684 ,17.33625 
225 ,44.6420 ,1.44052 ,1.76000 ,17.26909 
226 ,44.8340 ,1.44246 ,1.75315 ,17.20193 
227 ,45.0421 ,1.44447 ,1.71893 ,16.86615 
228 ,45.2341 ,1.44641 ,1.72578 ,16.93331 
229 ,45.4261 ,1.44829 ,1.69155 ,16.59752 
230 ,45.6181 ,1.45027 ,1.69498 ,16.63110 
231 ,45.8104 ,1.45212 ,1.67444 ,16.42963 
232 ,46.0184 ,1.45425 ,1.67444 ,16.42963 
233 ,46.2426 ,1.45639 ,1.66075 ,16.29532 
234 ,46.4504 ,1.45858 ,1.62995 ,15.99311 
235 ,46.6587 ,1.46060 ,1.61969 ,15.89238 
236 ,46.8506 ,1.46260 ,1.59916 ,15.69091 
237 ,47.0426 ,1.46452 ,1.60942 ,15.79164 
238 ,47.2671 ,1.46671 ,1.56493 ,15.35513 
239 ,47.4749 ,1.46879 ,1.55467 ,15.25439 
240 ,47.6672 ,1.47075 ,1.52729 ,14.98577 
241 ,47.8594 ,1.47270 ,1.54440 ,15.15366 
242 ,48.0513 ,1.47458 ,1.52387 ,14.95219 
243 ,48.2590 ,1.47669 ,1.51360 ,14.85145 
244 ,48.4353 ,1.47853 ,1.47938 ,14.51567 
245 ,48.6435 ,1.48048 ,1.48280 ,14.54925 
246 ,48.8355 ,1.48239 ,1.48280 ,14.54925 
247 ,49.0276 ,1.48432 ,1.43831 ,14.11273 
248 ,49.2195 ,1.48624 ,1.44858 ,14.21346 
249 ,49.4115 ,1.48815 ,1.43489 ,14.07915 
250 ,49.6038 ,1.49004 ,1.41094 ,13.84410 
251 ,49.7960 ,1.49201 ,1.40067 ,13.74337 
252 ,49.9880 ,1.49395 ,1.38698 ,13.60906 
253 ,50.1640 ,1.49582 ,1.38356 ,13.57548 
254 ,50.3563 ,1.49765 ,1.39040 ,13.64263 
255 ,50.5481 ,1.49949 ,1.33907 ,13.13896 
256 ,50.7403 ,1.50149 ,1.34249 ,13.17254 
257 ,50.9324 ,1.50338 ,1.32196 ,12.97107 
258 ,51.1245 ,1.50533 ,1.31169 ,12.87033 
259 ,51.3485 ,1.50740 ,1.28774 ,12.63528 
260 ,51.5243 ,1.50939 ,1.27747 ,12.53455 
261 ,51.7168 ,1.51127 ,1.27405 ,12.50097 
262 ,51.9247 ,1.51323 ,1.26036 ,12.36666 
263 ,52.1164 ,1.51516 ,1.24667 ,12.23235 
264 ,52.3245 ,1.51727 ,1.21929 ,11.96372 
265 ,52.5166 ,1.51924 ,1.21245 ,11.89656 
266 ,52.7248 ,1.52122 ,1.19876 ,11.76225 
267 ,52.9492 ,1.52341 ,1.18507 ,11.62794 
268 ,53.1568 ,1.52558 ,1.18165 ,11.59436 
269 ,53.3494 ,1.52753 ,1.14058 ,11.19142 
270 ,53.5410 ,1.52952 ,1.14743 ,11.25857 
271 ,53.7332 ,1.53137 ,1.13716 ,11.15784 
272 ,53.9412 ,1.53345 ,1.13032 ,11.09068 
273 ,54.1333 ,1.53539 ,1.10636 ,10.85563 
274 ,54.3254 ,1.53728 ,1.08583 ,10.65416 
275 ,54.5174 ,1.53924 ,1.08583 ,10.65416 
276 ,54.7253 ,1.54123 ,1.05845 ,10.38554 
277 ,54.9175 ,1.54319 ,1.06187 ,10.41912 
278 ,55.1098 ,1.54514 ,1.03792 ,10.18407 
279 ,55.3823 ,1.54772 ,1.03108 ,10.11691 
280 ,55.5901 ,1.54983 ,1.00370 ,9.84829 
281 ,55.7983 ,1.55199 ,1.01396 ,9.94902 
282 ,55.9902 ,1.55394 ,0.96948 ,9.51250 
283 ,56.2146 ,1.55609 ,0.97974 ,9.61324 
284 ,56.4226 ,1.55827 ,0.96605 ,9.47892 
285 ,56.6148 ,1.56011 ,0.95579 ,9.37819 
286 ,56.8068 ,1.56206 ,0.92841 ,9.10956 
287 ,56.9986 ,1.56399 ,0.93183 ,9.14314 
288 ,57.1910 ,1.56590 ,0.91130 ,8.94167 
289 ,57.3831 ,1.56786 ,0.91130 ,8.94167 
290 ,57.5912 ,1.56995 ,0.87708 ,8.60589 
291 ,57.7832 ,1.57187 ,0.89077 ,8.74020 
292 ,57.9753 ,1.57378 ,0.85997 ,8.43800 
293 ,58.1831 ,1.57576 ,0.83943 ,8.23653 
294 ,58.3913 ,1.57786 ,0.82232 ,8.06864 
295 ,58.5995 ,1.57995 ,0.82232 ,8.06864 
296 ,58.7915 ,1.58194 ,0.80521 ,7.90074 
297 ,58.9997 ,1.58390 ,0.79152 ,7.76643 
298 ,59.2235 ,1.58613 ,0.78126 ,7.66570 
299 ,59.4158 ,1.58820 ,0.76415 ,7.49780 
300 ,59.6077 ,1.59008 ,0.74361 ,7.29633 
301 ,59.8001 ,1.59204 ,0.76072 ,7.46423 
302 ,60.0079 ,1.59407 ,0.71966 ,7.06129 
303 ,60.2002 ,1.59599 ,0.72308 ,7.09486 
304 ,60.3919 ,1.59805 ,0.70597 ,6.92697 
305 ,60.5843 ,1.59989 ,0.69913 ,6.85982 
306 ,60.7924 ,1.60193 ,0.67859 ,6.65835 
307 ,60.9846 ,1.60385 ,0.66833 ,6.55761 
308 ,61.1927 ,1.60594 ,0.63068 ,6.18825 
309 ,61.4006 ,1.60790 ,0.65464 ,6.42330 
310 ,61.5926 ,1.60993 ,0.63068 ,6.18825 
311 ,61.7849 ,1.61182 ,0.61699 ,6.05394 
312 ,61.9765 ,1.61378 ,0.62384 ,6.12109 
313 ,62.1850 ,1.61576 ,0.58277 ,5.71815 
314 ,62.3930 ,1.61790 ,0.57935 ,5.68458 
315 ,62.5851 ,1.61981 ,0.56566 ,5.55026 
316 ,62.7774 ,1.62176 ,0.55882 ,5.48311 
317 ,62.9853 ,1.62385 ,0.54513 ,5.34879 
318 ,63.1772 ,1.62576 ,0.54171 ,5.31522 
319 ,63.3853 ,1.62784 ,0.53486 ,5.24806 
320 ,63.5937 ,1.62991 ,0.50748 ,4.97943 
321 ,63.7855 ,1.63184 ,0.50406 ,4.94585 
322 ,63.9779 ,1.63377 ,0.48695 ,4.77796 
323 ,64.1856 ,1.63586 ,0.47668 ,4.67723 
324 ,64.3780 ,1.63777 ,0.48011 ,4.71081 
325 ,64.5701 ,1.63965 ,0.45273 ,4.44218 
326 ,64.7777 ,1.64175 ,0.44246 ,4.34144 
327 ,64.9701 ,1.64373 ,0.41166 ,4.03924 
328 ,65.1780 ,1.64577 ,0.42193 ,4.13997 
329 ,65.3862 ,1.64787 ,0.41166 ,4.03924 
330 ,65.5783 ,1.64972 ,0.39797 ,3.90493 
331 ,65.7704 ,1.65161 ,0.39113 ,3.83777 
332 ,65.9460 ,1.65352 ,0.39455 ,3.87135 
333 ,66.1384 ,1.65533 ,0.36718 ,3.60272 
334 ,66.3467 ,1.65743 ,0.36375 ,3.56914 
335 ,66.5549 ,1.65947 ,0.34322 ,3.36767 
336 ,66.7629 ,1.66158 ,0.33638 ,3.30052 
337 ,66.9708 ,1.66365 ,0.30900 ,3.03189 
338 ,67.1467 ,1.66558 ,0.32269 ,3.16620 
339 ,67.3553 ,1.66753 ,0.28162 ,2.76326 
340 ,67.5470 ,1.66943 ,0.27820 ,2.72969 
341 ,67.7391 ,1.67138 ,0.27478 ,2.69611 
342 ,67.9314 ,1.67327 ,0.24740 ,2.42748 
343 ,68.1389 ,1.67530 ,0.26793 ,2.62895 
344 ,68.3316 ,1.67727 ,0.23371 ,2.29317 
345 ,68.5394 ,1.67938 ,0.23713 ,2.32675 
346 ,68.7318 ,1.68126 ,0.20976 ,2.05812 
347 ,68.9238 ,1.68323 ,0.20291 ,1.99096 
348 ,69.1318 ,1.68533 ,0.17896 ,1.75592 
349 ,69.3240 ,1.68724 ,0.18922 ,1.85665 
350 ,69.5321 ,1.68928 ,0.16527 ,1.62160 
351 ,69.7241 ,1.69122 ,0.16185 ,1.58802 
352 ,69.9320 ,1.69329 ,0.14816 ,1.45371 
353 ,70.1243 ,1.69521 ,0.14131 ,1.38655 
354 ,70.3159 ,1.69708 ,0.12762 ,1.25224 
355 ,70.5085 ,1.69906 ,0.12078 ,1.18508 
356 ,70.7163 ,1.70111 ,0.10709 ,1.05077 
357 ,70.9082 ,1.70299 ,0.09340 ,0.91646 
358 ,71.1162 ,1.70511 ,0.10709 ,1.05077 
359 ,71.3087 ,1.70706 ,0.06945 ,0.68141 
360 ,71.5164 ,1.70912 ,0.07629 ,0.74857 
361 ,71.7087 ,1.71105 ,0.05234 ,0.51352 
362 ,71.9008 ,1.71296 ,0.05918 ,0.58067 
363 ,72.0928 ,1.71490 ,0.03180 ,0.31205 
364 ,72.2850 ,1.71683 ,0.02496 ,0.24489 
365 ,72.4927 ,1.71884 ,0.00100 ,0.00984 
366 ,72.6850 ,1.72082 ,0.00443 ,0.04342 
367 ,72.9092 ,1.72290 ,-0.01953 ,-0.19163 
368 ,73.1013 ,1.72499 ,-0.01269 ,-0.12447 
369 ,73.2934 ,1.72696 ,-0.03664 ,-0.35952 
370 ,73.5016 ,1.72897 ,-0.02295 ,-0.22520 
371 ,73.7096 ,1.73107 ,-0.05033 ,-0.49383 
372 ,73.9175 ,1.73312 ,-0.05717 ,-0.56099 
373 ,74.1254 ,1.73525 ,-0.06402 ,-0.62814 
374 ,74.3179 ,1.73710 ,-0.08455 ,-0.82961 
375 ,74.5259 ,1.73918 ,-0.08797 ,-0.86319 
376 ,74.7180 ,1.74111 ,-0.10166 ,-0.99751 
377 ,74.9101 ,1.74302 ,-0.11877 ,-1.16540 
378 ,75.1022 ,1.74499 ,-0.11535 ,-1.13182 
379 ,75.2943 ,1.74688 ,-0.13588 ,-1.33329 
380 ,75.4863 ,1.74882 ,-0.12562 ,-1.23255 
381 ,75.6783 ,1.75071 ,-0.13931 ,-1.36687 
382 ,75.8705 ,1.75264 ,-0.17695 ,-1.73623 
383 ,76.0784 ,1.75468 ,-0.17353 ,-1.70265 
384 ,76.2708 ,1.75668 ,-0.18037 ,-1.76981 
385 ,76.4788 ,1.75876 ,-0.19406 ,-1.90412 
386 ,76.6867 ,1.76076 ,-0.19406 ,-1.90412 
387 ,76.8784 ,1.76271 ,-0.21459 ,-2.10559 
388 ,77.0711 ,1.76468 ,-0.22486 ,-2.20632 
389 ,77.2632 ,1.76659 ,-0.21802 ,-2.13917 
390 ,77.4872 ,1.76882 ,-0.24539 ,-2.40779 
391 ,77.6949 ,1.77090 ,-0.25908 ,-2.54211 
392 ,77.8871 ,1.77281 ,-0.27277 ,-2.67642 
393 ,78.0792 ,1.77473 ,-0.26250 ,-2.57569 
394 ,78.2715 ,1.77666 ,-0.28646 ,-2.81073 
395 ,78.4794 ,1.77876 ,-0.27961 ,-2.74358 
396 ,78.6874 ,1.78075 ,-0.28988 ,-2.84431 
397 ,78.8793 ,1.78274 ,-0.31384 ,-3.07936 
398 ,79.0713 ,1.78463 ,-0.32752 ,-3.21367 
399 ,79.2637 ,1.78656 ,-0.31726 ,-3.11294 
400 ,79.4880 ,1.78881 ,-0.34464 ,-3.38156 
401 ,79.6801 ,1.79078 ,-0.35832 ,-3.51588 
402 ,79.8877 ,1.79278 ,-0.36175 ,-3.54946 
403 ,80.0802 ,1.79469 ,-0.36175 ,-3.54946 
404 ,80.2723 ,1.79666 ,-0.38912 ,-3.81808 
405 ,80.4803 ,1.79873 ,-0.37544 ,-3.68377 
406 ,80.7044 ,1.80085 ,-0.39597 ,-3.88524 
407 ,80.9283 ,1.80308 ,-0.41308 ,-4.05313 
408 ,81.1205 ,1.80511 ,-0.40966 ,-4.01955 
409 ,81.3286 ,1.80721 ,-0.43019 ,-4.22102 
410 ,81.5206 ,1.80913 ,-0.43703 ,-4.28818 
411 ,81.7128 ,1.81103 ,-0.45414 ,-4.45607 
412 ,81.9208 ,1.81308 ,-0.45072 ,-4.42249 
413 ,82.1289 ,1.81521 ,-0.46441 ,-4.55681 
414 ,82.3208 ,1.81715 ,-0.47810 ,-4.69112 
415 ,82.5130 ,1.81904 ,-0.50890 ,-4.99332 
416 ,82.7050 ,1.82101 ,-0.48494 ,-4.75828 
417 ,82.8971 ,1.82289 ,-0.50890 ,-4.99332 
418 ,83.1050 ,1.82495 ,-0.50548 ,-4.95975 
419 ,83.2971 ,1.82686 ,-0.51574 ,-5.06048 
420 ,83.4730 ,1.82877 ,-0.55339 ,-5.42984 
421 ,83.6655 ,1.83054 ,-0.54312 ,-5.32911 
422 ,83.8572 ,1.83248 ,-0.54654 ,-5.36268 
423 ,84.0498 ,1.83439 ,-0.56365 ,-5.53058 
424 ,84.2418 ,1.83639 ,-0.56023 ,-5.49700 
425 ,84.4499 ,1.83844 ,-0.59103 ,-5.79920 
426 ,84.6419 ,1.84035 ,-0.58077 ,-5.69847 
427 ,84.8499 ,1.84235 ,-0.60130 ,-5.89994 
428 ,85.0419 ,1.84430 ,-0.60472 ,-5.93352 
429 ,85.2503 ,1.84643 ,-0.61841 ,-6.06783 
430 ,85.4420 ,1.84837 ,-0.61156 ,-6.00067 
431 ,85.6342 ,1.85024 ,-0.65263 ,-6.40361 
432 ,85.8584 ,1.85239 ,-0.62868 ,-6.16856 
433 ,86.0506 ,1.85439 ,-0.65947 ,-6.47077 
434 ,86.2907 ,1.85682 ,-0.66632 ,-6.53793 
435 ,86.4828 ,1.85873 ,-0.66290 ,-6.50435 
436 ,86.6908 ,1.86080 ,-0.69027 ,-6.77297 
437 ,86.8828 ,1.86271 ,-0.67316 ,-6.60508 
438 ,87.0909 ,1.86483 ,-0.70739 ,-6.94086 
439 ,87.2827 ,1.86666 ,-0.70054 ,-6.87371 
440 ,87.4751 ,1.86863 ,-0.72792 ,-7.14233 
441 ,87.6673 ,1.87053 ,-0.71765 ,-7.04160 
442 ,87.8589 ,1.87261 ,-0.74503 ,-7.31023 
443 ,88.0675 ,1.87452 ,-0.73818 ,-7.24307 
444 ,88.2754 ,1.87666 ,-0.76898 ,-7.54527 
445 ,88.4675 ,1.87856 ,-0.76898 ,-7.54527 
446 ,88.6597 ,1.88051 ,-0.76556 ,-7.51170 
447 ,88.8517 ,1.88245 ,-0.78610 ,-7.71317 
448 ,89.0277 ,1.88430 ,-0.78610 ,-7.71317 
449 ,89.2038 ,1.88603 ,-0.79294 ,-7.78032 
450 ,89.4120 ,1.88790 ,-0.80663 ,-7.91464 
451 ,89.6039 ,1.88994 ,-0.80321 ,-7.88106 
452 ,89.8121 ,1.89200 ,-0.82716 ,-8.11611 
453 ,90.0200 ,1.89401 ,-0.82374 ,-8.08253 
454 ,90.2282 ,1.89609 ,-0.84085 ,-8.25042 
455 ,90.4042 ,1.89807 ,-0.85454 ,-8.38473 
456 ,90.5964 ,1.89987 ,-0.86138 ,-8.45189 
457 ,90.7884 ,1.90175 ,-0.87165 ,-8.55262 
458 ,90.9805 ,1.90371 ,-0.86823 ,-8.51904 
459 ,91.1722 ,1.90564 ,-0.88876 ,-8.72051 
460 ,91.3802 ,1.90766 ,-0.88192 ,-8.65336 
461 ,91.5726 ,1.90960 ,-0.89903 ,-8.82125 
462 ,91.7649 ,1.91151 ,-0.89560 ,-8.78767 
463 ,91.9569 ,1.91344 ,-0.92983 ,-9.12345 
