Data stamp = , 01-05-2022 15:49:55 090

Calibration Values: 
Slope = , 26.54 , g/V 
Offset Voltage at no contact = , -0.501760 , V 

No , Time , Stage Position ,   Mass , Force 
   ,  (s) ,      (mm)      ,   (g)  , (mN)  

1 ,0.0000 ,0.99948 ,5.33958 ,52.39199 
2 ,0.2037 ,0.99953 ,5.35669 ,52.55988 
3 ,0.7325 ,1.00157 ,5.37038 ,52.69420 
4 ,0.9408 ,1.00369 ,5.37038 ,52.69420 
5 ,1.1487 ,1.00558 ,5.33958 ,52.39199 
6 ,1.3408 ,1.00767 ,5.34985 ,52.49273 
7 ,1.5488 ,1.00965 ,5.30536 ,52.05621 
8 ,1.7408 ,1.01165 ,5.31563 ,52.15694 
9 ,1.9327 ,1.01358 ,5.28483 ,51.85474 
10 ,2.1251 ,1.01546 ,5.28141 ,51.82116 
11 ,2.3167 ,1.01742 ,5.25745 ,51.58611 
12 ,2.5093 ,1.01933 ,5.23350 ,51.35107 
13 ,2.7172 ,1.02144 ,5.23692 ,51.38464 
14 ,2.9094 ,1.02332 ,5.19243 ,50.94813 
15 ,3.1015 ,1.02524 ,5.18901 ,50.91455 
16 ,3.2935 ,1.02718 ,5.14110 ,50.44445 
17 ,3.5015 ,1.02928 ,5.15479 ,50.57876 
18 ,3.7096 ,1.03125 ,5.11030 ,50.14225 
19 ,3.9015 ,1.03328 ,5.10688 ,50.10867 
20 ,4.0939 ,1.03521 ,5.06581 ,49.70573 
21 ,4.2856 ,1.03709 ,5.06923 ,49.73931 
22 ,4.5256 ,1.03940 ,5.03159 ,49.36995 
23 ,4.7338 ,1.04147 ,5.04185 ,49.47068 
24 ,4.9419 ,1.04358 ,5.01448 ,49.20205 
25 ,5.1340 ,1.04558 ,4.98368 ,48.89985 
26 ,5.3263 ,1.04746 ,4.95630 ,48.63122 
27 ,5.5185 ,1.04944 ,4.94603 ,48.53049 
28 ,5.7261 ,1.05147 ,4.92550 ,48.32902 
29 ,5.9187 ,1.05345 ,4.89812 ,48.06039 
30 ,6.1267 ,1.05547 ,4.89812 ,48.06039 
31 ,6.3188 ,1.05746 ,4.86732 ,47.75819 
32 ,6.5265 ,1.05944 ,4.84679 ,47.55672 
33 ,6.7186 ,1.06139 ,4.83652 ,47.45598 
34 ,6.9268 ,1.06337 ,4.81599 ,47.25451 
35 ,7.1193 ,1.06542 ,4.79888 ,47.08662 
36 ,7.3273 ,1.06741 ,4.78519 ,46.95231 
37 ,7.5515 ,1.06957 ,4.75782 ,46.68368 
38 ,7.7431 ,1.07164 ,4.74755 ,46.58295 
39 ,7.9354 ,1.07362 ,4.72017 ,46.31432 
40 ,8.1435 ,1.07568 ,4.69964 ,46.11285 
41 ,8.3356 ,1.07759 ,4.68595 ,45.97854 
42 ,8.5434 ,1.07963 ,4.66884 ,45.81065 
43 ,8.7356 ,1.08156 ,4.63462 ,45.47486 
44 ,8.9600 ,1.08381 ,4.62777 ,45.40771 
45 ,9.1681 ,1.08584 ,4.60724 ,45.20624 
46 ,9.3602 ,1.08788 ,4.57986 ,44.93761 
47 ,9.5522 ,1.08973 ,4.56617 ,44.80330 
48 ,9.7447 ,1.09161 ,4.56275 ,44.76972 
49 ,9.9361 ,1.09368 ,4.52511 ,44.40036 
50 ,10.1284 ,1.09551 ,4.52511 ,44.40036 
51 ,10.3526 ,1.09760 ,4.49431 ,44.09815 
52 ,10.5606 ,1.09984 ,4.48062 ,43.96384 
53 ,10.7686 ,1.10190 ,4.46693 ,43.82953 
54 ,10.9607 ,1.10379 ,4.44982 ,43.66163 
55 ,11.1364 ,1.10569 ,4.42586 ,43.42659 
56 ,11.3451 ,1.10754 ,4.41218 ,43.29227 
57 ,11.5371 ,1.10959 ,4.38138 ,42.99007 
58 ,11.7448 ,1.11163 ,4.39507 ,43.12438 
59 ,11.9372 ,1.11354 ,4.35400 ,42.72144 
60 ,12.1448 ,1.11564 ,4.35058 ,42.68786 
61 ,12.3372 ,1.11757 ,4.30951 ,42.28492 
62 ,12.5293 ,1.11949 ,4.30609 ,42.25135 
63 ,12.7212 ,1.12146 ,4.29924 ,42.18419 
64 ,12.9294 ,1.12337 ,4.27187 ,41.91556 
65 ,13.1217 ,1.12541 ,4.26160 ,41.81483 
66 ,13.3295 ,1.12755 ,4.22396 ,41.44547 
67 ,13.5378 ,1.12955 ,4.22396 ,41.44547 
68 ,13.7298 ,1.13152 ,4.20000 ,41.21042 
69 ,13.9218 ,1.13340 ,4.20000 ,41.21042 
70 ,14.1139 ,1.13532 ,4.15551 ,40.77390 
71 ,14.3056 ,1.13720 ,4.15551 ,40.77390 
72 ,14.4982 ,1.13915 ,4.12129 ,40.43812 
73 ,14.7221 ,1.14131 ,4.12471 ,40.47170 
74 ,14.9623 ,1.14379 ,4.10076 ,40.23665 
75 ,15.1706 ,1.14580 ,4.05969 ,39.83371 
76 ,15.3781 ,1.14796 ,4.05969 ,39.83371 
77 ,15.5706 ,1.14988 ,4.03574 ,39.59866 
78 ,15.7786 ,1.15201 ,4.01863 ,39.43077 
79 ,15.9708 ,1.15390 ,4.00836 ,39.33003 
80 ,16.1788 ,1.15597 ,3.97756 ,39.02783 
81 ,16.3709 ,1.15787 ,3.96729 ,38.92709 
82 ,16.5628 ,1.15994 ,3.95361 ,38.79278 
83 ,16.7550 ,1.16170 ,3.92281 ,38.49058 
84 ,16.9472 ,1.16364 ,3.93307 ,38.59131 
85 ,17.1388 ,1.16569 ,3.89543 ,38.22195 
86 ,17.3307 ,1.16755 ,3.88174 ,38.08764 
87 ,17.5230 ,1.16947 ,3.86463 ,37.91975 
88 ,17.7645 ,1.17180 ,3.86121 ,37.88617 
89 ,17.9874 ,1.17412 ,3.83041 ,37.58396 
90 ,18.1954 ,1.17609 ,3.79961 ,37.28176 
91 ,18.3877 ,1.17803 ,3.80303 ,37.31534 
92 ,18.5960 ,1.18011 ,3.76196 ,36.91240 
93 ,18.8038 ,1.18222 ,3.76539 ,36.94597 
94 ,18.9959 ,1.18415 ,3.73117 ,36.61019 
95 ,19.1880 ,1.18610 ,3.73459 ,36.64377 
96 ,19.3799 ,1.18800 ,3.71063 ,36.40872 
97 ,19.5723 ,1.18989 ,3.69694 ,36.27441 
98 ,19.7639 ,1.19183 ,3.68325 ,36.14010 
99 ,19.9883 ,1.19396 ,3.66272 ,35.93863 
100 ,20.2123 ,1.19620 ,3.61139 ,35.43495 
101 ,20.4046 ,1.19824 ,3.61823 ,35.50211 
102 ,20.5963 ,1.20012 ,3.59428 ,35.26706 
103 ,20.7726 ,1.20199 ,3.59770 ,35.30064 
104 ,20.9647 ,1.20381 ,3.58401 ,35.16632 
105 ,21.1568 ,1.20572 ,3.54979 ,34.83054 
106 ,21.3490 ,1.20766 ,3.53610 ,34.69623 
107 ,21.5409 ,1.20963 ,3.50530 ,34.39402 
108 ,21.7328 ,1.21146 ,3.49504 ,34.29329 
109 ,21.9248 ,1.21342 ,3.49846 ,34.32687 
110 ,22.1331 ,1.21550 ,3.47450 ,34.09182 
111 ,22.3416 ,1.21760 ,3.46424 ,33.99108 
112 ,22.5493 ,1.21960 ,3.44713 ,33.82319 
113 ,22.7416 ,1.22155 ,3.42659 ,33.62172 
114 ,22.9333 ,1.22356 ,3.39237 ,33.28594 
115 ,23.1417 ,1.22559 ,3.38895 ,33.25236 
116 ,23.3497 ,1.22763 ,3.37184 ,33.08447 
117 ,23.5419 ,1.22959 ,3.35815 ,32.95016 
118 ,23.7493 ,1.23162 ,3.33419 ,32.71511 
119 ,23.9576 ,1.23370 ,3.30339 ,32.41290 
120 ,24.1655 ,1.23576 ,3.30682 ,32.44648 
121 ,24.3580 ,1.23770 ,3.28628 ,32.24501 
122 ,24.5661 ,1.23974 ,3.27259 ,32.11070 
123 ,24.7903 ,1.24193 ,3.24180 ,31.80849 
124 ,24.9984 ,1.24407 ,3.21442 ,31.53987 
125 ,25.2060 ,1.24618 ,3.23153 ,31.70776 
126 ,25.3985 ,1.24813 ,3.19046 ,31.30482 
127 ,25.6064 ,1.25020 ,3.19388 ,31.33840 
128 ,25.8148 ,1.25230 ,3.15624 ,30.96904 
129 ,26.0067 ,1.25424 ,3.15624 ,30.96904 
130 ,26.1988 ,1.25619 ,3.13229 ,30.73399 
131 ,26.4068 ,1.25815 ,3.12544 ,30.66683 
132 ,26.5990 ,1.26016 ,3.08438 ,30.26389 
133 ,26.8069 ,1.26219 ,3.08780 ,30.29747 
134 ,26.9992 ,1.26412 ,3.07069 ,30.12958 
135 ,27.1913 ,1.26608 ,3.06042 ,30.02884 
136 ,27.3829 ,1.26796 ,3.03304 ,29.76022 
137 ,27.6073 ,1.27004 ,3.01935 ,29.62590 
138 ,27.8154 ,1.27229 ,2.99882 ,29.42444 
139 ,28.0075 ,1.27420 ,2.98513 ,29.29012 
140 ,28.1995 ,1.27609 ,2.96802 ,29.12223 
141 ,28.3917 ,1.27804 ,2.95433 ,28.98792 
142 ,28.5995 ,1.28014 ,2.92696 ,28.71929 
143 ,28.7919 ,1.28208 ,2.92353 ,28.68571 
144 ,28.9999 ,1.28415 ,2.89616 ,28.41709 
145 ,29.1921 ,1.28607 ,2.88931 ,28.34993 
146 ,29.4000 ,1.28804 ,2.88589 ,28.31635 
147 ,29.5918 ,1.29001 ,2.86193 ,28.08130 
148 ,29.7842 ,1.29193 ,2.85167 ,27.98057 
149 ,29.9763 ,1.29384 ,2.80718 ,27.54405 
150 ,30.1684 ,1.29574 ,2.82429 ,27.71194 
151 ,30.3606 ,1.29773 ,2.79349 ,27.40974 
152 ,30.5686 ,1.29979 ,2.77638 ,27.24185 
153 ,30.7764 ,1.30187 ,2.76269 ,27.10753 
154 ,30.9848 ,1.30394 ,2.76269 ,27.10753 
155 ,31.1766 ,1.30590 ,2.71820 ,26.67101 
156 ,31.3849 ,1.30798 ,2.73189 ,26.80533 
157 ,31.5767 ,1.30988 ,2.69425 ,26.43597 
158 ,31.7526 ,1.31176 ,2.70109 ,26.50312 
159 ,31.9453 ,1.31362 ,2.68056 ,26.30165 
160 ,32.1533 ,1.31562 ,2.66345 ,26.13376 
161 ,32.3456 ,1.31759 ,2.63949 ,25.89871 
162 ,32.5369 ,1.31948 ,2.62581 ,25.76440 
163 ,32.7293 ,1.32135 ,2.62238 ,25.73082 
164 ,32.9536 ,1.32366 ,2.60527 ,25.56293 
165 ,33.1616 ,1.32578 ,2.57447 ,25.26073 
166 ,33.3537 ,1.32766 ,2.56421 ,25.15999 
167 ,33.5455 ,1.32958 ,2.56421 ,25.15999 
168 ,33.7378 ,1.33148 ,2.52656 ,24.79063 
169 ,33.9295 ,1.33343 ,2.52998 ,24.82421 
170 ,34.1219 ,1.33531 ,2.48892 ,24.42127 
171 ,34.3141 ,1.33725 ,2.48892 ,24.42127 
172 ,34.5221 ,1.33930 ,2.46839 ,24.21980 
173 ,34.7142 ,1.34121 ,2.45127 ,24.05191 
174 ,34.9223 ,1.34325 ,2.44443 ,23.98475 
175 ,35.1302 ,1.34544 ,2.43416 ,23.88402 
176 ,35.3386 ,1.34747 ,2.40336 ,23.58181 
177 ,35.5302 ,1.34941 ,2.41021 ,23.64897 
178 ,35.7222 ,1.35131 ,2.37256 ,23.27961 
179 ,35.9147 ,1.35322 ,2.37599 ,23.31318 
180 ,36.1063 ,1.35516 ,2.36230 ,23.17887 
181 ,36.2987 ,1.35712 ,2.32465 ,22.80951 
182 ,36.4910 ,1.35897 ,2.33492 ,22.91024 
183 ,36.7146 ,1.36120 ,2.30070 ,22.57446 
184 ,36.9391 ,1.36341 ,2.29385 ,22.50731 
185 ,37.1468 ,1.36555 ,2.29385 ,22.50731 
186 ,37.3393 ,1.36751 ,2.25963 ,22.17152 
187 ,37.5473 ,1.36961 ,2.25621 ,22.13794 
188 ,37.7230 ,1.37147 ,2.21857 ,21.76858 
189 ,37.9154 ,1.37324 ,2.20830 ,21.66785 
190 ,38.1075 ,1.37513 ,2.20830 ,21.66785 
191 ,38.2831 ,1.37707 ,2.17408 ,21.33206 
192 ,38.4757 ,1.37886 ,2.16723 ,21.26491 
193 ,38.6838 ,1.38096 ,2.16039 ,21.19775 
194 ,38.9079 ,1.38305 ,2.15012 ,21.09702 
195 ,39.0999 ,1.38512 ,2.12617 ,20.86197 
196 ,39.2921 ,1.38705 ,2.12959 ,20.89555 
197 ,39.5002 ,1.38908 ,2.10221 ,20.62692 
198 ,39.7083 ,1.39118 ,2.08852 ,20.49261 
199 ,39.9160 ,1.39325 ,2.08168 ,20.42545 
200 ,40.1085 ,1.39513 ,2.06799 ,20.29114 
201 ,40.3005 ,1.39710 ,2.03377 ,19.95535 
202 ,40.4921 ,1.39901 ,2.03719 ,19.98893 
203 ,40.6848 ,1.40092 ,2.00982 ,19.72031 
204 ,40.8768 ,1.40285 ,2.00639 ,19.68673 
205 ,41.0689 ,1.40478 ,1.99613 ,19.58599 
206 ,41.2608 ,1.40673 ,1.97902 ,19.41810 
207 ,41.4689 ,1.40873 ,1.97217 ,19.35094 
208 ,41.6609 ,1.41071 ,1.94137 ,19.04874 
209 ,41.8691 ,1.41269 ,1.94822 ,19.11590 
210 ,42.0612 ,1.41472 ,1.89688 ,18.61222 
211 ,42.2692 ,1.41674 ,1.91057 ,18.74654 
212 ,42.4612 ,1.41870 ,1.88319 ,18.47791 
213 ,42.6529 ,1.42064 ,1.88662 ,18.51149 
214 ,42.8610 ,1.42256 ,1.85582 ,18.20928 
215 ,43.0536 ,1.42460 ,1.84897 ,18.14213 
216 ,43.2456 ,1.42652 ,1.83871 ,18.04139 
217 ,43.4376 ,1.42849 ,1.81475 ,17.80634 
218 ,43.6453 ,1.43053 ,1.81817 ,17.83992 
219 ,43.8377 ,1.43246 ,1.79764 ,17.63845 
220 ,44.0297 ,1.43435 ,1.80106 ,17.67203 
221 ,44.2222 ,1.43632 ,1.76342 ,17.30267 
222 ,44.4139 ,1.43821 ,1.76000 ,17.26909 
223 ,44.6222 ,1.44031 ,1.72920 ,16.96689 
224 ,44.8299 ,1.44237 ,1.74631 ,17.13478 
225 ,45.0224 ,1.44429 ,1.70524 ,16.73184 
226 ,45.2305 ,1.44639 ,1.70866 ,16.76542 
227 ,45.4226 ,1.44832 ,1.67444 ,16.42963 
228 ,45.6307 ,1.45037 ,1.67786 ,16.46321 
229 ,45.8226 ,1.45231 ,1.65049 ,16.19458 
230 ,46.0148 ,1.45419 ,1.64364 ,16.12743 
231 ,46.2229 ,1.45626 ,1.61284 ,15.82522 
232 ,46.4150 ,1.45823 ,1.61284 ,15.82522 
233 ,46.6230 ,1.46034 ,1.59573 ,15.65733 
234 ,46.8151 ,1.46222 ,1.58204 ,15.52302 
235 ,47.0067 ,1.46417 ,1.56836 ,15.38871 
236 ,47.1993 ,1.46605 ,1.54440 ,15.15366 
237 ,47.4073 ,1.46814 ,1.55124 ,15.22081 
238 ,47.6155 ,1.47021 ,1.52387 ,14.95219 
239 ,47.8071 ,1.47213 ,1.50676 ,14.78430 
240 ,47.9836 ,1.47400 ,1.49991 ,14.71714 
241 ,48.2077 ,1.47601 ,1.48965 ,14.61640 
242 ,48.4159 ,1.47818 ,1.47596 ,14.48209 
243 ,48.6076 ,1.48012 ,1.47938 ,14.51567 
244 ,48.8000 ,1.48204 ,1.44516 ,14.17989 
245 ,48.9918 ,1.48401 ,1.44174 ,14.14631 
246 ,49.1837 ,1.48588 ,1.41436 ,13.87768 
247 ,49.3761 ,1.48779 ,1.41436 ,13.87768 
248 ,49.5683 ,1.48971 ,1.40067 ,13.74337 
249 ,49.7604 ,1.49166 ,1.37671 ,13.50832 
250 ,49.9524 ,1.49359 ,1.37671 ,13.50832 
251 ,50.1605 ,1.49567 ,1.34934 ,13.23969 
252 ,50.3526 ,1.49752 ,1.34249 ,13.17254 
253 ,50.5606 ,1.49968 ,1.31512 ,12.90391 
254 ,50.8008 ,1.50204 ,1.30827 ,12.83675 
255 ,50.9927 ,1.50396 ,1.31169 ,12.87033 
256 ,51.1849 ,1.50586 ,1.28432 ,12.60171 
257 ,51.3767 ,1.50777 ,1.28089 ,12.56813 
258 ,51.5692 ,1.50969 ,1.27405 ,12.50097 
259 ,51.7610 ,1.51170 ,1.23641 ,12.13161 
260 ,51.9532 ,1.51356 ,1.24325 ,12.19877 
261 ,52.1449 ,1.51548 ,1.22956 ,12.06445 
262 ,52.3374 ,1.51740 ,1.19876 ,11.76225 
263 ,52.5458 ,1.51953 ,1.19876 ,11.76225 
264 ,52.7536 ,1.52154 ,1.18850 ,11.66151 
265 ,52.9293 ,1.52348 ,1.17481 ,11.52720 
266 ,53.1217 ,1.52526 ,1.14743 ,11.25857 
267 ,53.3138 ,1.52718 ,1.15085 ,11.29215 
268 ,53.5055 ,1.52908 ,1.14401 ,11.22500 
269 ,53.6978 ,1.53109 ,1.11321 ,10.92279 
270 ,53.9221 ,1.53319 ,1.11321 ,10.92279 
271 ,54.1300 ,1.53535 ,1.10294 ,10.82206 
272 ,54.3381 ,1.53739 ,1.08241 ,10.62059 
273 ,54.5302 ,1.53938 ,1.07899 ,10.58701 
274 ,54.7384 ,1.54138 ,1.04476 ,10.25123 
275 ,54.9464 ,1.54348 ,1.04819 ,10.28480 
276 ,55.1385 ,1.54542 ,1.02423 ,10.04976 
277 ,55.3463 ,1.54746 ,1.01396 ,9.94902 
278 ,55.5385 ,1.54937 ,0.99001 ,9.71397 
279 ,55.7308 ,1.55136 ,0.99685 ,9.78113 
280 ,55.9387 ,1.55342 ,0.97290 ,9.54608 
281 ,56.1468 ,1.55545 ,0.96605 ,9.47892 
282 ,56.3389 ,1.55744 ,0.94210 ,9.24388 
283 ,56.5310 ,1.55931 ,0.94552 ,9.27745 
284 ,56.7228 ,1.56128 ,0.92157 ,9.04241 
285 ,56.9629 ,1.56349 ,0.92499 ,9.07598 
286 ,57.1550 ,1.56558 ,0.91130 ,8.94167 
287 ,57.3471 ,1.56751 ,0.88392 ,8.67305 
288 ,57.5230 ,1.56941 ,0.87023 ,8.53873 
289 ,57.7152 ,1.57122 ,0.87366 ,8.57231 
290 ,57.8912 ,1.57305 ,0.87366 ,8.57231 
291 ,58.0834 ,1.57486 ,0.83601 ,8.20295 
292 ,58.2755 ,1.57675 ,0.82917 ,8.13579 
293 ,58.4836 ,1.57880 ,0.82232 ,8.06864 
294 ,58.6756 ,1.58076 ,0.80863 ,7.93432 
295 ,58.8840 ,1.58286 ,0.78810 ,7.73285 
296 ,59.0758 ,1.58471 ,0.78126 ,7.66570 
297 ,59.2681 ,1.58667 ,0.77784 ,7.63212 
298 ,59.4602 ,1.58862 ,0.75730 ,7.43065 
299 ,59.6524 ,1.59056 ,0.75046 ,7.36349 
300 ,59.8443 ,1.59242 ,0.73335 ,7.19560 
301 ,60.0362 ,1.59432 ,0.72650 ,7.12844 
302 ,60.2285 ,1.59627 ,0.72308 ,7.09486 
303 ,60.4364 ,1.59840 ,0.69570 ,6.82624 
304 ,60.6285 ,1.60027 ,0.68886 ,6.75908 
305 ,60.8208 ,1.60226 ,0.67517 ,6.62477 
306 ,61.0288 ,1.60435 ,0.66833 ,6.55761 
307 ,61.2369 ,1.60639 ,0.64437 ,6.32256 
308 ,61.4291 ,1.60837 ,0.63753 ,6.25541 
309 ,61.6211 ,1.61025 ,0.61357 ,6.02036 
310 ,61.8131 ,1.61213 ,0.63410 ,6.22183 
311 ,62.0053 ,1.61408 ,0.59988 ,5.88605 
312 ,62.1972 ,1.61596 ,0.60330 ,5.91962 
313 ,62.4215 ,1.61812 ,0.57593 ,5.65100 
314 ,62.6295 ,1.62031 ,0.59304 ,5.81889 
315 ,62.8536 ,1.62235 ,0.54171 ,5.31522 
316 ,63.0457 ,1.62443 ,0.54513 ,5.34879 
317 ,63.2377 ,1.62638 ,0.52459 ,5.14732 
318 ,63.4139 ,1.62824 ,0.53828 ,5.28164 
319 ,63.6059 ,1.63004 ,0.51775 ,5.08017 
320 ,63.7981 ,1.63200 ,0.48011 ,4.71081 
321 ,64.0056 ,1.63407 ,0.47668 ,4.67723 
322 ,64.1981 ,1.63599 ,0.46642 ,4.57649 
323 ,64.3901 ,1.63790 ,0.47326 ,4.64365 
324 ,64.5984 ,1.63993 ,0.44246 ,4.34144 
325 ,64.8060 ,1.64204 ,0.44588 ,4.37502 
326 ,64.9821 ,1.64390 ,0.43220 ,4.24071 
327 ,65.1741 ,1.64571 ,0.41851 ,4.10640 
328 ,65.3662 ,1.64762 ,0.41851 ,4.10640 
329 ,65.5582 ,1.64956 ,0.39455 ,3.87135 
330 ,65.7667 ,1.65154 ,0.39797 ,3.90493 
331 ,65.9749 ,1.65370 ,0.38429 ,3.77061 
332 ,66.1666 ,1.65567 ,0.36033 ,3.53557 
333 ,66.3590 ,1.65759 ,0.35349 ,3.46841 
334 ,66.5987 ,1.65988 ,0.33638 ,3.30052 
335 ,66.7910 ,1.66195 ,0.33638 ,3.30052 
336 ,66.9993 ,1.66399 ,0.30558 ,2.99831 
337 ,67.1912 ,1.66590 ,0.31926 ,3.13263 
338 ,67.3995 ,1.66797 ,0.29189 ,2.86400 
339 ,67.6073 ,1.67007 ,0.27478 ,2.69611 
340 ,67.8156 ,1.67212 ,0.25767 ,2.52822 
341 ,68.0237 ,1.67419 ,0.25082 ,2.46106 
342 ,68.2159 ,1.67612 ,0.26109 ,2.56179 
343 ,68.4078 ,1.67804 ,0.23029 ,2.25959 
344 ,68.6160 ,1.68007 ,0.21660 ,2.12528 
345 ,68.7916 ,1.68205 ,0.22344 ,2.19243 
346 ,68.9841 ,1.68384 ,0.21318 ,2.09170 
347 ,69.2082 ,1.68597 ,0.19949 ,1.95738 
348 ,69.4161 ,1.68813 ,0.17553 ,1.72234 
349 ,69.6084 ,1.69004 ,0.17896 ,1.75592 
350 ,69.8165 ,1.69209 ,0.16869 ,1.65518 
351 ,70.0085 ,1.69407 ,0.16185 ,1.58802 
352 ,70.2165 ,1.69611 ,0.13789 ,1.35298 
353 ,70.4242 ,1.69826 ,0.14473 ,1.42013 
354 ,70.6163 ,1.70015 ,0.12762 ,1.25224 
355 ,70.8244 ,1.70216 ,0.10709 ,1.05077 
356 ,71.0325 ,1.70425 ,0.10367 ,1.01719 
357 ,71.2411 ,1.70630 ,0.08656 ,0.84930 
358 ,71.4492 ,1.70847 ,0.08998 ,0.88288 
359 ,71.6413 ,1.71041 ,0.05234 ,0.51352 
360 ,71.8327 ,1.71231 ,0.07629 ,0.74857 
361 ,72.0412 ,1.71442 ,0.04207 ,0.41278 
362 ,72.2495 ,1.71649 ,0.04891 ,0.47994 
363 ,72.4575 ,1.71855 ,0.01469 ,0.14416 
364 ,72.6498 ,1.72044 ,0.02496 ,0.24489 
365 ,72.8577 ,1.72258 ,0.00443 ,0.04342 
366 ,73.0659 ,1.72459 ,-0.00242 ,-0.02373 
367 ,73.2575 ,1.72652 ,-0.01953 ,-0.19163 
368 ,73.4500 ,1.72844 ,-0.01953 ,-0.19163 
369 ,73.6578 ,1.73051 ,-0.05033 ,-0.49383 
370 ,73.8503 ,1.73249 ,-0.03664 ,-0.35952 
371 ,74.0583 ,1.73455 ,-0.06402 ,-0.62814 
372 ,74.2501 ,1.73647 ,-0.05375 ,-0.52741 
373 ,74.4583 ,1.73854 ,-0.08797 ,-0.86319 
374 ,74.6665 ,1.74061 ,-0.09482 ,-0.93035 
375 ,74.8745 ,1.74267 ,-0.10166 ,-0.99751 
376 ,75.0665 ,1.74458 ,-0.11877 ,-1.16540 
377 ,75.2745 ,1.74671 ,-0.11193 ,-1.09824 
378 ,75.4828 ,1.74880 ,-0.14615 ,-1.43402 
379 ,75.6906 ,1.75089 ,-0.13931 ,-1.36687 
380 ,75.8830 ,1.75280 ,-0.16326 ,-1.60191 
381 ,76.0749 ,1.75471 ,-0.15642 ,-1.53476 
382 ,76.2991 ,1.75697 ,-0.17353 ,-1.70265 
383 ,76.4908 ,1.75883 ,-0.17353 ,-1.70265 
384 ,76.6834 ,1.76079 ,-0.19406 ,-1.90412 
385 ,76.8914 ,1.76288 ,-0.19748 ,-1.93770 
386 ,77.0835 ,1.76478 ,-0.22144 ,-2.17275 
387 ,77.2756 ,1.76670 ,-0.21459 ,-2.10559 
388 ,77.4995 ,1.76888 ,-0.23513 ,-2.30706 
389 ,77.7072 ,1.77100 ,-0.22828 ,-2.23990 
390 ,77.8992 ,1.77296 ,-0.24539 ,-2.40779 
391 ,78.0918 ,1.77490 ,-0.26250 ,-2.57569 
392 ,78.3318 ,1.77723 ,-0.26935 ,-2.64284 
393 ,78.5241 ,1.77917 ,-0.28646 ,-2.81073 
394 ,78.7157 ,1.78106 ,-0.29673 ,-2.91147 
395 ,78.9242 ,1.78317 ,-0.29673 ,-2.91147 
396 ,79.1323 ,1.78527 ,-0.31726 ,-3.11294 
397 ,79.3244 ,1.78718 ,-0.33779 ,-3.31441 
398 ,79.5162 ,1.78915 ,-0.33095 ,-3.24725 
399 ,79.7406 ,1.79122 ,-0.34806 ,-3.41514 
400 ,79.9488 ,1.79346 ,-0.34464 ,-3.38156 
401 ,80.1568 ,1.79545 ,-0.35490 ,-3.48230 
402 ,80.3490 ,1.79744 ,-0.36859 ,-3.61661 
403 ,80.5409 ,1.79947 ,-0.38228 ,-3.75093 
404 ,80.7328 ,1.80123 ,-0.38228 ,-3.75093 
405 ,80.9245 ,1.80319 ,-0.39939 ,-3.91882 
406 ,81.1169 ,1.80505 ,-0.41650 ,-4.08671 
407 ,81.3092 ,1.80705 ,-0.40623 ,-3.98597 
408 ,81.5012 ,1.80897 ,-0.44046 ,-4.32176 
409 ,81.7093 ,1.81104 ,-0.43703 ,-4.28818 
410 ,81.8853 ,1.81289 ,-0.45757 ,-4.48965 
411 ,82.0934 ,1.81482 ,-0.44730 ,-4.38891 
412 ,82.2856 ,1.81676 ,-0.47126 ,-4.62396 
413 ,82.4776 ,1.81867 ,-0.47126 ,-4.62396 
414 ,82.6698 ,1.82062 ,-0.46783 ,-4.59038 
415 ,82.8618 ,1.82259 ,-0.49863 ,-4.89259 
416 ,83.0534 ,1.82442 ,-0.49521 ,-4.85901 
417 ,83.2457 ,1.82639 ,-0.51574 ,-5.06048 
418 ,83.4380 ,1.82830 ,-0.51917 ,-5.09406 
419 ,83.6463 ,1.83037 ,-0.52259 ,-5.12764 
420 ,83.8379 ,1.83232 ,-0.53970 ,-5.29553 
421 ,84.0623 ,1.83438 ,-0.54997 ,-5.39626 
422 ,84.2704 ,1.83661 ,-0.56365 ,-5.53058 
423 ,84.4784 ,1.83866 ,-0.57050 ,-5.59773 
424 ,84.6705 ,1.84067 ,-0.56365 ,-5.53058 
425 ,84.8786 ,1.84266 ,-0.58761 ,-5.76562 
426 ,85.0706 ,1.84462 ,-0.59788 ,-5.86636 
427 ,85.2624 ,1.84656 ,-0.60814 ,-5.96709 
428 ,85.4546 ,1.84847 ,-0.60472 ,-5.93352 
429 ,85.6627 ,1.85051 ,-0.63894 ,-6.26930 
430 ,85.8711 ,1.85261 ,-0.62183 ,-6.10141 
431 ,86.0631 ,1.85457 ,-0.65605 ,-6.43719 
432 ,86.2552 ,1.85645 ,-0.64236 ,-6.30288 
433 ,86.4472 ,1.85835 ,-0.66290 ,-6.50435 
434 ,86.6390 ,1.86029 ,-0.66632 ,-6.53793 
435 ,86.8312 ,1.86225 ,-0.67316 ,-6.60508 
436 ,87.0236 ,1.86413 ,-0.69370 ,-6.80655 
437 ,87.2156 ,1.86607 ,-0.69027 ,-6.77297 
438 ,87.4233 ,1.86812 ,-0.70739 ,-6.94086 
439 ,87.6315 ,1.87018 ,-0.71081 ,-6.97444 
440 ,87.8399 ,1.87230 ,-0.73476 ,-7.20949 
441 ,88.0315 ,1.87421 ,-0.72450 ,-7.10876 
442 ,88.2239 ,1.87609 ,-0.74161 ,-7.27665 
443 ,88.4158 ,1.87802 ,-0.73476 ,-7.20949 
444 ,88.5916 ,1.87994 ,-0.76214 ,-7.47812 
445 ,88.8000 ,1.88181 ,-0.77241 ,-7.57885 
446 ,89.0081 ,1.88396 ,-0.77925 ,-7.64601 
447 ,89.2003 ,1.88592 ,-0.79294 ,-7.78032 
448 ,89.4084 ,1.88791 ,-0.78952 ,-7.74674 
449 ,89.6004 ,1.88990 ,-0.79636 ,-7.81390 
450 ,89.8247 ,1.89207 ,-0.81347 ,-7.98179 
451 ,90.0807 ,1.89469 ,-0.82032 ,-8.04895 
452 ,90.2886 ,1.89676 ,-0.83058 ,-8.14968 
453 ,90.4809 ,1.89876 ,-0.84769 ,-8.31758 
454 ,90.6726 ,1.90065 ,-0.83743 ,-8.21684 
455 ,90.8651 ,1.90252 ,-0.87849 ,-8.61978 
456 ,91.0571 ,1.90447 ,-0.86138 ,-8.45189 
457 ,91.2494 ,1.90640 ,-0.87507 ,-8.58620 
458 ,91.4572 ,1.90849 ,-0.87165 ,-8.55262 
459 ,91.6330 ,1.91035 ,-0.89218 ,-8.75409 
460 ,91.8251 ,1.91209 ,-0.91272 ,-8.95556 
461 ,92.0332 ,1.91416 ,-0.89218 ,-8.75409 
462 ,92.2251 ,1.91610 ,-0.93325 ,-9.15703 
463 ,92.4012 ,1.91803 ,-0.90929 ,-8.92198 
