Data stamp = , 30-04-2022 03:16:04 916

Calibration Values: 
Slope = , 26.54 , g/V 
Offset Voltage at no contact = , -0.501760 , V 

No , Time , Stage Position ,   Mass , Force 
   ,  (s) ,      (mm)      ,   (g)  , (mN)  

1 ,0.0000 ,0.99942 ,5.41829 ,53.16429 
2 ,0.2188 ,0.99950 ,5.39434 ,52.92925 
3 ,0.7474 ,1.00153 ,5.40803 ,53.06356 
4 ,0.9717 ,1.00378 ,5.40460 ,53.02998 
5 ,1.1795 ,1.00583 ,5.39092 ,52.89567 
6 ,1.3719 ,1.00784 ,5.42514 ,53.23145 
7 ,1.5636 ,1.00979 ,5.37381 ,52.72778 
8 ,1.7558 ,1.01178 ,5.35669 ,52.55988 
9 ,1.9638 ,1.01379 ,5.32932 ,52.29126 
10 ,2.1882 ,1.01606 ,5.32932 ,52.29126 
11 ,2.3802 ,1.01796 ,5.30194 ,52.02263 
12 ,2.5883 ,1.01997 ,5.29167 ,51.92190 
13 ,2.7803 ,1.02192 ,5.25061 ,51.51896 
14 ,2.9725 ,1.02392 ,5.25061 ,51.51896 
15 ,3.1967 ,1.02605 ,5.21296 ,51.14960 
16 ,3.4044 ,1.02820 ,5.19927 ,51.01528 
17 ,3.5966 ,1.03014 ,5.18559 ,50.88097 
18 ,3.7883 ,1.03205 ,5.17874 ,50.81381 
19 ,3.9809 ,1.03395 ,5.14452 ,50.47803 
20 ,4.1730 ,1.03591 ,5.12399 ,50.27656 
21 ,4.3650 ,1.03782 ,5.11030 ,50.14225 
22 ,4.5728 ,1.03989 ,5.10688 ,50.10867 
23 ,4.7652 ,1.04179 ,5.06239 ,49.67215 
24 ,4.9571 ,1.04373 ,5.04528 ,49.50426 
25 ,5.1653 ,1.04578 ,5.03501 ,49.40352 
26 ,5.3574 ,1.04771 ,5.01448 ,49.20205 
27 ,5.5493 ,1.04959 ,5.00079 ,49.06774 
28 ,5.7415 ,1.05155 ,4.97683 ,48.83269 
29 ,5.9492 ,1.05359 ,4.96657 ,48.73196 
30 ,6.1417 ,1.05558 ,4.93235 ,48.39618 
31 ,6.3497 ,1.05762 ,4.93235 ,48.39618 
32 ,6.5578 ,1.05957 ,4.89470 ,48.02681 
33 ,6.7659 ,1.06179 ,4.87759 ,47.85892 
34 ,6.9579 ,1.06372 ,4.86732 ,47.75819 
35 ,7.1659 ,1.06579 ,4.82968 ,47.38883 
36 ,7.3742 ,1.06783 ,4.82284 ,47.32167 
37 ,7.5662 ,1.06985 ,4.80573 ,47.15378 
38 ,7.7579 ,1.07173 ,4.77835 ,46.88515 
39 ,7.9505 ,1.07364 ,4.77493 ,46.85157 
40 ,8.1581 ,1.07569 ,4.76808 ,46.78442 
41 ,8.3507 ,1.07763 ,4.74413 ,46.54937 
42 ,8.5586 ,1.07970 ,4.69964 ,46.11285 
43 ,8.7824 ,1.08186 ,4.69622 ,46.07927 
44 ,8.9743 ,1.08391 ,4.68253 ,45.94496 
45 ,9.1668 ,1.08586 ,4.67911 ,45.91138 
46 ,9.4069 ,1.08812 ,4.63804 ,45.50844 
47 ,9.6151 ,1.09028 ,4.63119 ,45.44128 
48 ,9.8231 ,1.09234 ,4.60382 ,45.17266 
49 ,10.0152 ,1.09429 ,4.58328 ,44.97119 
50 ,10.2072 ,1.09623 ,4.56960 ,44.83688 
51 ,10.3994 ,1.09824 ,4.56275 ,44.76972 
52 ,10.6076 ,1.10008 ,4.53880 ,44.53467 
53 ,10.7996 ,1.10212 ,4.50115 ,44.16531 
54 ,10.9916 ,1.10404 ,4.50800 ,44.23247 
55 ,11.1838 ,1.10602 ,4.47720 ,43.93026 
56 ,11.3757 ,1.10783 ,4.46009 ,43.76237 
57 ,11.5680 ,1.10987 ,4.44640 ,43.62806 
58 ,11.7760 ,1.11188 ,4.42244 ,43.39301 
59 ,11.9839 ,1.11401 ,4.39849 ,43.15796 
60 ,12.1759 ,1.11589 ,4.38480 ,43.02365 
61 ,12.3521 ,1.11779 ,4.38138 ,42.99007 
62 ,12.5439 ,1.11956 ,4.34373 ,42.62071 
63 ,12.7363 ,1.12149 ,4.34031 ,42.58713 
64 ,12.9284 ,1.12340 ,4.32320 ,42.41924 
65 ,13.1524 ,1.12548 ,4.30267 ,42.21777 
66 ,13.3446 ,1.12757 ,4.28556 ,42.04988 
67 ,13.5527 ,1.12959 ,4.28213 ,42.01630 
68 ,13.7287 ,1.13156 ,4.23080 ,41.51262 
69 ,13.9207 ,1.13332 ,4.21711 ,41.37831 
70 ,14.1289 ,1.13539 ,4.21711 ,41.37831 
71 ,14.3212 ,1.13735 ,4.19658 ,41.17684 
72 ,14.5292 ,1.13939 ,4.18631 ,41.07611 
73 ,14.7208 ,1.14134 ,4.15894 ,40.80748 
74 ,14.9132 ,1.14328 ,4.15894 ,40.80748 
75 ,15.1213 ,1.14529 ,4.11103 ,40.33738 
76 ,15.3130 ,1.14727 ,4.12814 ,40.50527 
77 ,15.5055 ,1.14920 ,4.10076 ,40.23665 
78 ,15.6974 ,1.15106 ,4.06996 ,39.93444 
79 ,15.8897 ,1.15300 ,4.07338 ,39.96802 
80 ,16.0814 ,1.15488 ,4.04600 ,39.69940 
81 ,16.2736 ,1.15685 ,4.02889 ,39.53150 
82 ,16.4658 ,1.15871 ,4.00494 ,39.29646 
83 ,16.6578 ,1.16068 ,3.99125 ,39.16214 
84 ,16.8500 ,1.16259 ,3.98441 ,39.09499 
85 ,17.0259 ,1.16449 ,3.95703 ,38.82636 
86 ,17.2180 ,1.16625 ,3.95361 ,38.79278 
87 ,17.4102 ,1.16819 ,3.93307 ,38.59131 
88 ,17.6022 ,1.17013 ,3.90227 ,38.28911 
89 ,17.7946 ,1.17206 ,3.90227 ,38.28911 
90 ,17.9861 ,1.17397 ,3.88174 ,38.08764 
91 ,18.1785 ,1.17590 ,3.86121 ,37.88617 
92 ,18.3869 ,1.17797 ,3.84410 ,37.71828 
93 ,18.5947 ,1.18005 ,3.83041 ,37.58396 
94 ,18.7869 ,1.18198 ,3.81672 ,37.44965 
95 ,18.9789 ,1.18389 ,3.78934 ,37.18102 
96 ,19.1709 ,1.18581 ,3.79619 ,37.24818 
97 ,19.3630 ,1.18772 ,3.75854 ,36.87882 
98 ,19.5549 ,1.18961 ,3.74485 ,36.74450 
99 ,19.7631 ,1.19171 ,3.72432 ,36.54303 
100 ,19.9553 ,1.19361 ,3.71405 ,36.44230 
101 ,20.1789 ,1.19585 ,3.68325 ,36.14010 
102 ,20.3715 ,1.19788 ,3.67641 ,36.07294 
103 ,20.5957 ,1.19989 ,3.64219 ,35.73716 
104 ,20.8037 ,1.20202 ,3.62850 ,35.60284 
105 ,21.0117 ,1.20423 ,3.62850 ,35.60284 
106 ,21.2038 ,1.20616 ,3.59428 ,35.26706 
107 ,21.4117 ,1.20818 ,3.59770 ,35.30064 
108 ,21.6196 ,1.21027 ,3.56348 ,34.96485 
109 ,21.8119 ,1.21228 ,3.56690 ,34.99843 
110 ,22.0038 ,1.21413 ,3.52584 ,34.59549 
111 ,22.1961 ,1.21605 ,3.52241 ,34.56192 
112 ,22.3879 ,1.21795 ,3.50530 ,34.39402 
113 ,22.5803 ,1.21989 ,3.47792 ,34.12540 
114 ,22.7721 ,1.22178 ,3.48477 ,34.19255 
115 ,22.9646 ,1.22368 ,3.44713 ,33.82319 
116 ,23.1723 ,1.22582 ,3.44713 ,33.82319 
117 ,23.3806 ,1.22786 ,3.42317 ,33.58814 
118 ,23.5722 ,1.22974 ,3.41633 ,33.52099 
119 ,23.7645 ,1.23174 ,3.38553 ,33.21878 
120 ,23.9567 ,1.23362 ,3.36499 ,33.01731 
121 ,24.1810 ,1.23583 ,3.34104 ,32.78227 
122 ,24.3728 ,1.23780 ,3.34104 ,32.78227 
123 ,24.5808 ,1.23984 ,3.31366 ,32.51364 
124 ,24.7731 ,1.24184 ,3.31708 ,32.54722 
125 ,24.9652 ,1.24367 ,3.28628 ,32.24501 
126 ,25.1573 ,1.24563 ,3.26917 ,32.07712 
127 ,25.3494 ,1.24760 ,3.26233 ,32.00996 
128 ,25.5415 ,1.24945 ,3.23495 ,31.74134 
129 ,25.7175 ,1.25134 ,3.22468 ,31.64060 
130 ,25.9096 ,1.25315 ,3.21442 ,31.53987 
131 ,26.1016 ,1.25510 ,3.18020 ,31.20409 
132 ,26.2937 ,1.25701 ,3.17677 ,31.17051 
133 ,26.5018 ,1.25911 ,3.16651 ,31.06977 
134 ,26.6938 ,1.26096 ,3.14255 ,30.83472 
135 ,26.8860 ,1.26290 ,3.12544 ,30.66683 
136 ,27.0941 ,1.26501 ,3.10833 ,30.49894 
137 ,27.2863 ,1.26688 ,3.08438 ,30.26389 
138 ,27.4944 ,1.26896 ,3.08095 ,30.23031 
139 ,27.7021 ,1.27108 ,3.03647 ,29.79380 
140 ,27.8780 ,1.27297 ,3.04673 ,29.89453 
141 ,28.0706 ,1.27473 ,3.03989 ,29.82737 
142 ,28.2626 ,1.27673 ,3.01251 ,29.55875 
143 ,28.4548 ,1.27860 ,3.00909 ,29.52517 
144 ,28.6468 ,1.28054 ,2.99882 ,29.42444 
145 ,28.8389 ,1.28243 ,2.93722 ,28.82003 
146 ,29.0306 ,1.28438 ,2.96118 ,29.05507 
147 ,29.2550 ,1.28656 ,2.93038 ,28.75287 
148 ,29.4471 ,1.28854 ,2.92011 ,28.65213 
149 ,29.6392 ,1.29042 ,2.89273 ,28.38351 
150 ,29.8313 ,1.29237 ,2.89273 ,28.38351 
151 ,30.0229 ,1.29431 ,2.86878 ,28.14846 
152 ,30.2154 ,1.29619 ,2.85167 ,27.98057 
153 ,30.4233 ,1.29826 ,2.83114 ,27.77910 
154 ,30.6155 ,1.30021 ,2.81745 ,27.64479 
155 ,30.8076 ,1.30214 ,2.82771 ,27.74552 
156 ,30.9997 ,1.30405 ,2.77980 ,27.27542 
157 ,31.1918 ,1.30596 ,2.78322 ,27.30900 
158 ,31.3839 ,1.30792 ,2.75927 ,27.07395 
159 ,31.5760 ,1.30982 ,2.74216 ,26.90606 
160 ,31.7680 ,1.31170 ,2.74558 ,26.93964 
161 ,31.9602 ,1.31370 ,2.71820 ,26.67101 
162 ,32.1518 ,1.31558 ,2.71478 ,26.63744 
163 ,32.3443 ,1.31751 ,2.69767 ,26.46954 
164 ,32.5363 ,1.31944 ,2.66687 ,26.16734 
165 ,32.7444 ,1.32148 ,2.64976 ,25.99945 
166 ,32.9524 ,1.32356 ,2.64292 ,25.93229 
167 ,33.1605 ,1.32560 ,2.60869 ,25.59651 
168 ,33.3527 ,1.32760 ,2.60527 ,25.56293 
169 ,33.5606 ,1.32961 ,2.58816 ,25.39504 
170 ,33.7688 ,1.33174 ,2.58132 ,25.32788 
171 ,33.9608 ,1.33363 ,2.56078 ,25.12641 
172 ,34.1851 ,1.33582 ,2.56078 ,25.12641 
173 ,34.3765 ,1.33779 ,2.52998 ,24.82421 
174 ,34.5692 ,1.33971 ,2.52314 ,24.75705 
175 ,34.7772 ,1.34180 ,2.49234 ,24.45485 
176 ,34.9852 ,1.34388 ,2.48207 ,24.35411 
177 ,35.1773 ,1.34582 ,2.45812 ,24.11906 
178 ,35.3855 ,1.34789 ,2.45470 ,24.08549 
179 ,35.5775 ,1.34976 ,2.42732 ,23.81686 
180 ,35.7697 ,1.35171 ,2.43074 ,23.85044 
181 ,35.9617 ,1.35366 ,2.38968 ,23.44750 
182 ,36.1698 ,1.35567 ,2.39994 ,23.54823 
183 ,36.3619 ,1.35763 ,2.37256 ,23.27961 
184 ,36.5695 ,1.35971 ,2.37256 ,23.27961 
185 ,36.7620 ,1.36163 ,2.34861 ,23.04456 
186 ,36.9701 ,1.36372 ,2.33492 ,22.91024 
187 ,37.1622 ,1.36563 ,2.30412 ,22.60804 
188 ,37.3543 ,1.36755 ,2.29385 ,22.50731 
189 ,37.5623 ,1.36967 ,2.28359 ,22.40657 
190 ,37.7701 ,1.37169 ,2.27674 ,22.33941 
191 ,37.9786 ,1.37379 ,2.24937 ,22.07079 
192 ,38.1706 ,1.37573 ,2.24594 ,22.03721 
193 ,38.3626 ,1.37762 ,2.22199 ,21.80216 
194 ,38.5708 ,1.37971 ,2.21857 ,21.76858 
195 ,38.7624 ,1.38163 ,2.19461 ,21.53353 
196 ,38.9549 ,1.38357 ,2.17750 ,21.36564 
197 ,39.1466 ,1.38549 ,2.16723 ,21.26491 
198 ,39.3391 ,1.38739 ,2.13986 ,20.99628 
199 ,39.5471 ,1.38950 ,2.14670 ,21.06344 
200 ,39.7392 ,1.39141 ,2.11932 ,20.79481 
201 ,39.9312 ,1.39328 ,2.11248 ,20.72766 
202 ,40.1233 ,1.39520 ,2.09195 ,20.52619 
203 ,40.3155 ,1.39711 ,2.08510 ,20.45903 
204 ,40.5393 ,1.39933 ,2.07484 ,20.35829 
205 ,40.7316 ,1.40131 ,2.04746 ,20.08967 
206 ,40.9233 ,1.40322 ,2.03377 ,19.95535 
207 ,41.1477 ,1.40532 ,2.02350 ,19.85462 
208 ,41.3558 ,1.40759 ,1.99613 ,19.58599 
209 ,41.5480 ,1.40946 ,2.00297 ,19.65315 
210 ,41.7560 ,1.41156 ,1.97559 ,19.38452 
211 ,41.9482 ,1.41352 ,1.96533 ,19.28379 
212 ,42.1401 ,1.41542 ,1.95164 ,19.14948 
213 ,42.3322 ,1.41736 ,1.93795 ,19.01516 
214 ,42.5404 ,1.41927 ,1.93111 ,18.94801 
215 ,42.7325 ,1.42132 ,1.90373 ,18.67938 
216 ,42.9245 ,1.42329 ,1.89004 ,18.54507 
217 ,43.1162 ,1.42514 ,1.87293 ,18.37717 
218 ,43.3088 ,1.42711 ,1.87293 ,18.37717 
219 ,43.5168 ,1.42912 ,1.84555 ,18.10855 
220 ,43.7089 ,1.43112 ,1.84213 ,18.07497 
221 ,43.9169 ,1.43314 ,1.81133 ,17.77276 
222 ,44.1250 ,1.43521 ,1.80449 ,17.70561 
223 ,44.3171 ,1.43712 ,1.78395 ,17.50414 
224 ,44.5252 ,1.43923 ,1.78737 ,17.53772 
225 ,44.7333 ,1.44133 ,1.75315 ,17.20193 
226 ,44.9254 ,1.44326 ,1.75657 ,17.23551 
227 ,45.1493 ,1.44540 ,1.72920 ,16.96689 
228 ,45.3250 ,1.44734 ,1.71551 ,16.83257 
229 ,45.5176 ,1.44916 ,1.71209 ,16.79899 
230 ,45.7096 ,1.45108 ,1.69840 ,16.66468 
231 ,45.9017 ,1.45301 ,1.69840 ,16.66468 
232 ,46.0939 ,1.45495 ,1.66760 ,16.36248 
233 ,46.2859 ,1.45686 ,1.67102 ,16.39605 
234 ,46.4780 ,1.45874 ,1.62653 ,15.95954 
235 ,46.6861 ,1.46082 ,1.64364 ,16.12743 
236 ,46.8782 ,1.46276 ,1.61627 ,15.85880 
237 ,47.0699 ,1.46467 ,1.60258 ,15.72449 
238 ,47.2624 ,1.46656 ,1.58547 ,15.55660 
239 ,47.4541 ,1.46856 ,1.56151 ,15.32155 
240 ,47.6625 ,1.47056 ,1.58204 ,15.52302 
241 ,47.8865 ,1.47274 ,1.54098 ,15.12008 
242 ,48.0787 ,1.47476 ,1.53756 ,15.08650 
243 ,48.2706 ,1.47668 ,1.52729 ,14.98577 
244 ,48.4467 ,1.47853 ,1.51360 ,14.85145 
245 ,48.6225 ,1.48028 ,1.49307 ,14.64998 
246 ,48.8150 ,1.48209 ,1.45542 ,14.28062 
247 ,49.0069 ,1.48408 ,1.47253 ,14.44851 
248 ,49.2151 ,1.48612 ,1.44858 ,14.21346 
249 ,49.4070 ,1.48809 ,1.44858 ,14.21346 
250 ,49.5994 ,1.48997 ,1.43489 ,14.07915 
251 ,49.8072 ,1.49206 ,1.41778 ,13.91126 
252 ,50.0155 ,1.49416 ,1.39725 ,13.70979 
253 ,50.2396 ,1.49631 ,1.38356 ,13.57548 
254 ,50.4476 ,1.49844 ,1.37329 ,13.47474 
255 ,50.6557 ,1.50042 ,1.35276 ,13.27327 
256 ,50.8639 ,1.50257 ,1.33907 ,13.13896 
257 ,51.0719 ,1.50465 ,1.32196 ,12.97107 
258 ,51.2639 ,1.50662 ,1.31854 ,12.93749 
259 ,51.4401 ,1.50853 ,1.29458 ,12.70244 
260 ,51.6160 ,1.51025 ,1.28432 ,12.60171 
261 ,51.8079 ,1.51205 ,1.28774 ,12.63528 
262 ,52.0003 ,1.51399 ,1.27747 ,12.53455 
263 ,52.2083 ,1.51605 ,1.24667 ,12.23235 
264 ,52.4160 ,1.51810 ,1.22956 ,12.06445 
265 ,52.6085 ,1.52003 ,1.22956 ,12.06445 
266 ,52.8006 ,1.52194 ,1.21929 ,11.96372 
267 ,52.9924 ,1.52390 ,1.19876 ,11.76225 
268 ,53.1848 ,1.52583 ,1.19534 ,11.72867 
269 ,53.3926 ,1.52785 ,1.15427 ,11.32573 
270 ,53.5849 ,1.52984 ,1.15770 ,11.35931 
271 ,53.7931 ,1.53183 ,1.13716 ,11.15784 
272 ,53.9851 ,1.53383 ,1.14058 ,11.19142 
273 ,54.1933 ,1.53590 ,1.10979 ,10.88921 
274 ,54.4011 ,1.53795 ,1.12347 ,11.02353 
275 ,54.6091 ,1.54001 ,1.09267 ,10.72132 
276 ,54.8011 ,1.54198 ,1.09267 ,10.72132 
277 ,54.9930 ,1.54390 ,1.06187 ,10.41912 
278 ,55.1851 ,1.54580 ,1.06187 ,10.41912 
279 ,55.3773 ,1.54771 ,1.03792 ,10.18407 
280 ,55.5854 ,1.54980 ,1.03450 ,10.15049 
281 ,55.7937 ,1.55189 ,1.01396 ,9.94902 
282 ,55.9857 ,1.55378 ,0.99001 ,9.71397 
283 ,56.1779 ,1.55575 ,1.00028 ,9.81471 
284 ,56.3697 ,1.55766 ,0.97290 ,9.54608 
285 ,56.5781 ,1.55975 ,0.96948 ,9.51250 
286 ,56.7700 ,1.56164 ,0.94894 ,9.31103 
287 ,56.9783 ,1.56361 ,0.94210 ,9.24388 
288 ,57.1862 ,1.56582 ,0.91814 ,9.00883 
289 ,57.3784 ,1.56770 ,0.91814 ,9.00883 
290 ,57.5704 ,1.56963 ,0.89419 ,8.77378 
291 ,57.7624 ,1.57152 ,0.90103 ,8.84094 
292 ,57.9385 ,1.57340 ,0.86681 ,8.50515 
293 ,58.1307 ,1.57524 ,0.84628 ,8.30368 
294 ,58.3227 ,1.57713 ,0.85997 ,8.43800 
295 ,58.5144 ,1.57907 ,0.84286 ,8.27011 
296 ,58.7069 ,1.58100 ,0.80863 ,7.93432 
297 ,58.8990 ,1.58291 ,0.81548 ,8.00148 
298 ,59.0911 ,1.58482 ,0.79837 ,7.83359 
299 ,59.2832 ,1.58678 ,0.79495 ,7.80001 
300 ,59.4749 ,1.58872 ,0.78468 ,7.69927 
301 ,59.6674 ,1.59063 ,0.75730 ,7.43065 
302 ,59.8755 ,1.59272 ,0.76072 ,7.46423 
303 ,60.0674 ,1.59461 ,0.72308 ,7.09486 
304 ,60.2595 ,1.59648 ,0.74361 ,7.29633 
305 ,60.4518 ,1.59841 ,0.71624 ,7.02771 
306 ,60.6597 ,1.60047 ,0.71966 ,7.06129 
307 ,60.8519 ,1.60245 ,0.68544 ,6.72550 
308 ,61.0437 ,1.60438 ,0.67175 ,6.59119 
309 ,61.2681 ,1.60652 ,0.65806 ,6.45688 
310 ,61.4761 ,1.60869 ,0.66148 ,6.49046 
311 ,61.6678 ,1.61058 ,0.62726 ,6.15467 
312 ,61.8602 ,1.61252 ,0.64437 ,6.32256 
313 ,62.0520 ,1.61442 ,0.62042 ,6.08752 
314 ,62.2444 ,1.61630 ,0.61699 ,6.05394 
315 ,62.4364 ,1.61828 ,0.60673 ,5.95320 
316 ,62.6286 ,1.62018 ,0.57593 ,5.65100 
317 ,62.8202 ,1.62211 ,0.58277 ,5.71815 
318 ,63.0288 ,1.62408 ,0.55197 ,5.41595 
319 ,63.2367 ,1.62627 ,0.55882 ,5.48311 
320 ,63.4290 ,1.62819 ,0.52459 ,5.14732 
321 ,63.6529 ,1.63035 ,0.52802 ,5.18090 
322 ,63.8447 ,1.63233 ,0.50748 ,4.97943 
323 ,64.0371 ,1.63427 ,0.51433 ,5.04659 
324 ,64.2453 ,1.63640 ,0.49380 ,4.84512 
325 ,64.4372 ,1.63826 ,0.48353 ,4.74438 
326 ,64.6294 ,1.64017 ,0.44931 ,4.40860 
327 ,64.8213 ,1.64216 ,0.46300 ,4.54291 
328 ,65.0130 ,1.64418 ,0.41851 ,4.10640 
329 ,65.2373 ,1.64624 ,0.43904 ,4.30787 
330 ,65.4456 ,1.64838 ,0.41509 ,4.07282 
331 ,65.6375 ,1.65023 ,0.41509 ,4.07282 
332 ,65.8298 ,1.65217 ,0.38771 ,3.80419 
333 ,66.0216 ,1.65412 ,0.39113 ,3.83777 
334 ,66.2300 ,1.65624 ,0.36718 ,3.60272 
335 ,66.4540 ,1.65833 ,0.38086 ,3.73703 
336 ,66.6461 ,1.66042 ,0.33638 ,3.30052 
337 ,66.8383 ,1.66227 ,0.34664 ,3.40125 
338 ,67.0461 ,1.66432 ,0.31926 ,3.13263 
339 ,67.2382 ,1.66631 ,0.32611 ,3.19978 
340 ,67.4465 ,1.66839 ,0.28504 ,2.79684 
341 ,67.6545 ,1.67034 ,0.30558 ,2.99831 
342 ,67.8623 ,1.67247 ,0.27135 ,2.66253 
343 ,68.0541 ,1.67444 ,0.26109 ,2.56179 
344 ,68.2624 ,1.67647 ,0.26109 ,2.56179 
345 ,68.4549 ,1.67845 ,0.24398 ,2.39390 
346 ,68.6629 ,1.68052 ,0.23713 ,2.32675 
347 ,68.8549 ,1.68240 ,0.22002 ,2.15885 
348 ,69.0471 ,1.68437 ,0.20976 ,2.05812 
349 ,69.2548 ,1.68636 ,0.19949 ,1.95738 
350 ,69.4467 ,1.68840 ,0.18922 ,1.85665 
351 ,69.6552 ,1.69039 ,0.19264 ,1.89023 
352 ,69.8962 ,1.69282 ,0.16869 ,1.65518 
353 ,70.0871 ,1.69476 ,0.14473 ,1.42013 
354 ,70.2797 ,1.69664 ,0.14473 ,1.42013 
355 ,70.4712 ,1.69872 ,0.12762 ,1.25224 
356 ,70.6637 ,1.70050 ,0.13447 ,1.31940 
357 ,70.8559 ,1.70241 ,0.11393 ,1.11793 
358 ,71.0474 ,1.70436 ,0.08998 ,0.88288 
359 ,71.2561 ,1.70648 ,0.10367 ,1.01719 
360 ,71.4640 ,1.70850 ,0.08314 ,0.81572 
361 ,71.6561 ,1.71043 ,0.07629 ,0.74857 
362 ,71.8802 ,1.71258 ,0.04549 ,0.44636 
363 ,72.0722 ,1.71458 ,0.04207 ,0.41278 
364 ,72.2644 ,1.71653 ,0.03865 ,0.37920 
365 ,72.4565 ,1.71844 ,0.03180 ,0.31205 
366 ,72.6642 ,1.72053 ,0.00785 ,0.07700 
367 ,72.8567 ,1.72242 ,0.01127 ,0.11058 
368 ,73.0648 ,1.72442 ,-0.01269 ,-0.12447 
369 ,73.2729 ,1.72658 ,-0.02295 ,-0.22520 
370 ,73.4650 ,1.72856 ,-0.03664 ,-0.35952 
371 ,73.6571 ,1.73048 ,-0.03322 ,-0.32594 
372 ,73.8652 ,1.73245 ,-0.06060 ,-0.59457 
373 ,74.1049 ,1.73475 ,-0.05717 ,-0.56099 
374 ,74.3133 ,1.73688 ,-0.06060 ,-0.59457 
375 ,74.5375 ,1.73911 ,-0.08455 ,-0.82961 
376 ,74.7295 ,1.74120 ,-0.10166 ,-0.99751 
377 ,74.9217 ,1.74311 ,-0.08797 ,-0.86319 
378 ,75.1292 ,1.74518 ,-0.12219 ,-1.19898 
379 ,75.3215 ,1.74706 ,-0.12562 ,-1.23255 
380 ,75.5137 ,1.74904 ,-0.12904 ,-1.26613 
381 ,75.7216 ,1.75106 ,-0.14273 ,-1.40045 
382 ,75.9295 ,1.75318 ,-0.17011 ,-1.66907 
383 ,76.1219 ,1.75506 ,-0.17011 ,-1.66907 
384 ,76.3141 ,1.75705 ,-0.15984 ,-1.56834 
385 ,76.5221 ,1.75907 ,-0.18722 ,-1.83696 
386 ,76.7303 ,1.76119 ,-0.21117 ,-2.07201 
387 ,76.9225 ,1.76310 ,-0.21117 ,-2.07201 
388 ,77.1302 ,1.76522 ,-0.24197 ,-2.37422 
389 ,77.3387 ,1.76727 ,-0.22144 ,-2.17275 
390 ,77.5306 ,1.76918 ,-0.24197 ,-2.37422 
391 ,77.7225 ,1.77105 ,-0.24197 ,-2.37422 
392 ,77.9149 ,1.77304 ,-0.25908 ,-2.54211 
393 ,78.1065 ,1.77495 ,-0.27961 ,-2.74358 
394 ,78.2991 ,1.77683 ,-0.28988 ,-2.84431 
395 ,78.4911 ,1.77876 ,-0.29673 ,-2.91147 
396 ,78.6830 ,1.78068 ,-0.30015 ,-2.94505 
397 ,78.8751 ,1.78256 ,-0.30699 ,-3.01220 
398 ,79.0673 ,1.78454 ,-0.31384 ,-3.07936 
399 ,79.2754 ,1.78654 ,-0.31384 ,-3.07936 
400 ,79.4834 ,1.78865 ,-0.34121 ,-3.34799 
401 ,79.6755 ,1.79055 ,-0.34806 ,-3.41514 
402 ,79.8675 ,1.79253 ,-0.35832 ,-3.51588 
403 ,80.0594 ,1.79443 ,-0.35832 ,-3.51588 
404 ,80.2514 ,1.79642 ,-0.37886 ,-3.71735 
405 ,80.4598 ,1.79836 ,-0.39597 ,-3.88524 
406 ,80.6678 ,1.80045 ,-0.40623 ,-3.98597 
407 ,80.8757 ,1.80256 ,-0.40623 ,-3.98597 
408 ,81.0679 ,1.80453 ,-0.42335 ,-4.15387 
409 ,81.2601 ,1.80648 ,-0.40623 ,-3.98597 
410 ,81.4680 ,1.80856 ,-0.44046 ,-4.32176 
411 ,81.6604 ,1.81050 ,-0.43019 ,-4.22102 
412 ,81.8524 ,1.81235 ,-0.46441 ,-4.55681 
413 ,82.0445 ,1.81429 ,-0.45414 ,-4.45607 
414 ,82.2366 ,1.81619 ,-0.46783 ,-4.59038 
415 ,82.4284 ,1.81818 ,-0.48152 ,-4.72470 
416 ,82.6528 ,1.82031 ,-0.48152 ,-4.72470 
417 ,82.8609 ,1.82240 ,-0.49521 ,-4.85901 
418 ,83.0527 ,1.82439 ,-0.51232 ,-5.02690 
419 ,83.2610 ,1.82633 ,-0.52601 ,-5.16121 
420 ,83.4531 ,1.82837 ,-0.53285 ,-5.22837 
421 ,83.6289 ,1.83019 ,-0.53970 ,-5.29553 
422 ,83.8211 ,1.83202 ,-0.53628 ,-5.26195 
423 ,84.0294 ,1.83409 ,-0.56365 ,-5.53058 
424 ,84.2375 ,1.83617 ,-0.55681 ,-5.46342 
425 ,84.4295 ,1.83812 ,-0.58077 ,-5.69847 
426 ,84.6214 ,1.84002 ,-0.57734 ,-5.66489 
427 ,84.7976 ,1.84196 ,-0.60130 ,-5.89994 
428 ,84.9896 ,1.84375 ,-0.61156 ,-6.00067 
429 ,85.1818 ,1.84562 ,-0.60472 ,-5.93352 
430 ,85.3738 ,1.84757 ,-0.60472 ,-5.93352 
431 ,85.5981 ,1.84983 ,-0.60814 ,-5.96709 
432 ,85.8060 ,1.85187 ,-0.64236 ,-6.30288 
433 ,85.9978 ,1.85378 ,-0.64921 ,-6.37003 
434 ,86.1901 ,1.85572 ,-0.66290 ,-6.50435 
435 ,86.3821 ,1.85766 ,-0.65947 ,-6.47077 
436 ,86.5744 ,1.85961 ,-0.66290 ,-6.50435 
437 ,86.7665 ,1.86153 ,-0.68685 ,-6.73940 
438 ,86.9584 ,1.86343 ,-0.67659 ,-6.63866 
439 ,87.1665 ,1.86547 ,-0.70396 ,-6.90729 
440 ,87.3587 ,1.86741 ,-0.69370 ,-6.80655 
441 ,87.5668 ,1.86952 ,-0.72450 ,-7.10876 
442 ,87.7588 ,1.87144 ,-0.71765 ,-7.04160 
443 ,87.9504 ,1.87332 ,-0.74161 ,-7.27665 
444 ,88.1427 ,1.87526 ,-0.73818 ,-7.24307 
445 ,88.3509 ,1.87735 ,-0.76556 ,-7.51170 
446 ,88.5429 ,1.87924 ,-0.75187 ,-7.37738 
447 ,88.7351 ,1.88119 ,-0.76556 ,-7.51170 
448 ,88.9430 ,1.88318 ,-0.79636 ,-7.81390 
449 ,89.1351 ,1.88517 ,-0.78952 ,-7.74674 
450 ,89.3274 ,1.88708 ,-0.80321 ,-7.88106 
451 ,89.5194 ,1.88898 ,-0.80321 ,-7.88106 
452 ,89.7116 ,1.89087 ,-0.82374 ,-8.08253 
453 ,89.9035 ,1.89284 ,-0.82716 ,-8.11611 
454 ,90.0953 ,1.89474 ,-0.83058 ,-8.14968 
455 ,90.2878 ,1.89672 ,-0.85112 ,-8.35115 
456 ,90.4960 ,1.89874 ,-0.86138 ,-8.45189 
457 ,90.6880 ,1.90074 ,-0.87507 ,-8.58620 
458 ,90.8965 ,1.90281 ,-0.87165 ,-8.55262 
459 ,91.1036 ,1.90482 ,-0.87849 ,-8.61978 
460 ,91.2957 ,1.90676 ,-0.88192 ,-8.65336 
461 ,91.4881 ,1.90870 ,-0.90587 ,-8.88841 
462 ,91.6962 ,1.91071 ,-0.89903 ,-8.82125 
463 ,91.9043 ,1.91274 ,-0.90929 ,-8.92198 
