Data stamp = , 01-05-2022 11:30:42 030

Calibration Values: 
Slope = , 26.54 , g/V 
Offset Voltage at no contact = , -0.501760 , V 

No , Time , Stage Position ,   Mass , Force 
   ,  (s) ,      (mm)      ,   (g)  , (mN)  

1 ,0.0000 ,0.99959 ,5.39092 ,52.89567 
2 ,0.2386 ,0.99969 ,5.40460 ,53.02998 
3 ,0.6072 ,1.00083 ,5.39776 ,52.96282 
4 ,0.8311 ,1.00277 ,5.39776 ,52.96282 
5 ,1.0554 ,1.00471 ,5.40460 ,53.02998 
6 ,1.2633 ,1.00692 ,5.38407 ,52.82851 
7 ,1.4714 ,1.00899 ,5.37723 ,52.76135 
8 ,1.6796 ,1.01111 ,5.35669 ,52.55988 
9 ,1.8876 ,1.01318 ,5.31563 ,52.15694 
10 ,2.0797 ,1.01510 ,5.32932 ,52.29126 
11 ,2.2717 ,1.01700 ,5.29510 ,51.95548 
12 ,2.4634 ,1.01904 ,5.29167 ,51.92190 
13 ,2.6560 ,1.02089 ,5.26772 ,51.68685 
14 ,2.8639 ,1.02294 ,5.24718 ,51.48538 
15 ,3.0561 ,1.02487 ,5.23007 ,51.31749 
16 ,3.2482 ,1.02676 ,5.19927 ,51.01528 
17 ,3.4401 ,1.02868 ,5.18216 ,50.84739 
18 ,3.6164 ,1.03058 ,5.15821 ,50.61234 
19 ,3.8085 ,1.03239 ,5.13768 ,50.41087 
20 ,4.0167 ,1.03446 ,5.13083 ,50.34372 
21 ,4.2245 ,1.03656 ,5.09661 ,50.00793 
22 ,4.4167 ,1.03851 ,5.10345 ,50.07509 
23 ,4.6084 ,1.04039 ,5.05212 ,49.57142 
24 ,4.8009 ,1.04233 ,5.05897 ,49.63857 
25 ,5.0088 ,1.04441 ,5.01790 ,49.23563 
26 ,5.2170 ,1.04651 ,5.01790 ,49.23563 
27 ,5.4091 ,1.04835 ,4.98026 ,48.86627 
28 ,5.6012 ,1.05026 ,4.97683 ,48.83269 
29 ,5.7769 ,1.05220 ,4.94946 ,48.56407 
30 ,5.9854 ,1.05402 ,4.92550 ,48.32902 
31 ,6.1933 ,1.05622 ,4.91523 ,48.22828 
32 ,6.3856 ,1.05811 ,4.88101 ,47.89250 
33 ,6.5777 ,1.06010 ,4.88786 ,47.95966 
34 ,6.7852 ,1.06206 ,4.83652 ,47.45598 
35 ,6.9779 ,1.06412 ,4.84337 ,47.52314 
36 ,7.1858 ,1.06616 ,4.80573 ,47.15378 
37 ,7.3779 ,1.06808 ,4.79888 ,47.08662 
38 ,7.5701 ,1.06998 ,4.77493 ,46.85157 
39 ,7.7622 ,1.07193 ,4.75782 ,46.68368 
40 ,7.9537 ,1.07384 ,4.75439 ,46.65010 
41 ,8.1460 ,1.07578 ,4.71675 ,46.28074 
42 ,8.3543 ,1.07776 ,4.70990 ,46.21359 
43 ,8.5464 ,1.07976 ,4.67911 ,45.91138 
44 ,8.7385 ,1.08165 ,4.68595 ,45.97854 
45 ,8.9306 ,1.08356 ,4.65515 ,45.67633 
46 ,9.1384 ,1.08562 ,4.63462 ,45.47486 
47 ,9.3468 ,1.08777 ,4.59013 ,45.03835 
48 ,9.5389 ,1.08967 ,4.59697 ,45.10550 
49 ,9.7470 ,1.09175 ,4.57644 ,44.90403 
50 ,9.9550 ,1.09378 ,4.55933 ,44.73614 
51 ,10.1467 ,1.09573 ,4.53880 ,44.53467 
52 ,10.3389 ,1.09764 ,4.52511 ,44.40036 
53 ,10.5309 ,1.09957 ,4.50115 ,44.16531 
54 ,10.7069 ,1.10148 ,4.47720 ,43.93026 
55 ,10.8990 ,1.10327 ,4.47035 ,43.86310 
56 ,11.0913 ,1.10513 ,4.45666 ,43.72879 
57 ,11.2992 ,1.10726 ,4.43613 ,43.52732 
58 ,11.5394 ,1.10952 ,4.41560 ,43.32585 
59 ,11.7478 ,1.11178 ,4.38822 ,43.05723 
60 ,11.9878 ,1.11397 ,4.38480 ,43.02365 
61 ,12.1959 ,1.11628 ,4.35742 ,42.75502 
62 ,12.4037 ,1.11827 ,4.31978 ,42.38566 
63 ,12.6119 ,1.12035 ,4.30951 ,42.28492 
64 ,12.8037 ,1.12227 ,4.29240 ,42.11703 
65 ,12.9959 ,1.12424 ,4.28898 ,42.08345 
66 ,13.1883 ,1.12612 ,4.26160 ,41.81483 
67 ,13.3959 ,1.12819 ,4.25133 ,41.71409 
68 ,13.5881 ,1.13016 ,4.22053 ,41.41189 
69 ,13.7966 ,1.13219 ,4.21369 ,41.34473 
70 ,13.9886 ,1.13415 ,4.17605 ,40.97537 
71 ,14.1807 ,1.13609 ,4.17605 ,40.97537 
72 ,14.3727 ,1.13800 ,4.16920 ,40.90821 
73 ,14.5648 ,1.13988 ,4.12814 ,40.50527 
74 ,14.7567 ,1.14183 ,4.13498 ,40.57243 
75 ,14.9970 ,1.14406 ,4.10076 ,40.23665 
76 ,15.2051 ,1.14634 ,4.08365 ,40.06876 
77 ,15.3971 ,1.14820 ,4.07338 ,39.96802 
78 ,15.5889 ,1.15011 ,4.03574 ,39.59866 
79 ,15.7971 ,1.15220 ,4.03574 ,39.59866 
80 ,16.0054 ,1.15431 ,4.00152 ,39.26288 
81 ,16.1971 ,1.15624 ,4.00152 ,39.26288 
82 ,16.3896 ,1.15814 ,3.97414 ,38.99425 
83 ,16.5977 ,1.16024 ,3.96729 ,38.92709 
84 ,16.7898 ,1.16218 ,3.93307 ,38.59131 
85 ,16.9979 ,1.16427 ,3.93650 ,38.62489 
86 ,17.1900 ,1.16616 ,3.90912 ,38.35626 
87 ,17.3817 ,1.16807 ,3.90227 ,38.28911 
88 ,17.5741 ,1.16998 ,3.87832 ,38.05406 
89 ,17.7817 ,1.17209 ,3.85779 ,37.85259 
90 ,18.0058 ,1.17424 ,3.84410 ,37.71828 
91 ,18.1980 ,1.17620 ,3.84067 ,37.68470 
92 ,18.3901 ,1.17810 ,3.80303 ,37.31534 
93 ,18.6142 ,1.18023 ,3.79276 ,37.21460 
94 ,18.8387 ,1.18247 ,3.76196 ,36.91240 
95 ,19.0468 ,1.18467 ,3.74828 ,36.77808 
96 ,19.2546 ,1.18674 ,3.73459 ,36.64377 
97 ,19.4469 ,1.18870 ,3.72090 ,36.50946 
98 ,19.6548 ,1.19078 ,3.69694 ,36.27441 
99 ,19.8470 ,1.19270 ,3.66957 ,36.00578 
100 ,20.0387 ,1.19466 ,3.67983 ,36.10652 
101 ,20.2473 ,1.19665 ,3.64561 ,35.77073 
102 ,20.4554 ,1.19880 ,3.62850 ,35.60284 
103 ,20.6474 ,1.20069 ,3.59770 ,35.30064 
104 ,20.8391 ,1.20263 ,3.59428 ,35.26706 
105 ,21.0318 ,1.20458 ,3.57375 ,35.06559 
106 ,21.2396 ,1.20662 ,3.57032 ,35.03201 
107 ,21.4318 ,1.20855 ,3.54295 ,34.76338 
108 ,21.6240 ,1.21049 ,3.52241 ,34.56192 
109 ,21.8158 ,1.21242 ,3.51215 ,34.46118 
110 ,22.0081 ,1.21432 ,3.48477 ,34.19255 
111 ,22.2157 ,1.21635 ,3.48819 ,34.22613 
112 ,22.4241 ,1.21847 ,3.46424 ,33.99108 
113 ,22.6157 ,1.22038 ,3.45739 ,33.92393 
114 ,22.8397 ,1.22258 ,3.44028 ,33.75604 
115 ,23.0484 ,1.22462 ,3.41633 ,33.52099 
116 ,23.2724 ,1.22694 ,3.38210 ,33.18520 
117 ,23.4644 ,1.22888 ,3.36499 ,33.01731 
118 ,23.6725 ,1.23096 ,3.34446 ,32.81584 
119 ,23.8646 ,1.23289 ,3.34788 ,32.84942 
120 ,24.0569 ,1.23477 ,3.33077 ,32.68153 
121 ,24.2489 ,1.23674 ,3.29655 ,32.34575 
122 ,24.4406 ,1.23860 ,3.29313 ,32.31217 
123 ,24.6331 ,1.24056 ,3.25891 ,31.97639 
124 ,24.8413 ,1.24264 ,3.26233 ,32.00996 
125 ,25.0333 ,1.24455 ,3.24522 ,31.84207 
126 ,25.2413 ,1.24663 ,3.23837 ,31.77492 
127 ,25.4334 ,1.24860 ,3.21442 ,31.53987 
128 ,25.6413 ,1.25066 ,3.21100 ,31.50629 
129 ,25.8490 ,1.25273 ,3.16651 ,31.06977 
130 ,26.0415 ,1.25459 ,3.17335 ,31.13693 
131 ,26.2336 ,1.25659 ,3.15282 ,30.93546 
132 ,26.4258 ,1.25845 ,3.13571 ,30.76757 
133 ,26.6174 ,1.26041 ,3.12544 ,30.66683 
134 ,26.8261 ,1.26240 ,3.09122 ,30.33105 
135 ,27.0659 ,1.26484 ,3.08095 ,30.23031 
136 ,27.2582 ,1.26681 ,3.07069 ,30.12958 
137 ,27.4662 ,1.26889 ,3.04673 ,29.89453 
138 ,27.6580 ,1.27073 ,3.03989 ,29.82737 
139 ,27.8502 ,1.27271 ,3.01593 ,29.59233 
140 ,28.0423 ,1.27466 ,3.01935 ,29.62590 
141 ,28.2347 ,1.27656 ,2.99540 ,29.39086 
142 ,28.4268 ,1.27850 ,2.96802 ,29.12223 
143 ,28.6346 ,1.28051 ,2.95776 ,29.02150 
144 ,28.8266 ,1.28245 ,2.94749 ,28.92076 
145 ,29.0350 ,1.28450 ,2.92696 ,28.71929 
146 ,29.2429 ,1.28661 ,2.91669 ,28.61856 
147 ,29.4510 ,1.28871 ,2.88589 ,28.31635 
148 ,29.6430 ,1.29064 ,2.88931 ,28.34993 
149 ,29.8511 ,1.29268 ,2.85167 ,27.98057 
150 ,30.0750 ,1.29495 ,2.84482 ,27.91341 
151 ,30.2834 ,1.29699 ,2.82429 ,27.71194 
152 ,30.4753 ,1.29899 ,2.82087 ,27.67836 
153 ,30.6675 ,1.30088 ,2.79007 ,27.37616 
154 ,30.8754 ,1.30292 ,2.79349 ,27.40974 
155 ,31.0673 ,1.30486 ,2.75243 ,27.00680 
156 ,31.2597 ,1.30682 ,2.75927 ,27.07395 
157 ,31.4677 ,1.30889 ,2.72847 ,26.77175 
158 ,31.6597 ,1.31079 ,2.72505 ,26.73817 
159 ,31.8520 ,1.31269 ,2.70109 ,26.50312 
160 ,32.0441 ,1.31466 ,2.70452 ,26.53670 
161 ,32.2521 ,1.31673 ,2.66003 ,26.10018 
162 ,32.4602 ,1.31878 ,2.67714 ,26.26807 
163 ,32.6679 ,1.32085 ,2.62581 ,25.76440 
164 ,32.8604 ,1.32276 ,2.63949 ,25.89871 
165 ,33.0845 ,1.32506 ,2.60527 ,25.56293 
166 ,33.2762 ,1.32709 ,2.58474 ,25.36146 
167 ,33.4684 ,1.32888 ,2.57105 ,25.22715 
168 ,33.6447 ,1.33075 ,2.58474 ,25.36146 
169 ,33.8370 ,1.33257 ,2.56421 ,25.15999 
170 ,34.0449 ,1.33465 ,2.53683 ,24.89136 
171 ,34.2371 ,1.33655 ,2.52314 ,24.75705 
172 ,34.4291 ,1.33850 ,2.49918 ,24.52200 
173 ,34.6371 ,1.34057 ,2.49234 ,24.45485 
174 ,34.8292 ,1.34247 ,2.47865 ,24.32053 
175 ,35.0371 ,1.34460 ,2.46496 ,24.18622 
176 ,35.2454 ,1.34662 ,2.44785 ,24.01833 
177 ,35.4370 ,1.34852 ,2.43759 ,23.91759 
178 ,35.6297 ,1.35048 ,2.41363 ,23.68255 
179 ,35.8213 ,1.35242 ,2.42048 ,23.74970 
180 ,36.0617 ,1.35480 ,2.39310 ,23.48108 
181 ,36.2695 ,1.35685 ,2.35888 ,23.14529 
182 ,36.4775 ,1.35892 ,2.36572 ,23.21245 
183 ,36.6700 ,1.36086 ,2.33834 ,22.94382 
184 ,36.8618 ,1.36277 ,2.32465 ,22.80951 
185 ,37.0537 ,1.36467 ,2.31097 ,22.67520 
186 ,37.2463 ,1.36663 ,2.29043 ,22.47373 
187 ,37.4543 ,1.36873 ,2.28017 ,22.37299 
188 ,37.6298 ,1.37057 ,2.27674 ,22.33941 
189 ,37.8225 ,1.37242 ,2.25621 ,22.13794 
190 ,38.0145 ,1.37434 ,2.23568 ,21.93647 
191 ,38.2226 ,1.37643 ,2.22883 ,21.86932 
192 ,38.4145 ,1.37831 ,2.20830 ,21.66785 
193 ,38.6068 ,1.38023 ,2.18777 ,21.46638 
194 ,38.8148 ,1.38232 ,2.17066 ,21.29849 
195 ,39.0229 ,1.38440 ,2.17750 ,21.36564 
196 ,39.2629 ,1.38668 ,2.13644 ,20.96270 
197 ,39.4871 ,1.38892 ,2.11932 ,20.79481 
198 ,39.6791 ,1.39093 ,2.11248 ,20.72766 
199 ,39.8711 ,1.39287 ,2.09537 ,20.55976 
200 ,40.0793 ,1.39491 ,2.09879 ,20.59334 
201 ,40.2875 ,1.39701 ,2.06115 ,20.22398 
202 ,40.4794 ,1.39896 ,2.07826 ,20.39187 
203 ,40.6713 ,1.40086 ,2.03719 ,19.98893 
204 ,40.8634 ,1.40281 ,2.03035 ,19.92178 
205 ,41.0714 ,1.40487 ,2.00297 ,19.65315 
206 ,41.2796 ,1.40692 ,2.00297 ,19.65315 
207 ,41.4878 ,1.40899 ,1.98928 ,19.51884 
208 ,41.6799 ,1.41091 ,1.97559 ,19.38452 
209 ,41.8717 ,1.41282 ,1.95506 ,19.18305 
210 ,42.0641 ,1.41483 ,1.94137 ,19.04874 
211 ,42.2882 ,1.41692 ,1.91742 ,18.81369 
212 ,42.4961 ,1.41909 ,1.92426 ,18.88085 
213 ,42.6884 ,1.42102 ,1.88662 ,18.51149 
214 ,42.8964 ,1.42314 ,1.89346 ,18.57864 
215 ,43.1041 ,1.42518 ,1.86951 ,18.34360 
216 ,43.2966 ,1.42715 ,1.85240 ,18.17570 
217 ,43.5369 ,1.42953 ,1.83528 ,18.00781 
218 ,43.7447 ,1.43152 ,1.82502 ,17.90708 
219 ,43.9369 ,1.43355 ,1.81475 ,17.80634 
220 ,44.1290 ,1.43544 ,1.79080 ,17.57129 
221 ,44.3370 ,1.43747 ,1.78053 ,17.47056 
222 ,44.5291 ,1.43941 ,1.76000 ,17.26909 
223 ,44.7208 ,1.44132 ,1.76342 ,17.30267 
224 ,44.9132 ,1.44329 ,1.72235 ,16.89973 
225 ,45.1054 ,1.44523 ,1.71893 ,16.86615 
226 ,45.2970 ,1.44712 ,1.70866 ,16.76542 
227 ,45.4895 ,1.44903 ,1.68813 ,16.56395 
228 ,45.6977 ,1.45116 ,1.69498 ,16.63110 
229 ,45.9055 ,1.45321 ,1.66760 ,16.36248 
230 ,46.0977 ,1.45511 ,1.66418 ,16.32890 
231 ,46.2896 ,1.45702 ,1.62995 ,15.99311 
232 ,46.4817 ,1.45891 ,1.64707 ,16.16101 
233 ,46.6737 ,1.46092 ,1.61284 ,15.82522 
234 ,46.8659 ,1.46282 ,1.60600 ,15.75807 
235 ,47.0579 ,1.46473 ,1.59573 ,15.65733 
236 ,47.2661 ,1.46683 ,1.57862 ,15.48944 
237 ,47.4738 ,1.46875 ,1.57862 ,15.48944 
238 ,47.6823 ,1.47094 ,1.55809 ,15.28797 
239 ,47.9063 ,1.47321 ,1.52387 ,14.95219 
240 ,48.0986 ,1.47516 ,1.52387 ,14.95219 
241 ,48.2907 ,1.47706 ,1.50333 ,14.75072 
242 ,48.5147 ,1.47914 ,1.49649 ,14.68356 
243 ,48.7068 ,1.48118 ,1.47253 ,14.44851 
244 ,48.9149 ,1.48328 ,1.46911 ,14.41493 
245 ,49.1070 ,1.48523 ,1.44516 ,14.17989 
246 ,49.3150 ,1.48720 ,1.43831 ,14.11273 
247 ,49.5230 ,1.48935 ,1.42120 ,13.94484 
248 ,49.7147 ,1.49125 ,1.40751 ,13.81053 
249 ,49.9073 ,1.49321 ,1.39040 ,13.64263 
250 ,50.1153 ,1.49529 ,1.38014 ,13.54190 
251 ,50.3075 ,1.49722 ,1.36303 ,13.37401 
252 ,50.4994 ,1.49908 ,1.36303 ,13.37401 
253 ,50.6916 ,1.50102 ,1.33223 ,13.07180 
254 ,50.8675 ,1.50293 ,1.32880 ,13.03822 
255 ,51.1078 ,1.50504 ,1.30827 ,12.83675 
256 ,51.2996 ,1.50713 ,1.31169 ,12.87033 
257 ,51.5080 ,1.50918 ,1.29116 ,12.66886 
258 ,51.7161 ,1.51128 ,1.27405 ,12.50097 
259 ,51.9076 ,1.51318 ,1.25352 ,12.29950 
260 ,52.1158 ,1.51516 ,1.25694 ,12.33308 
261 ,52.3083 ,1.51723 ,1.22956 ,12.06445 
262 ,52.5002 ,1.51912 ,1.22956 ,12.06445 
263 ,52.6924 ,1.52099 ,1.20218 ,11.79583 
264 ,52.8844 ,1.52296 ,1.20561 ,11.82941 
265 ,53.0764 ,1.52498 ,1.17481 ,11.52720 
266 ,53.2682 ,1.52682 ,1.16454 ,11.42647 
267 ,53.4605 ,1.52871 ,1.17481 ,11.52720 
268 ,53.6525 ,1.53062 ,1.13716 ,11.15784 
269 ,53.8449 ,1.53255 ,1.14743 ,11.25857 
270 ,54.0527 ,1.53463 ,1.11321 ,10.92279 
271 ,54.2771 ,1.53673 ,1.11321 ,10.92279 
272 ,54.4851 ,1.53898 ,1.09610 ,10.75490 
273 ,54.6932 ,1.54102 ,1.06872 ,10.48627 
274 ,54.8854 ,1.54295 ,1.06530 ,10.45270 
275 ,55.0934 ,1.54502 ,1.04476 ,10.25123 
276 ,55.2853 ,1.54695 ,1.05161 ,10.31838 
277 ,55.4776 ,1.54884 ,1.03792 ,10.18407 
278 ,55.6697 ,1.55081 ,1.01054 ,9.91544 
279 ,55.8776 ,1.55285 ,1.00712 ,9.88186 
280 ,56.0698 ,1.55482 ,0.97632 ,9.57966 
281 ,56.2616 ,1.55670 ,0.98317 ,9.64682 
282 ,56.4538 ,1.55870 ,0.95921 ,9.41177 
283 ,56.6618 ,1.56068 ,0.96605 ,9.47892 
284 ,56.8699 ,1.56281 ,0.93525 ,9.17672 
285 ,57.0939 ,1.56499 ,0.91814 ,9.00883 
286 ,57.3023 ,1.56714 ,0.91814 ,9.00883 
287 ,57.4940 ,1.56906 ,0.89761 ,8.80736 
288 ,57.6866 ,1.57095 ,0.89077 ,8.74020 
289 ,57.8945 ,1.57307 ,0.86339 ,8.47158 
290 ,58.0704 ,1.57495 ,0.87366 ,8.57231 
291 ,58.2789 ,1.57684 ,0.85312 ,8.37084 
292 ,58.4703 ,1.57880 ,0.82575 ,8.10221 
293 ,58.6789 ,1.58079 ,0.82917 ,8.13579 
294 ,58.8870 ,1.58293 ,0.81890 ,8.03506 
295 ,59.0790 ,1.58486 ,0.80863 ,7.93432 
296 ,59.2709 ,1.58680 ,0.78126 ,7.66570 
297 ,59.4630 ,1.58869 ,0.79495 ,7.80001 
298 ,59.6387 ,1.59060 ,0.75730 ,7.43065 
299 ,59.8313 ,1.59238 ,0.75046 ,7.36349 
300 ,60.0392 ,1.59435 ,0.74361 ,7.29633 
301 ,60.2474 ,1.59650 ,0.71966 ,7.06129 
302 ,60.4397 ,1.59844 ,0.71966 ,7.06129 
303 ,60.6475 ,1.60053 ,0.70597 ,6.92697 
304 ,60.8558 ,1.60264 ,0.68544 ,6.72550 
305 ,61.0636 ,1.60483 ,0.68886 ,6.75908 
306 ,61.2398 ,1.60662 ,0.64437 ,6.32256 
307 ,61.4321 ,1.60840 ,0.63753 ,6.25541 
308 ,61.6242 ,1.61034 ,0.64779 ,6.35614 
309 ,61.8157 ,1.61220 ,0.62726 ,6.15467 
310 ,62.0082 ,1.61413 ,0.59988 ,5.88605 
311 ,62.2002 ,1.61602 ,0.62042 ,6.08752 
312 ,62.3920 ,1.61797 ,0.57935 ,5.68458 
313 ,62.5845 ,1.61988 ,0.57935 ,5.68458 
314 ,62.7765 ,1.62192 ,0.55539 ,5.44953 
315 ,62.9685 ,1.62376 ,0.55882 ,5.48311 
316 ,63.1766 ,1.62583 ,0.53486 ,5.24806 
317 ,63.3687 ,1.62774 ,0.52802 ,5.18090 
318 ,63.5608 ,1.62964 ,0.52802 ,5.18090 
319 ,63.7529 ,1.63162 ,0.50406 ,4.94585 
320 ,63.9607 ,1.63366 ,0.50406 ,4.94585 
321 ,64.1530 ,1.63563 ,0.47668 ,4.67723 
322 ,64.3611 ,1.63762 ,0.48353 ,4.74438 
323 ,64.5534 ,1.63960 ,0.44246 ,4.34144 
324 ,64.7454 ,1.64153 ,0.45273 ,4.44218 
325 ,64.9376 ,1.64347 ,0.42877 ,4.20713 
326 ,65.1294 ,1.64536 ,0.42193 ,4.13997 
327 ,65.3216 ,1.64727 ,0.41509 ,4.07282 
328 ,65.5135 ,1.64918 ,0.40482 ,3.97208 
329 ,65.7058 ,1.65109 ,0.39797 ,3.90493 
330 ,65.9134 ,1.65310 ,0.38086 ,3.73703 
331 ,66.1058 ,1.65511 ,0.37402 ,3.66988 
332 ,66.3140 ,1.65714 ,0.35349 ,3.46841 
333 ,66.5221 ,1.65925 ,0.35349 ,3.46841 
334 ,66.7142 ,1.66123 ,0.32611 ,3.19978 
335 ,66.9222 ,1.66320 ,0.32269 ,3.16620 
336 ,67.1143 ,1.66517 ,0.31242 ,3.06547 
337 ,67.3065 ,1.66715 ,0.31926 ,3.13263 
338 ,67.5143 ,1.66918 ,0.27135 ,2.66253 
339 ,67.7066 ,1.67112 ,0.28162 ,2.76326 
340 ,67.9145 ,1.67320 ,0.25767 ,2.52822 
341 ,68.1068 ,1.67517 ,0.27135 ,2.66253 
342 ,68.2983 ,1.67705 ,0.24398 ,2.39390 
343 ,68.4749 ,1.67892 ,0.23713 ,2.32675 
344 ,68.6828 ,1.68088 ,0.24398 ,2.39390 
345 ,68.8750 ,1.68282 ,0.21660 ,2.12528 
346 ,69.0991 ,1.68502 ,0.20291 ,1.99096 
347 ,69.3071 ,1.68712 ,0.18922 ,1.85665 
348 ,69.4991 ,1.68902 ,0.18922 ,1.85665 
349 ,69.7074 ,1.69116 ,0.17211 ,1.68876 
350 ,69.8994 ,1.69307 ,0.16185 ,1.58802 
351 ,70.0916 ,1.69496 ,0.14131 ,1.38655 
352 ,70.2836 ,1.69687 ,0.14131 ,1.38655 
353 ,70.4913 ,1.69896 ,0.12078 ,1.18508 
354 ,70.6836 ,1.70091 ,0.12078 ,1.18508 
355 ,70.8914 ,1.70294 ,0.10025 ,0.98361 
356 ,71.0839 ,1.70486 ,0.09682 ,0.95004 
357 ,71.2919 ,1.70693 ,0.06945 ,0.68141 
358 ,71.4841 ,1.70885 ,0.08314 ,0.81572 
359 ,71.7082 ,1.71100 ,0.04549 ,0.44636 
360 ,71.9157 ,1.71323 ,0.04207 ,0.41278 
361 ,72.1245 ,1.71532 ,0.05234 ,0.51352 
362 ,72.3323 ,1.71729 ,0.02496 ,0.24489 
363 ,72.5244 ,1.71930 ,0.01811 ,0.17773 
364 ,72.7161 ,1.72118 ,0.01127 ,0.11058 
365 ,72.9245 ,1.72317 ,0.00443 ,0.04342 
366 ,73.1168 ,1.72521 ,-0.01953 ,-0.19163 
367 ,73.3251 ,1.72732 ,-0.01611 ,-0.15805 
368 ,73.5331 ,1.72933 ,-0.02980 ,-0.29236 
369 ,73.7246 ,1.73128 ,-0.02980 ,-0.29236 
370 ,73.9170 ,1.73318 ,-0.05717 ,-0.56099 
371 ,74.1252 ,1.73529 ,-0.05033 ,-0.49383 
372 ,74.3173 ,1.73722 ,-0.09482 ,-0.93035 
373 ,74.5093 ,1.73910 ,-0.08455 ,-0.82961 
374 ,74.7015 ,1.74104 ,-0.08797 ,-0.86319 
375 ,74.8931 ,1.74297 ,-0.10851 ,-1.06466 
376 ,75.1014 ,1.74491 ,-0.10166 ,-0.99751 
377 ,75.2936 ,1.74695 ,-0.12219 ,-1.19898 
378 ,75.4858 ,1.74886 ,-0.12219 ,-1.19898 
379 ,75.7098 ,1.75102 ,-0.15984 ,-1.56834 
380 ,75.9336 ,1.75331 ,-0.16668 ,-1.63549 
381 ,76.1260 ,1.75533 ,-0.15984 ,-1.56834 
382 ,76.3181 ,1.75717 ,-0.18037 ,-1.76981 
383 ,76.5102 ,1.75908 ,-0.18722 ,-1.83696 
384 ,76.7020 ,1.76100 ,-0.19064 ,-1.87054 
385 ,76.8943 ,1.76293 ,-0.21459 ,-2.10559 
386 ,77.0700 ,1.76487 ,-0.19748 ,-1.93770 
387 ,77.2623 ,1.76663 ,-0.21802 ,-2.13917 
388 ,77.4705 ,1.76872 ,-0.22828 ,-2.23990 
389 ,77.6625 ,1.77062 ,-0.23513 ,-2.30706 
390 ,77.8543 ,1.77255 ,-0.26250 ,-2.57569 
391 ,78.0463 ,1.77446 ,-0.25908 ,-2.54211 
392 ,78.2384 ,1.77640 ,-0.27961 ,-2.74358 
393 ,78.4468 ,1.77838 ,-0.28988 ,-2.84431 
394 ,78.6550 ,1.78058 ,-0.28988 ,-2.84431 
395 ,78.8472 ,1.78250 ,-0.28646 ,-2.81073 
396 ,79.0392 ,1.78441 ,-0.32410 ,-3.18010 
397 ,79.2469 ,1.78644 ,-0.31041 ,-3.04578 
398 ,79.4393 ,1.78841 ,-0.34464 ,-3.38156 
399 ,79.6313 ,1.79032 ,-0.33779 ,-3.31441 
400 ,79.8393 ,1.79228 ,-0.34806 ,-3.41514 
401 ,80.0315 ,1.79432 ,-0.36175 ,-3.54946 
402 ,80.2237 ,1.79629 ,-0.36175 ,-3.54946 
403 ,80.4314 ,1.79833 ,-0.38912 ,-3.81808 
404 ,80.6237 ,1.80021 ,-0.38570 ,-3.78450 
405 ,80.8160 ,1.80215 ,-0.40966 ,-4.01955 
406 ,81.0079 ,1.80415 ,-0.40623 ,-3.98597 
407 ,81.2001 ,1.80603 ,-0.42677 ,-4.18744 
408 ,81.3918 ,1.80794 ,-0.43361 ,-4.25460 
409 ,81.6003 ,1.80996 ,-0.43703 ,-4.28818 
410 ,81.8082 ,1.81212 ,-0.43361 ,-4.25460 
411 ,82.0001 ,1.81402 ,-0.45414 ,-4.45607 
412 ,82.2086 ,1.81604 ,-0.45757 ,-4.48965 
413 ,82.4007 ,1.81801 ,-0.47810 ,-4.69112 
414 ,82.6087 ,1.82006 ,-0.47126 ,-4.62396 
415 ,82.8168 ,1.82216 ,-0.49863 ,-4.89259 
416 ,83.0084 ,1.82407 ,-0.49863 ,-4.89259 
417 ,83.2005 ,1.82601 ,-0.51917 ,-5.09406 
418 ,83.3925 ,1.82795 ,-0.52259 ,-5.12764 
419 ,83.6007 ,1.82986 ,-0.52259 ,-5.12764 
420 ,83.8252 ,1.83209 ,-0.53970 ,-5.29553 
421 ,84.0332 ,1.83435 ,-0.56023 ,-5.49700 
422 ,84.2414 ,1.83642 ,-0.56365 ,-5.53058 
423 ,84.4335 ,1.83833 ,-0.58419 ,-5.73205 
424 ,84.6256 ,1.84028 ,-0.58077 ,-5.69847 
425 ,84.8174 ,1.84216 ,-0.59788 ,-5.86636 
426 ,85.0097 ,1.84411 ,-0.59445 ,-5.83278 
427 ,85.2017 ,1.84598 ,-0.61841 ,-6.06783 
428 ,85.3937 ,1.84792 ,-0.62525 ,-6.13499 
429 ,85.5860 ,1.84986 ,-0.61841 ,-6.06783 
430 ,85.7778 ,1.85181 ,-0.64921 ,-6.37003 
431 ,86.0021 ,1.85388 ,-0.64236 ,-6.30288 
432 ,86.2102 ,1.85611 ,-0.65605 ,-6.43719 
433 ,86.4020 ,1.85800 ,-0.65263 ,-6.40361 
434 ,86.6102 ,1.86007 ,-0.66632 ,-6.53793 
435 ,86.8183 ,1.86206 ,-0.68001 ,-6.67224 
436 ,87.0425 ,1.86432 ,-0.67659 ,-6.63866 
437 ,87.2345 ,1.86633 ,-0.71765 ,-7.04160 
438 ,87.4269 ,1.86822 ,-0.70396 ,-6.90729 
439 ,87.6350 ,1.87023 ,-0.72450 ,-7.10876 
440 ,87.8271 ,1.87227 ,-0.72792 ,-7.14233 
441 ,88.0185 ,1.87421 ,-0.74161 ,-7.27665 
442 ,88.2110 ,1.87608 ,-0.75872 ,-7.44454 
443 ,88.4031 ,1.87800 ,-0.74845 ,-7.34380 
444 ,88.5952 ,1.87993 ,-0.77925 ,-7.64601 
445 ,88.8032 ,1.88198 ,-0.76898 ,-7.54527 
446 ,88.9954 ,1.88392 ,-0.78952 ,-7.74674 
447 ,89.2034 ,1.88602 ,-0.77925 ,-7.64601 
448 ,89.4115 ,1.88809 ,-0.80321 ,-7.88106 
449 ,89.6036 ,1.89000 ,-0.81005 ,-7.94821 
450 ,89.8117 ,1.89202 ,-0.81347 ,-7.98179 
451 ,89.9877 ,1.89396 ,-0.83058 ,-8.14968 
452 ,90.1954 ,1.89584 ,-0.83743 ,-8.21684 
453 ,90.3880 ,1.89785 ,-0.83743 ,-8.21684 
454 ,90.5800 ,1.89981 ,-0.85796 ,-8.41831 
455 ,90.7880 ,1.90185 ,-0.85454 ,-8.38473 
456 ,90.9802 ,1.90373 ,-0.86481 ,-8.48547 
457 ,91.1882 ,1.90584 ,-0.87849 ,-8.61978 
458 ,91.3804 ,1.90771 ,-0.88192 ,-8.65336 
459 ,91.5722 ,1.90965 ,-0.90245 ,-8.85483 
460 ,91.7485 ,1.91157 ,-0.89903 ,-8.82125 
461 ,91.9406 ,1.91335 ,-0.90929 ,-8.92198 
462 ,92.1486 ,1.91543 ,-0.92298 ,-9.05630 
463 ,92.3564 ,1.91755 ,-0.93325 ,-9.15703 
