Data stamp = , 30-04-2022 06:06:52 064

Calibration Values: 
Slope = , 26.54 , g/V 
Offset Voltage at no contact = , -0.501760 , V 

No , Time , Stage Position ,   Mass , Force 
   ,  (s) ,      (mm)      ,   (g)  , (mN)  

1 ,0.0000 ,0.99942 ,5.39434 ,52.92925 
2 ,0.2142 ,0.99949 ,5.39092 ,52.89567 
3 ,0.7265 ,1.00141 ,5.38749 ,52.86209 
4 ,0.9504 ,1.00361 ,5.38065 ,52.79493 
5 ,1.1429 ,1.00554 ,5.41487 ,53.13072 
6 ,1.3351 ,1.00745 ,5.38407 ,52.82851 
7 ,1.5269 ,1.00939 ,5.36354 ,52.62704 
8 ,1.7349 ,1.01144 ,5.34301 ,52.42557 
9 ,1.9268 ,1.01341 ,5.33274 ,52.32484 
10 ,2.1033 ,1.01529 ,5.32589 ,52.25768 
11 ,2.3274 ,1.01742 ,5.30536 ,52.05621 
12 ,2.5355 ,1.01950 ,5.26772 ,51.68685 
13 ,2.7274 ,1.02140 ,5.26772 ,51.68685 
14 ,2.9354 ,1.02352 ,5.22323 ,51.25033 
15 ,3.1276 ,1.02539 ,5.22665 ,51.28391 
16 ,3.3195 ,1.02733 ,5.20270 ,51.04886 
17 ,3.5118 ,1.02927 ,5.17874 ,50.81381 
18 ,3.7040 ,1.03119 ,5.17874 ,50.81381 
19 ,3.8962 ,1.03312 ,5.13425 ,50.37729 
20 ,4.0881 ,1.03505 ,5.12399 ,50.27656 
21 ,4.2802 ,1.03704 ,5.12056 ,50.24298 
22 ,4.4721 ,1.03903 ,5.09661 ,50.00793 
23 ,4.6644 ,1.04083 ,5.09319 ,49.97436 
24 ,4.8724 ,1.04290 ,5.05212 ,49.57142 
25 ,5.0641 ,1.04479 ,5.03159 ,49.36995 
26 ,5.2563 ,1.04671 ,5.02132 ,49.26921 
27 ,5.4483 ,1.04865 ,4.99394 ,49.00058 
28 ,5.6406 ,1.05053 ,4.98368 ,48.89985 
29 ,5.8487 ,1.05263 ,4.95288 ,48.59764 
30 ,6.0407 ,1.05460 ,4.93577 ,48.42975 
31 ,6.2329 ,1.05654 ,4.90839 ,48.16113 
32 ,6.4411 ,1.05852 ,4.91181 ,48.19471 
33 ,6.6330 ,1.06049 ,4.87759 ,47.85892 
34 ,6.8412 ,1.06257 ,4.86732 ,47.75819 
35 ,7.0331 ,1.06442 ,4.83652 ,47.45598 
36 ,7.2253 ,1.06638 ,4.82968 ,47.38883 
37 ,7.4177 ,1.06834 ,4.80915 ,47.18736 
38 ,7.6251 ,1.07039 ,4.79888 ,47.08662 
39 ,7.8174 ,1.07234 ,4.76808 ,46.78442 
40 ,7.9933 ,1.07416 ,4.74755 ,46.58295 
41 ,8.1852 ,1.07595 ,4.72702 ,46.38148 
42 ,8.3777 ,1.07792 ,4.72017 ,46.31432 
43 ,8.5859 ,1.08003 ,4.69964 ,46.11285 
44 ,8.7779 ,1.08191 ,4.68595 ,45.97854 
45 ,8.9701 ,1.08384 ,4.65857 ,45.70991 
46 ,9.1621 ,1.08585 ,4.65515 ,45.67633 
47 ,9.3540 ,1.08767 ,4.62093 ,45.34055 
48 ,9.5623 ,1.08979 ,4.61066 ,45.23981 
49 ,9.7540 ,1.09169 ,4.58671 ,45.00477 
50 ,9.9785 ,1.09397 ,4.56960 ,44.83688 
51 ,10.1861 ,1.09597 ,4.55933 ,44.73614 
52 ,10.3786 ,1.09793 ,4.53880 ,44.53467 
53 ,10.5867 ,1.09999 ,4.51484 ,44.29962 
54 ,10.7788 ,1.10193 ,4.49089 ,44.06457 
55 ,10.9547 ,1.10378 ,4.46693 ,43.82953 
56 ,11.1468 ,1.10563 ,4.45666 ,43.72879 
57 ,11.3551 ,1.10768 ,4.42586 ,43.42659 
58 ,11.5466 ,1.10959 ,4.43271 ,43.49374 
59 ,11.7390 ,1.11149 ,4.40533 ,43.22512 
60 ,11.9309 ,1.11341 ,4.39849 ,43.15796 
61 ,12.1391 ,1.11542 ,4.38822 ,43.05723 
62 ,12.3470 ,1.11752 ,4.36427 ,42.82218 
63 ,12.5392 ,1.11948 ,4.32320 ,42.41924 
64 ,12.7314 ,1.12144 ,4.32662 ,42.45282 
65 ,12.9397 ,1.12345 ,4.30951 ,42.28492 
66 ,13.1157 ,1.12539 ,4.28898 ,42.08345 
67 ,13.3079 ,1.12716 ,4.27871 ,41.98272 
68 ,13.4999 ,1.12912 ,4.26502 ,41.84841 
69 ,13.7079 ,1.13121 ,4.24449 ,41.64694 
70 ,13.8998 ,1.13315 ,4.22396 ,41.44547 
71 ,14.0918 ,1.13507 ,4.18974 ,41.10968 
72 ,14.3000 ,1.13702 ,4.20685 ,41.27758 
73 ,14.5084 ,1.13920 ,4.16920 ,40.90821 
74 ,14.7005 ,1.14116 ,4.14867 ,40.70674 
75 ,14.8925 ,1.14306 ,4.12129 ,40.43812 
76 ,15.0847 ,1.14498 ,4.13156 ,40.53885 
77 ,15.2925 ,1.14707 ,4.09391 ,40.16949 
78 ,15.4847 ,1.14899 ,4.09391 ,40.16949 
79 ,15.6768 ,1.15087 ,4.05627 ,39.80013 
80 ,15.8689 ,1.15284 ,4.03574 ,39.59866 
81 ,16.0771 ,1.15488 ,4.02889 ,39.53150 
82 ,16.2688 ,1.15683 ,4.01863 ,39.43077 
83 ,16.4771 ,1.15893 ,3.98783 ,39.12856 
84 ,16.6853 ,1.16093 ,3.97756 ,39.02783 
85 ,16.8773 ,1.16294 ,3.96387 ,38.89352 
86 ,17.0854 ,1.16492 ,3.95018 ,38.75920 
87 ,17.3095 ,1.16714 ,3.91254 ,38.38984 
88 ,17.5016 ,1.16915 ,3.91254 ,38.38984 
89 ,17.7096 ,1.17113 ,3.88516 ,38.12122 
90 ,17.9015 ,1.17316 ,3.88516 ,38.12122 
91 ,18.1097 ,1.17523 ,3.85436 ,37.81901 
92 ,18.3019 ,1.17715 ,3.84067 ,37.68470 
93 ,18.4936 ,1.17900 ,3.80987 ,37.38249 
94 ,18.6861 ,1.18097 ,3.81330 ,37.41607 
95 ,18.8941 ,1.18308 ,3.77223 ,37.01313 
96 ,19.0861 ,1.18495 ,3.77565 ,37.04671 
97 ,19.2783 ,1.18687 ,3.74828 ,36.77808 
98 ,19.4860 ,1.18894 ,3.74143 ,36.71093 
99 ,19.6623 ,1.19087 ,3.72774 ,36.57661 
100 ,19.8545 ,1.19260 ,3.68325 ,36.14010 
101 ,20.0625 ,1.19476 ,3.69010 ,36.20725 
102 ,20.2547 ,1.19668 ,3.65930 ,35.90505 
103 ,20.4625 ,1.19869 ,3.65588 ,35.87147 
104 ,20.6705 ,1.20071 ,3.62508 ,35.56926 
105 ,20.8628 ,1.20273 ,3.62166 ,35.53569 
106 ,21.0710 ,1.20484 ,3.58743 ,35.19990 
107 ,21.2629 ,1.20673 ,3.59770 ,35.30064 
108 ,21.4552 ,1.20858 ,3.53952 ,34.72981 
109 ,21.6472 ,1.21053 ,3.55663 ,34.89770 
110 ,21.8390 ,1.21245 ,3.51215 ,34.46118 
111 ,22.0317 ,1.21439 ,3.50872 ,34.42760 
112 ,22.2396 ,1.21636 ,3.50872 ,34.42760 
113 ,22.4475 ,1.21853 ,3.48477 ,34.19255 
114 ,22.6398 ,1.22048 ,3.46081 ,33.95751 
115 ,22.8474 ,1.22251 ,3.44713 ,33.82319 
116 ,23.0400 ,1.22446 ,3.44028 ,33.75604 
117 ,23.2641 ,1.22661 ,3.43001 ,33.65530 
118 ,23.4720 ,1.22881 ,3.39237 ,33.28594 
119 ,23.6642 ,1.23072 ,3.38895 ,33.25236 
120 ,23.8723 ,1.23267 ,3.35130 ,32.88300 
121 ,24.0642 ,1.23468 ,3.35473 ,32.91658 
122 ,24.2563 ,1.23659 ,3.32051 ,32.58080 
123 ,24.4485 ,1.23851 ,3.32735 ,32.64795 
124 ,24.6564 ,1.24066 ,3.28628 ,32.24501 
125 ,24.8486 ,1.24254 ,3.28971 ,32.27859 
126 ,25.0561 ,1.24474 ,3.25548 ,31.94281 
127 ,25.2488 ,1.24653 ,3.24522 ,31.84207 
128 ,25.4408 ,1.24853 ,3.22468 ,31.64060 
129 ,25.6490 ,1.25052 ,3.22126 ,31.60702 
130 ,25.8410 ,1.25251 ,3.20415 ,31.43913 
131 ,26.0332 ,1.25442 ,3.17335 ,31.13693 
132 ,26.2252 ,1.25633 ,3.16993 ,31.10335 
133 ,26.4332 ,1.25838 ,3.13229 ,30.73399 
134 ,26.6253 ,1.26032 ,3.13913 ,30.80115 
135 ,26.8173 ,1.26220 ,3.11175 ,30.53252 
136 ,27.0094 ,1.26414 ,3.09122 ,30.33105 
137 ,27.2013 ,1.26611 ,3.09464 ,30.36463 
138 ,27.3775 ,1.26804 ,3.05700 ,29.99527 
139 ,27.6018 ,1.26998 ,3.06042 ,30.02884 
140 ,27.7935 ,1.27204 ,3.01593 ,29.59233 
141 ,27.9860 ,1.27392 ,3.02278 ,29.65948 
142 ,28.1777 ,1.27586 ,3.00909 ,29.52517 
143 ,28.3857 ,1.27787 ,2.99198 ,29.35728 
144 ,28.5779 ,1.27979 ,2.95776 ,29.02150 
145 ,28.7702 ,1.28177 ,2.95776 ,29.02150 
146 ,28.9618 ,1.28377 ,2.93380 ,28.78645 
147 ,29.1380 ,1.28551 ,2.91669 ,28.61856 
148 ,29.3302 ,1.28731 ,2.90985 ,28.55140 
149 ,29.5386 ,1.28947 ,2.89958 ,28.45066 
150 ,29.7465 ,1.29153 ,2.87220 ,28.18204 
151 ,29.9387 ,1.29342 ,2.85851 ,28.04772 
152 ,30.1463 ,1.29552 ,2.84140 ,27.87983 
153 ,30.3387 ,1.29740 ,2.82429 ,27.71194 
154 ,30.5308 ,1.29938 ,2.82087 ,27.67836 
155 ,30.7390 ,1.30141 ,2.77980 ,27.27542 
156 ,30.9311 ,1.30335 ,2.77296 ,27.20827 
157 ,31.1232 ,1.30527 ,2.77296 ,27.20827 
158 ,31.3154 ,1.30715 ,2.74900 ,26.97322 
159 ,31.5232 ,1.30932 ,2.74216 ,26.90606 
160 ,31.7315 ,1.31129 ,2.71136 ,26.60386 
161 ,31.9395 ,1.31345 ,2.71136 ,26.60386 
162 ,32.1313 ,1.31540 ,2.69083 ,26.40239 
163 ,32.3238 ,1.31730 ,2.67714 ,26.26807 
164 ,32.5319 ,1.31939 ,2.65660 ,26.06661 
165 ,32.7238 ,1.32125 ,2.65660 ,26.06661 
166 ,32.9320 ,1.32323 ,2.62238 ,25.73082 
167 ,33.1398 ,1.32543 ,2.60527 ,25.56293 
168 ,33.3322 ,1.32738 ,2.59158 ,25.42862 
169 ,33.5400 ,1.32941 ,2.58132 ,25.32788 
170 ,33.7478 ,1.33152 ,2.56421 ,25.15999 
171 ,33.9404 ,1.33346 ,2.55052 ,25.02568 
172 ,34.1324 ,1.33540 ,2.51630 ,24.68989 
173 ,34.3246 ,1.33726 ,2.52656 ,24.79063 
174 ,34.5326 ,1.33923 ,2.49576 ,24.48842 
175 ,34.7248 ,1.34132 ,2.49576 ,24.48842 
176 ,34.9167 ,1.34321 ,2.46154 ,24.15264 
177 ,35.1084 ,1.34515 ,2.46154 ,24.15264 
178 ,35.3330 ,1.34728 ,2.42732 ,23.81686 
179 ,35.5411 ,1.34945 ,2.42390 ,23.78328 
180 ,35.7331 ,1.35136 ,2.39994 ,23.54823 
181 ,35.9407 ,1.35343 ,2.38968 ,23.44750 
182 ,36.1329 ,1.35532 ,2.36914 ,23.24603 
183 ,36.3255 ,1.35726 ,2.36572 ,23.21245 
184 ,36.5174 ,1.35923 ,2.33492 ,22.91024 
185 ,36.7255 ,1.36126 ,2.32808 ,22.84309 
186 ,36.9336 ,1.36337 ,2.30070 ,22.57446 
187 ,37.1417 ,1.36548 ,2.30412 ,22.60804 
188 ,37.3496 ,1.36751 ,2.28017 ,22.37299 
189 ,37.5417 ,1.36942 ,2.27674 ,22.33941 
190 ,37.7339 ,1.37143 ,2.25621 ,22.13794 
191 ,37.9259 ,1.37327 ,2.24594 ,22.03721 
192 ,38.1015 ,1.37516 ,2.22199 ,21.80216 
193 ,38.2941 ,1.37695 ,2.20830 ,21.66785 
194 ,38.4861 ,1.37885 ,2.20488 ,21.63427 
195 ,38.7104 ,1.38101 ,2.18435 ,21.43280 
196 ,38.9024 ,1.38303 ,2.17408 ,21.33206 
197 ,39.0944 ,1.38500 ,2.15012 ,21.09702 
198 ,39.3026 ,1.38707 ,2.13301 ,20.92912 
199 ,39.5107 ,1.38917 ,2.11590 ,20.76123 
200 ,39.7028 ,1.39106 ,2.12959 ,20.89555 
201 ,39.9108 ,1.39316 ,2.08852 ,20.49261 
202 ,40.1188 ,1.39519 ,2.07141 ,20.32472 
203 ,40.3110 ,1.39717 ,2.06457 ,20.25756 
204 ,40.5030 ,1.39904 ,2.06115 ,20.22398 
205 ,40.6952 ,1.40096 ,2.03377 ,19.95535 
206 ,40.8871 ,1.40288 ,2.03719 ,19.98893 
207 ,41.0791 ,1.40478 ,2.00297 ,19.65315 
208 ,41.2713 ,1.40675 ,1.99955 ,19.61957 
209 ,41.4955 ,1.40889 ,1.99270 ,19.55241 
210 ,41.7033 ,1.41106 ,1.96875 ,19.31737 
211 ,41.9115 ,1.41317 ,1.94479 ,19.08232 
212 ,42.1035 ,1.41500 ,1.94137 ,19.04874 
213 ,42.2958 ,1.41696 ,1.91057 ,18.74654 
214 ,42.4877 ,1.41890 ,1.91399 ,18.78011 
215 ,42.6959 ,1.42097 ,1.87635 ,18.41075 
216 ,42.9198 ,1.42310 ,1.88662 ,18.51149 
217 ,43.1121 ,1.42513 ,1.85582 ,18.20928 
218 ,43.3203 ,1.42722 ,1.85240 ,18.17570 
219 ,43.5117 ,1.42913 ,1.82844 ,17.94066 
220 ,43.7042 ,1.43107 ,1.83186 ,17.97423 
221 ,43.8963 ,1.43292 ,1.80449 ,17.70561 
222 ,44.0882 ,1.43488 ,1.80791 ,17.73919 
223 ,44.2806 ,1.43684 ,1.77369 ,17.40340 
224 ,44.4725 ,1.43872 ,1.77026 ,17.36983 
225 ,44.6644 ,1.44059 ,1.77026 ,17.36983 
226 ,44.8562 ,1.44250 ,1.73604 ,17.03404 
227 ,45.0484 ,1.44453 ,1.72578 ,16.93331 
228 ,45.2404 ,1.44643 ,1.70182 ,16.69826 
229 ,45.4323 ,1.44833 ,1.69155 ,16.59752 
230 ,45.6249 ,1.45024 ,1.69840 ,16.66468 
231 ,45.8490 ,1.45240 ,1.66418 ,16.32890 
232 ,46.0412 ,1.45447 ,1.66075 ,16.29532 
233 ,46.2332 ,1.45630 ,1.65049 ,16.19458 
234 ,46.4409 ,1.45837 ,1.62311 ,15.92596 
235 ,46.6329 ,1.46034 ,1.61284 ,15.82522 
236 ,46.8250 ,1.46225 ,1.61969 ,15.89238 
237 ,47.0176 ,1.46419 ,1.58547 ,15.55660 
238 ,47.2417 ,1.46633 ,1.59231 ,15.62375 
239 ,47.4337 ,1.46831 ,1.54782 ,15.18724 
240 ,47.6260 ,1.47028 ,1.56151 ,15.32155 
241 ,47.8177 ,1.47215 ,1.52045 ,14.91861 
242 ,47.9939 ,1.47406 ,1.53756 ,15.08650 
243 ,48.1859 ,1.47583 ,1.52045 ,14.91861 
244 ,48.3781 ,1.47780 ,1.49307 ,14.64998 
245 ,48.5702 ,1.47965 ,1.47938 ,14.51567 
246 ,48.7623 ,1.48158 ,1.47253 ,14.44851 
247 ,48.9540 ,1.48353 ,1.45542 ,14.28062 
248 ,49.1462 ,1.48545 ,1.45885 ,14.31420 
249 ,49.3544 ,1.48751 ,1.41778 ,13.91126 
250 ,49.5462 ,1.48939 ,1.42462 ,13.97842 
251 ,49.7384 ,1.49131 ,1.40751 ,13.81053 
252 ,49.9308 ,1.49325 ,1.39383 ,13.67621 
253 ,50.1224 ,1.49531 ,1.38014 ,13.54190 
254 ,50.3148 ,1.49713 ,1.35960 ,13.34043 
255 ,50.5069 ,1.49902 ,1.35618 ,13.30685 
256 ,50.6990 ,1.50093 ,1.33907 ,13.13896 
257 ,50.9071 ,1.50303 ,1.32880 ,13.03822 
258 ,51.0992 ,1.50498 ,1.30485 ,12.80318 
259 ,51.2913 ,1.50691 ,1.29458 ,12.70244 
260 ,51.4994 ,1.50892 ,1.28774 ,12.63528 
261 ,51.7074 ,1.51109 ,1.27747 ,12.53455 
262 ,51.9154 ,1.51309 ,1.25009 ,12.26592 
263 ,52.1073 ,1.51504 ,1.25352 ,12.29950 
264 ,52.3157 ,1.51714 ,1.21587 ,11.93014 
265 ,52.5076 ,1.51904 ,1.23298 ,12.09803 
266 ,52.6999 ,1.52099 ,1.21245 ,11.89656 
267 ,52.9078 ,1.52300 ,1.19534 ,11.72867 
268 ,53.1000 ,1.52492 ,1.18165 ,11.59436 
269 ,53.3078 ,1.52708 ,1.17823 ,11.56078 
270 ,53.5002 ,1.52901 ,1.16454 ,11.42647 
271 ,53.7081 ,1.53106 ,1.13374 ,11.12426 
272 ,53.9003 ,1.53298 ,1.12347 ,11.02353 
273 ,54.0924 ,1.53486 ,1.10636 ,10.85563 
274 ,54.2844 ,1.53682 ,1.11321 ,10.92279 
275 ,54.4762 ,1.53870 ,1.07556 ,10.55343 
276 ,54.6686 ,1.54067 ,1.07556 ,10.55343 
277 ,54.8608 ,1.54258 ,1.06187 ,10.41912 
278 ,55.0528 ,1.54451 ,1.03792 ,10.18407 
279 ,55.2449 ,1.54638 ,1.05161 ,10.31838 
280 ,55.4370 ,1.54833 ,1.02081 ,10.01618 
281 ,55.6449 ,1.55039 ,1.01739 ,9.98260 
282 ,55.8372 ,1.55234 ,0.99343 ,9.74755 
283 ,56.0292 ,1.55425 ,0.99001 ,9.71397 
284 ,56.2213 ,1.55619 ,0.97974 ,9.61324 
285 ,56.4135 ,1.55808 ,0.95579 ,9.37819 
286 ,56.6053 ,1.55998 ,0.95921 ,9.41177 
287 ,56.7974 ,1.56195 ,0.92841 ,9.10956 
288 ,57.0056 ,1.56400 ,0.92499 ,9.07598 
289 ,57.1975 ,1.56591 ,0.90446 ,8.87451 
290 ,57.3898 ,1.56781 ,0.90103 ,8.84094 
291 ,57.5817 ,1.56977 ,0.89419 ,8.77378 
292 ,57.7733 ,1.57170 ,0.86681 ,8.50515 
293 ,57.9660 ,1.57361 ,0.86681 ,8.50515 
294 ,58.1740 ,1.57565 ,0.82917 ,8.13579 
295 ,58.3662 ,1.57756 ,0.84970 ,8.33726 
296 ,58.5903 ,1.57971 ,0.82232 ,8.06864 
297 ,58.7819 ,1.58177 ,0.81206 ,7.96790 
298 ,58.9740 ,1.58369 ,0.79152 ,7.76643 
299 ,59.1501 ,1.58556 ,0.78126 ,7.66570 
300 ,59.3424 ,1.58740 ,0.78468 ,7.69927 
301 ,59.5504 ,1.58946 ,0.76757 ,7.53138 
302 ,59.7427 ,1.59137 ,0.75730 ,7.43065 
303 ,59.9504 ,1.59343 ,0.72650 ,7.12844 
304 ,60.1427 ,1.59537 ,0.74019 ,7.26276 
305 ,60.3350 ,1.59726 ,0.70597 ,6.92697 
306 ,60.5590 ,1.59943 ,0.71281 ,6.99413 
307 ,60.7509 ,1.60149 ,0.67859 ,6.65835 
308 ,60.9590 ,1.60350 ,0.67517 ,6.62477 
309 ,61.1512 ,1.60545 ,0.64779 ,6.35614 
310 ,61.3432 ,1.60736 ,0.66148 ,6.49046 
311 ,61.5514 ,1.60942 ,0.64095 ,6.28899 
312 ,61.7432 ,1.61140 ,0.63753 ,6.25541 
313 ,61.9674 ,1.61346 ,0.61357 ,6.02036 
314 ,62.1432 ,1.61550 ,0.60330 ,5.91962 
315 ,62.3677 ,1.61757 ,0.58962 ,5.78531 
316 ,62.5758 ,1.61964 ,0.56908 ,5.58384 
317 ,62.7679 ,1.62162 ,0.55882 ,5.48311 
318 ,62.9599 ,1.62362 ,0.54855 ,5.38237 
319 ,63.1521 ,1.62542 ,0.54513 ,5.34879 
320 ,63.3440 ,1.62738 ,0.54171 ,5.31522 
321 ,63.5520 ,1.62947 ,0.50748 ,4.97943 
322 ,63.7604 ,1.63154 ,0.50406 ,4.94585 
323 ,63.9523 ,1.63345 ,0.50064 ,4.91228 
324 ,64.1605 ,1.63542 ,0.49037 ,4.81154 
325 ,64.3522 ,1.63745 ,0.46642 ,4.57649 
326 ,64.5446 ,1.63937 ,0.47668 ,4.67723 
327 ,64.7525 ,1.64148 ,0.43562 ,4.27429 
328 ,64.9447 ,1.64331 ,0.44931 ,4.40860 
329 ,65.1369 ,1.64527 ,0.42535 ,4.17355 
330 ,65.3450 ,1.64733 ,0.42535 ,4.17355 
331 ,65.5370 ,1.64934 ,0.40824 ,4.00566 
332 ,65.7611 ,1.65137 ,0.40824 ,4.00566 
333 ,65.9532 ,1.65341 ,0.37402 ,3.66988 
334 ,66.1453 ,1.65532 ,0.38086 ,3.73703 
335 ,66.3373 ,1.65728 ,0.35691 ,3.50199 
336 ,66.5450 ,1.65933 ,0.35006 ,3.43483 
337 ,66.7375 ,1.66125 ,0.33638 ,3.30052 
338 ,66.9456 ,1.66333 ,0.33980 ,3.33410 
339 ,67.1374 ,1.66524 ,0.30215 ,2.96473 
340 ,67.3298 ,1.66724 ,0.27820 ,2.72969 
341 ,67.5218 ,1.66911 ,0.30215 ,2.96473 
342 ,67.7139 ,1.67103 ,0.26451 ,2.59537 
343 ,67.9055 ,1.67300 ,0.26793 ,2.62895 
344 ,68.0816 ,1.67485 ,0.27478 ,2.69611 
345 ,68.2738 ,1.67661 ,0.24740 ,2.42748 
346 ,68.4658 ,1.67851 ,0.23713 ,2.32675 
347 ,68.6584 ,1.68053 ,0.23371 ,2.29317 
348 ,68.8824 ,1.68259 ,0.20976 ,2.05812 
349 ,69.0903 ,1.68485 ,0.19264 ,1.89023 
350 ,69.2825 ,1.68674 ,0.20633 ,2.02454 
351 ,69.4744 ,1.68861 ,0.17211 ,1.68876 
352 ,69.6828 ,1.69075 ,0.18238 ,1.78949 
353 ,69.8747 ,1.69263 ,0.16185 ,1.58802 
354 ,70.0668 ,1.69454 ,0.15158 ,1.48729 
355 ,70.2750 ,1.69667 ,0.13447 ,1.31940 
356 ,70.4667 ,1.69850 ,0.12078 ,1.18508 
357 ,70.6592 ,1.70046 ,0.12762 ,1.25224 
358 ,70.8511 ,1.70241 ,0.09340 ,0.91646 
359 ,71.0594 ,1.70452 ,0.10709 ,1.05077 
360 ,71.2674 ,1.70655 ,0.07971 ,0.78214 
361 ,71.4596 ,1.70846 ,0.07971 ,0.78214 
362 ,71.6517 ,1.71043 ,0.04891 ,0.47994 
363 ,71.8438 ,1.71235 ,0.05918 ,0.58067 
364 ,72.0518 ,1.71442 ,0.02838 ,0.27847 
365 ,72.2438 ,1.71627 ,0.03865 ,0.37920 
366 ,72.4521 ,1.71846 ,0.02154 ,0.21131 
367 ,72.6601 ,1.72053 ,0.02838 ,0.27847 
368 ,72.8682 ,1.72260 ,-0.00926 ,-0.09089 
369 ,73.0599 ,1.72451 ,-0.00242 ,-0.02373 
370 ,73.2684 ,1.72648 ,-0.02637 ,-0.25878 
371 ,73.4764 ,1.72860 ,-0.02980 ,-0.29236 
372 ,73.6684 ,1.73061 ,-0.06060 ,-0.59457 
373 ,73.8763 ,1.73267 ,-0.04348 ,-0.42667 
374 ,74.0526 ,1.73456 ,-0.06744 ,-0.66172 
375 ,74.2448 ,1.73630 ,-0.07086 ,-0.69530 
376 ,74.4528 ,1.73841 ,-0.10166 ,-0.99751 
377 ,74.6608 ,1.74044 ,-0.09824 ,-0.96393 
378 ,74.8529 ,1.74241 ,-0.12219 ,-1.19898 
379 ,75.0451 ,1.74432 ,-0.12562 ,-1.23255 
380 ,75.2370 ,1.74624 ,-0.13246 ,-1.29971 
381 ,75.4291 ,1.74818 ,-0.14615 ,-1.43402 
382 ,75.6372 ,1.75019 ,-0.13931 ,-1.36687 
383 ,75.8294 ,1.75213 ,-0.17011 ,-1.66907 
384 ,76.0372 ,1.75423 ,-0.15299 ,-1.50118 
385 ,76.2295 ,1.75617 ,-0.19064 ,-1.87054 
386 ,76.4212 ,1.75805 ,-0.18379 ,-1.80338 
387 ,76.6137 ,1.76000 ,-0.20775 ,-2.03843 
388 ,76.8055 ,1.76194 ,-0.20775 ,-2.03843 
389 ,76.9979 ,1.76383 ,-0.21117 ,-2.07201 
390 ,77.2054 ,1.76590 ,-0.23513 ,-2.30706 
391 ,77.3980 ,1.76781 ,-0.23855 ,-2.34064 
392 ,77.5897 ,1.76975 ,-0.25908 ,-2.54211 
393 ,77.7822 ,1.77173 ,-0.23855 ,-2.34064 
394 ,77.9739 ,1.77358 ,-0.26935 ,-2.64284 
395 ,78.1662 ,1.77557 ,-0.28304 ,-2.77716 
396 ,78.3745 ,1.77765 ,-0.27619 ,-2.71000 
397 ,78.5662 ,1.77949 ,-0.29330 ,-2.87789 
398 ,78.7586 ,1.78148 ,-0.28304 ,-2.77716 
399 ,78.9663 ,1.78354 ,-0.32068 ,-3.14652 
400 ,79.1587 ,1.78537 ,-0.32068 ,-3.14652 
401 ,79.3505 ,1.78739 ,-0.33779 ,-3.31441 
402 ,79.5429 ,1.78927 ,-0.34121 ,-3.34799 
403 ,79.7344 ,1.79123 ,-0.35148 ,-3.44872 
404 ,79.9431 ,1.79319 ,-0.37201 ,-3.65019 
405 ,80.1510 ,1.79537 ,-0.38228 ,-3.75093 
406 ,80.3431 ,1.79727 ,-0.37544 ,-3.68377 
407 ,80.5353 ,1.79919 ,-0.39597 ,-3.88524 
408 ,80.7274 ,1.80110 ,-0.40623 ,-3.98597 
409 ,80.9355 ,1.80323 ,-0.40966 ,-4.01955 
410 ,81.1435 ,1.80530 ,-0.41650 ,-4.08671 
411 ,81.3517 ,1.80738 ,-0.44046 ,-4.32176 
412 ,81.5598 ,1.80938 ,-0.44046 ,-4.32176 
413 ,81.7519 ,1.81138 ,-0.47468 ,-4.65754 
414 ,81.9434 ,1.81343 ,-0.44730 ,-4.38891 
415 ,82.1360 ,1.81517 ,-0.47126 ,-4.62396 
416 ,82.3280 ,1.81711 ,-0.48837 ,-4.79185 
417 ,82.5202 ,1.81903 ,-0.47468 ,-4.65754 
418 ,82.7122 ,1.82098 ,-0.51917 ,-5.09406 
419 ,82.9043 ,1.82286 ,-0.50890 ,-4.99332 
420 ,83.0964 ,1.82482 ,-0.50548 ,-4.95975 
421 ,83.3204 ,1.82690 ,-0.51917 ,-5.09406 
422 ,83.5284 ,1.82912 ,-0.54654 ,-5.36268 
423 ,83.7204 ,1.83110 ,-0.53628 ,-5.26195 
424 ,83.9126 ,1.83296 ,-0.55339 ,-5.42984 
425 ,84.1043 ,1.83484 ,-0.55339 ,-5.42984 
426 ,84.2969 ,1.83683 ,-0.56023 ,-5.49700 
427 ,84.4889 ,1.83877 ,-0.59103 ,-5.79920 
428 ,84.6810 ,1.84066 ,-0.58077 ,-5.69847 
429 ,84.8729 ,1.84260 ,-0.60130 ,-5.89994 
430 ,85.0651 ,1.84448 ,-0.59445 ,-5.83278 
431 ,85.2571 ,1.84642 ,-0.62183 ,-6.10141 
432 ,85.4492 ,1.84834 ,-0.62868 ,-6.16856 
433 ,85.6413 ,1.85028 ,-0.62868 ,-6.16856 
434 ,85.8494 ,1.85226 ,-0.66632 ,-6.53793 
435 ,86.0415 ,1.85422 ,-0.63552 ,-6.23572 
436 ,86.2492 ,1.85628 ,-0.67659 ,-6.63866 
437 ,86.4575 ,1.85838 ,-0.67316 ,-6.60508 
438 ,86.6656 ,1.86050 ,-0.68685 ,-6.73940 
439 ,86.8576 ,1.86244 ,-0.68001 ,-6.67224 
440 ,87.0501 ,1.86435 ,-0.70739 ,-6.94086 
441 ,87.2581 ,1.86631 ,-0.70396 ,-6.90729 
442 ,87.4658 ,1.86843 ,-0.71423 ,-7.00802 
443 ,87.6582 ,1.87048 ,-0.72792 ,-7.14233 
444 ,87.8663 ,1.87251 ,-0.74845 ,-7.34380 
445 ,88.0582 ,1.87442 ,-0.75187 ,-7.37738 
446 ,88.2503 ,1.87634 ,-0.77925 ,-7.64601 
447 ,88.4421 ,1.87821 ,-0.75872 ,-7.44454 
448 ,88.6506 ,1.88025 ,-0.77241 ,-7.57885 
449 ,88.8587 ,1.88239 ,-0.77925 ,-7.64601 
450 ,89.0506 ,1.88434 ,-0.80663 ,-7.91464 
451 ,89.2428 ,1.88633 ,-0.79294 ,-7.78032 
452 ,89.4350 ,1.88816 ,-0.81689 ,-8.01537 
453 ,89.6269 ,1.89010 ,-0.83401 ,-8.18326 
454 ,89.8351 ,1.89213 ,-0.82374 ,-8.08253 
455 ,90.0271 ,1.89405 ,-0.85112 ,-8.35115 
456 ,90.2191 ,1.89603 ,-0.82716 ,-8.11611 
457 ,90.4113 ,1.89794 ,-0.86481 ,-8.48547 
458 ,90.6030 ,1.89984 ,-0.85454 ,-8.38473 
459 ,90.7955 ,1.90178 ,-0.86138 ,-8.45189 
460 ,91.0196 ,1.90393 ,-0.87507 ,-8.58620 
461 ,91.2278 ,1.90612 ,-0.89560 ,-8.78767 
462 ,91.4199 ,1.90803 ,-0.89560 ,-8.78767 
463 ,91.6278 ,1.91007 ,-0.92640 ,-9.08988 
