Data stamp = , 02-05-2022 13:36:20 990

Calibration Values: 
Slope = , 26.54 , g/V 
Offset Voltage at no contact = , -0.501760 , V 

No , Time , Stage Position ,   Mass , Force 
   ,  (s) ,      (mm)      ,   (g)  , (mN)  

1 ,0.0000 ,1.04950 ,4.99394 ,49.00058 
2 ,0.2114 ,1.04959 ,5.01790 ,49.23563 
3 ,0.8041 ,1.05192 ,4.98710 ,48.93343 
4 ,1.0282 ,1.05447 ,4.99737 ,49.03416 
5 ,1.2522 ,1.05664 ,5.00421 ,49.10132 
6 ,1.4604 ,1.05880 ,4.96999 ,48.76554 
7 ,1.6520 ,1.06071 ,4.97341 ,48.79911 
8 ,1.8603 ,1.06282 ,4.92550 ,48.32902 
9 ,2.0686 ,1.06490 ,4.91181 ,48.19471 
10 ,2.2606 ,1.06679 ,4.88101 ,47.89250 
11 ,2.4848 ,1.06904 ,4.87075 ,47.79177 
12 ,2.6767 ,1.07098 ,4.87075 ,47.79177 
13 ,2.8848 ,1.07301 ,4.83652 ,47.45598 
14 ,3.0928 ,1.07511 ,4.82968 ,47.38883 
15 ,3.2849 ,1.07708 ,4.79546 ,47.05304 
16 ,3.4770 ,1.07897 ,4.78861 ,46.98589 
17 ,3.6691 ,1.08094 ,4.75439 ,46.65010 
18 ,3.8769 ,1.08298 ,4.74070 ,46.51579 
19 ,4.0694 ,1.08495 ,4.73044 ,46.41506 
20 ,4.2935 ,1.08715 ,4.71333 ,46.24716 
21 ,4.4855 ,1.08906 ,4.67568 ,45.87780 
22 ,4.6775 ,1.09100 ,4.67226 ,45.84422 
23 ,4.8697 ,1.09292 ,4.64831 ,45.60918 
24 ,5.0453 ,1.09481 ,4.64146 ,45.54202 
25 ,5.2377 ,1.09658 ,4.62777 ,45.40771 
26 ,5.4457 ,1.09866 ,4.59013 ,45.03835 
27 ,5.6538 ,1.10078 ,4.60724 ,45.20624 
28 ,5.8459 ,1.10268 ,4.55933 ,44.73614 
29 ,6.0381 ,1.10459 ,4.55591 ,44.70256 
30 ,6.2303 ,1.10655 ,4.52169 ,44.36678 
31 ,6.4222 ,1.10841 ,4.49773 ,44.13173 
32 ,6.6144 ,1.11032 ,4.52853 ,44.43394 
33 ,6.8065 ,1.11226 ,4.48062 ,43.96384 
34 ,6.9986 ,1.11421 ,4.46351 ,43.79595 
35 ,7.2062 ,1.11643 ,4.44298 ,43.59448 
36 ,7.3987 ,1.11819 ,4.44640 ,43.62806 
37 ,7.6067 ,1.12029 ,4.40191 ,43.19154 
38 ,7.7989 ,1.12222 ,4.39164 ,43.09080 
39 ,7.9910 ,1.12413 ,4.38138 ,42.99007 
40 ,8.1832 ,1.12608 ,4.35058 ,42.68786 
41 ,8.3912 ,1.12810 ,4.35058 ,42.68786 
42 ,8.5992 ,1.13022 ,4.32662 ,42.45282 
43 ,8.7914 ,1.13211 ,4.29240 ,42.11703 
44 ,8.9994 ,1.13418 ,4.29240 ,42.11703 
45 ,9.2073 ,1.13628 ,4.25476 ,41.74767 
46 ,9.3991 ,1.13816 ,4.24449 ,41.64694 
47 ,9.5913 ,1.14013 ,4.24449 ,41.64694 
48 ,9.7996 ,1.14220 ,4.22738 ,41.47905 
49 ,10.0077 ,1.14425 ,4.18974 ,41.10968 
50 ,10.1995 ,1.14622 ,4.18289 ,41.04253 
51 ,10.3917 ,1.14812 ,4.16920 ,40.90821 
52 ,10.5838 ,1.15006 ,4.13840 ,40.60601 
53 ,10.7918 ,1.15213 ,4.12814 ,40.50527 
54 ,10.9843 ,1.15401 ,4.09734 ,40.20307 
55 ,11.1761 ,1.15602 ,4.10076 ,40.23665 
56 ,11.3682 ,1.15788 ,4.06312 ,39.86729 
57 ,11.5601 ,1.15984 ,4.07680 ,40.00160 
58 ,11.7684 ,1.16188 ,4.03574 ,39.59866 
59 ,11.9926 ,1.16402 ,4.03916 ,39.63224 
60 ,12.2002 ,1.16622 ,4.01178 ,39.36361 
61 ,12.3927 ,1.16811 ,3.99467 ,39.19572 
62 ,12.6007 ,1.17021 ,3.97414 ,38.99425 
63 ,12.8087 ,1.17230 ,3.96045 ,38.85994 
64 ,13.0005 ,1.17429 ,3.95018 ,38.75920 
65 ,13.1930 ,1.17610 ,3.93307 ,38.59131 
66 ,13.4009 ,1.17817 ,3.90570 ,38.32268 
67 ,13.5929 ,1.18014 ,3.89885 ,38.25553 
68 ,13.7850 ,1.18206 ,3.86805 ,37.95332 
69 ,13.9933 ,1.18409 ,3.85779 ,37.85259 
70 ,14.2009 ,1.18619 ,3.84067 ,37.68470 
71 ,14.3934 ,1.18810 ,3.82699 ,37.55038 
72 ,14.6013 ,1.19020 ,3.80303 ,37.31534 
73 ,14.7936 ,1.19209 ,3.79961 ,37.28176 
74 ,14.9692 ,1.19399 ,3.76881 ,36.97955 
75 ,15.1618 ,1.19578 ,3.76196 ,36.91240 
76 ,15.3540 ,1.19775 ,3.73801 ,36.67735 
77 ,15.5620 ,1.19982 ,3.73117 ,36.61019 
78 ,15.7540 ,1.20173 ,3.70379 ,36.34157 
79 ,15.9617 ,1.20369 ,3.69352 ,36.24083 
80 ,16.1543 ,1.20575 ,3.67299 ,36.03936 
81 ,16.3623 ,1.20783 ,3.65930 ,35.90505 
82 ,16.5544 ,1.20970 ,3.64903 ,35.80431 
83 ,16.7625 ,1.21183 ,3.63877 ,35.70358 
84 ,16.9545 ,1.21374 ,3.61139 ,35.43495 
85 ,17.1301 ,1.21562 ,3.58743 ,35.19990 
86 ,17.3227 ,1.21744 ,3.58743 ,35.19990 
87 ,17.5308 ,1.21951 ,3.54979 ,34.83054 
88 ,17.7389 ,1.22158 ,3.55321 ,34.86412 
89 ,17.9308 ,1.22352 ,3.51899 ,34.52834 
90 ,18.1229 ,1.22544 ,3.51557 ,34.49476 
91 ,18.3152 ,1.22735 ,3.49161 ,34.25971 
92 ,18.5230 ,1.22940 ,3.47792 ,34.12540 
93 ,18.7312 ,1.23149 ,3.45739 ,33.92393 
94 ,18.9230 ,1.23338 ,3.44028 ,33.75604 
95 ,19.1152 ,1.23538 ,3.44028 ,33.75604 
96 ,19.3070 ,1.23725 ,3.40264 ,33.38667 
97 ,19.5151 ,1.23932 ,3.38895 ,33.25236 
98 ,19.6912 ,1.24121 ,3.36842 ,33.05089 
99 ,19.8996 ,1.24313 ,3.38210 ,33.18520 
100 ,20.1079 ,1.24525 ,3.34104 ,32.78227 
101 ,20.3158 ,1.24738 ,3.33077 ,32.68153 
102 ,20.5079 ,1.24921 ,3.30682 ,32.44648 
103 ,20.7002 ,1.25120 ,3.31708 ,32.54722 
104 ,20.8922 ,1.25308 ,3.27259 ,32.11070 
105 ,21.1003 ,1.25519 ,3.26917 ,32.07712 
106 ,21.2924 ,1.25711 ,3.25206 ,31.90923 
107 ,21.4841 ,1.25911 ,3.23837 ,31.77492 
108 ,21.6765 ,1.26096 ,3.21784 ,31.57345 
109 ,21.8849 ,1.26302 ,3.21442 ,31.53987 
110 ,22.0765 ,1.26495 ,3.19731 ,31.37198 
111 ,22.3008 ,1.26716 ,3.17677 ,31.17051 
112 ,22.5088 ,1.26924 ,3.14940 ,30.90188 
113 ,22.7009 ,1.27115 ,3.14255 ,30.83472 
114 ,22.8929 ,1.27319 ,3.10491 ,30.46536 
115 ,23.0852 ,1.27500 ,3.10491 ,30.46536 
116 ,23.2932 ,1.27711 ,3.09122 ,30.33105 
117 ,23.4852 ,1.27902 ,3.08438 ,30.26389 
118 ,23.6770 ,1.28090 ,3.06384 ,30.06242 
119 ,23.9013 ,1.28301 ,3.03989 ,29.82737 
120 ,24.1095 ,1.28523 ,3.01251 ,29.55875 
121 ,24.3013 ,1.28720 ,3.01935 ,29.62590 
122 ,24.5097 ,1.28918 ,2.97829 ,29.22297 
123 ,24.7016 ,1.29116 ,2.99198 ,29.35728 
124 ,24.8938 ,1.29307 ,2.96460 ,29.08865 
125 ,25.0858 ,1.29497 ,2.93722 ,28.82003 
126 ,25.2780 ,1.29693 ,2.93380 ,28.78645 
127 ,25.4540 ,1.29883 ,2.90985 ,28.55140 
128 ,25.6622 ,1.30062 ,2.90300 ,28.48424 
129 ,25.8540 ,1.30273 ,2.87562 ,28.21562 
130 ,26.0622 ,1.30476 ,2.88247 ,28.28277 
131 ,26.2705 ,1.30686 ,2.84140 ,27.87983 
132 ,26.4622 ,1.30880 ,2.84482 ,27.91341 
133 ,26.6543 ,1.31071 ,2.83114 ,27.77910 
134 ,26.8463 ,1.31257 ,2.81060 ,27.57763 
135 ,27.0383 ,1.31453 ,2.79349 ,27.40974 
136 ,27.2307 ,1.31646 ,2.76954 ,27.17469 
137 ,27.4229 ,1.31836 ,2.76269 ,27.10753 
138 ,27.6148 ,1.32024 ,2.74558 ,26.93964 
139 ,27.8067 ,1.32219 ,2.73531 ,26.83891 
140 ,27.9831 ,1.32412 ,2.72847 ,26.77175 
141 ,28.1747 ,1.32591 ,2.70452 ,26.53670 
142 ,28.3829 ,1.32792 ,2.69767 ,26.46954 
143 ,28.5753 ,1.32992 ,2.66003 ,26.10018 
144 ,28.7674 ,1.33181 ,2.66687 ,26.16734 
145 ,28.9593 ,1.33378 ,2.64634 ,25.96587 
146 ,29.1674 ,1.33581 ,2.62238 ,25.73082 
147 ,29.3594 ,1.33774 ,2.62581 ,25.76440 
148 ,29.5675 ,1.33974 ,2.60185 ,25.52935 
149 ,29.7596 ,1.34171 ,2.58474 ,25.36146 
150 ,29.9677 ,1.34385 ,2.57105 ,25.22715 
151 ,30.1599 ,1.34575 ,2.56078 ,25.12641 
152 ,30.3516 ,1.34763 ,2.52656 ,24.79063 
153 ,30.5600 ,1.34970 ,2.54025 ,24.92494 
154 ,30.7681 ,1.35180 ,2.49918 ,24.52200 
155 ,30.9759 ,1.35387 ,2.49234 ,24.45485 
156 ,31.1683 ,1.35579 ,2.48207 ,24.35411 
157 ,31.3603 ,1.35776 ,2.47523 ,24.28696 
158 ,31.5523 ,1.35971 ,2.44101 ,23.95117 
159 ,31.7604 ,1.36172 ,2.43416 ,23.88402 
160 ,31.9522 ,1.36365 ,2.39994 ,23.54823 
161 ,32.1601 ,1.36569 ,2.41363 ,23.68255 
162 ,32.3522 ,1.36771 ,2.38968 ,23.44750 
163 ,32.5604 ,1.36962 ,2.38625 ,23.41392 
164 ,32.7689 ,1.37179 ,2.35203 ,23.07814 
165 ,32.9771 ,1.37389 ,2.34519 ,23.01098 
166 ,33.1691 ,1.37579 ,2.34861 ,23.04456 
167 ,33.3611 ,1.37773 ,2.30070 ,22.57446 
168 ,33.5532 ,1.37962 ,2.29043 ,22.47373 
169 ,33.7451 ,1.38153 ,2.29043 ,22.47373 
170 ,33.9376 ,1.38345 ,2.26990 ,22.27226 
171 ,34.1774 ,1.38589 ,2.24594 ,22.03721 
172 ,34.3854 ,1.38796 ,2.24937 ,22.07079 
173 ,34.5773 ,1.38990 ,2.23226 ,21.90290 
174 ,34.7694 ,1.39182 ,2.20830 ,21.66785 
175 ,34.9779 ,1.39382 ,2.18777 ,21.46638 
176 ,35.1857 ,1.39595 ,2.19119 ,21.49996 
177 ,35.3780 ,1.39790 ,2.14670 ,21.06344 
178 ,35.5860 ,1.39994 ,2.17066 ,21.29849 
179 ,35.7782 ,1.40189 ,2.13301 ,20.92912 
180 ,35.9701 ,1.40380 ,2.12275 ,20.82839 
181 ,36.1623 ,1.40574 ,2.11248 ,20.72766 
182 ,36.3545 ,1.40765 ,2.08510 ,20.45903 
183 ,36.5625 ,1.40978 ,2.08510 ,20.45903 
184 ,36.7706 ,1.41183 ,2.06799 ,20.29114 
185 ,36.9623 ,1.41373 ,2.05430 ,20.15682 
186 ,37.1707 ,1.41575 ,2.03377 ,19.95535 
187 ,37.3787 ,1.41791 ,2.00982 ,19.72031 
188 ,37.5709 ,1.41979 ,2.00297 ,19.65315 
189 ,37.7629 ,1.42171 ,1.99955 ,19.61957 
190 ,37.9550 ,1.42362 ,1.97902 ,19.41810 
191 ,38.1306 ,1.42553 ,1.97559 ,19.38452 
192 ,38.3233 ,1.42730 ,1.96190 ,19.25021 
193 ,38.5154 ,1.42924 ,1.93111 ,18.94801 
194 ,38.7072 ,1.43115 ,1.92426 ,18.88085 
195 ,38.9150 ,1.43321 ,1.89688 ,18.61222 
196 ,39.0911 ,1.43512 ,1.90031 ,18.64580 
197 ,39.2831 ,1.43693 ,1.88662 ,18.51149 
198 ,39.4754 ,1.43878 ,1.85582 ,18.20928 
199 ,39.6837 ,1.44094 ,1.87293 ,18.37717 
200 ,39.8915 ,1.44299 ,1.84213 ,18.07497 
201 ,40.0840 ,1.44495 ,1.82502 ,17.90708 
202 ,40.3076 ,1.44718 ,1.81475 ,17.80634 
203 ,40.5001 ,1.44912 ,1.78737 ,17.53772 
204 ,40.7083 ,1.45116 ,1.78737 ,17.53772 
205 ,40.9002 ,1.45310 ,1.74631 ,17.13478 
206 ,41.1085 ,1.45512 ,1.75315 ,17.20193 
207 ,41.3001 ,1.45709 ,1.73604 ,17.03404 
208 ,41.4925 ,1.45897 ,1.70182 ,16.69826 
209 ,41.6845 ,1.46094 ,1.70866 ,16.76542 
210 ,41.8766 ,1.46289 ,1.69840 ,16.66468 
211 ,42.0685 ,1.46477 ,1.69155 ,16.59752 
212 ,42.2605 ,1.46675 ,1.66760 ,16.36248 
213 ,42.4527 ,1.46860 ,1.64707 ,16.16101 
214 ,42.6611 ,1.47067 ,1.64364 ,16.12743 
215 ,42.8691 ,1.47274 ,1.65391 ,16.22816 
216 ,43.0932 ,1.47480 ,1.61627 ,15.85880 
217 ,43.3172 ,1.47713 ,1.60258 ,15.72449 
218 ,43.5414 ,1.47936 ,1.59231 ,15.62375 
219 ,43.7655 ,1.48166 ,1.58547 ,15.55660 
220 ,43.9575 ,1.48366 ,1.54098 ,15.12008 
221 ,44.1496 ,1.48557 ,1.55124 ,15.22081 
222 ,44.3417 ,1.48747 ,1.53756 ,15.08650 
223 ,44.5498 ,1.48955 ,1.51702 ,14.88503 
224 ,44.7415 ,1.49149 ,1.49307 ,14.64998 
225 ,44.9340 ,1.49344 ,1.47938 ,14.51567 
226 ,45.1259 ,1.49536 ,1.47596 ,14.48209 
227 ,45.3342 ,1.49739 ,1.45885 ,14.31420 
228 ,45.5420 ,1.49950 ,1.44516 ,14.17989 
229 ,45.7341 ,1.50140 ,1.44516 ,14.17989 
230 ,45.9261 ,1.50335 ,1.41778 ,13.91126 
231 ,46.1346 ,1.50539 ,1.39725 ,13.70979 
232 ,46.3424 ,1.50746 ,1.38014 ,13.54190 
233 ,46.5346 ,1.50939 ,1.38014 ,13.54190 
234 ,46.7266 ,1.51130 ,1.38356 ,13.57548 
235 ,46.9184 ,1.51321 ,1.35960 ,13.34043 
236 ,47.1110 ,1.51517 ,1.34591 ,13.20612 
237 ,47.3350 ,1.51737 ,1.31512 ,12.90391 
238 ,47.5430 ,1.51950 ,1.31169 ,12.87033 
239 ,47.7351 ,1.52143 ,1.30143 ,12.76960 
240 ,47.9432 ,1.52351 ,1.27747 ,12.53455 
241 ,48.1673 ,1.52559 ,1.27747 ,12.53455 
242 ,48.3752 ,1.52780 ,1.24325 ,12.19877 
243 ,48.5514 ,1.52970 ,1.24667 ,12.23235 
244 ,48.7435 ,1.53148 ,1.23641 ,12.13161 
245 ,48.9517 ,1.53345 ,1.21587 ,11.93014 
246 ,49.1591 ,1.53564 ,1.19876 ,11.76225 
247 ,49.3517 ,1.53759 ,1.20218 ,11.79583 
248 ,49.5598 ,1.53963 ,1.16112 ,11.39289 
249 ,49.7519 ,1.54158 ,1.17138 ,11.49362 
250 ,49.9439 ,1.54349 ,1.15427 ,11.32573 
251 ,50.1359 ,1.54540 ,1.12347 ,11.02353 
252 ,50.3281 ,1.54737 ,1.13716 ,11.15784 
253 ,50.5361 ,1.54938 ,1.10294 ,10.82206 
254 ,50.7283 ,1.55131 ,1.12005 ,10.98995 
255 ,50.9203 ,1.55326 ,1.07214 ,10.51985 
256 ,51.1121 ,1.55514 ,1.07899 ,10.58701 
257 ,51.3042 ,1.55708 ,1.06872 ,10.48627 
258 ,51.5127 ,1.55915 ,1.05503 ,10.35196 
259 ,51.7368 ,1.56138 ,1.03450 ,10.15049 
260 ,51.9288 ,1.56337 ,1.02423 ,10.04976 
261 ,52.1527 ,1.56546 ,0.99685 ,9.78113 
262 ,52.3604 ,1.56770 ,0.98317 ,9.64682 
263 ,52.5529 ,1.56960 ,0.98659 ,9.68039 
264 ,52.7451 ,1.57148 ,0.96605 ,9.47892 
265 ,52.9372 ,1.57337 ,0.95237 ,9.34461 
266 ,53.1613 ,1.57568 ,0.92499 ,9.07598 
267 ,53.3693 ,1.57769 ,0.92499 ,9.07598 
268 ,53.5609 ,1.57964 ,0.90788 ,8.90809 
269 ,53.7534 ,1.58156 ,0.90103 ,8.84094 
270 ,53.9616 ,1.58361 ,0.88392 ,8.67305 
271 ,54.1535 ,1.58557 ,0.88392 ,8.67305 
272 ,54.3455 ,1.58747 ,0.86681 ,8.50515 
273 ,54.5538 ,1.58958 ,0.85312 ,8.37084 
274 ,54.7458 ,1.59158 ,0.83943 ,8.23653 
275 ,54.9379 ,1.59341 ,0.81890 ,8.03506 
276 ,55.1300 ,1.59532 ,0.81890 ,8.03506 
277 ,55.3381 ,1.59751 ,0.81548 ,8.00148 
278 ,55.5301 ,1.59932 ,0.80179 ,7.86717 
279 ,55.7218 ,1.60126 ,0.77784 ,7.63212 
280 ,55.9144 ,1.60318 ,0.78468 ,7.69927 
281 ,56.1225 ,1.60531 ,0.75730 ,7.43065 
282 ,56.3145 ,1.60714 ,0.75730 ,7.43065 
283 ,56.5226 ,1.60924 ,0.72650 ,7.12844 
284 ,56.7145 ,1.61120 ,0.72650 ,7.12844 
285 ,56.9065 ,1.61309 ,0.71281 ,6.99413 
286 ,57.0987 ,1.61503 ,0.68544 ,6.72550 
287 ,57.2910 ,1.61698 ,0.69228 ,6.79266 
288 ,57.4832 ,1.61883 ,0.66490 ,6.52403 
289 ,57.6748 ,1.62090 ,0.66833 ,6.55761 
290 ,57.8671 ,1.62264 ,0.64437 ,6.32256 
291 ,58.0592 ,1.62466 ,0.63410 ,6.22183 
292 ,58.2673 ,1.62668 ,0.64095 ,6.28899 
293 ,58.4754 ,1.62876 ,0.62384 ,6.12109 
294 ,58.6673 ,1.63070 ,0.61357 ,6.02036 
295 ,58.8755 ,1.63275 ,0.59988 ,5.88605 
296 ,59.0513 ,1.63462 ,0.58619 ,5.75173 
297 ,59.2439 ,1.63647 ,0.56908 ,5.58384 
298 ,59.4519 ,1.63853 ,0.56908 ,5.58384 
299 ,59.6597 ,1.64057 ,0.55197 ,5.41595 
300 ,59.8521 ,1.64252 ,0.54513 ,5.34879 
301 ,60.0600 ,1.64463 ,0.51775 ,5.08017 
302 ,60.2683 ,1.64672 ,0.52117 ,5.11375 
303 ,60.4763 ,1.64874 ,0.49380 ,4.84512 
304 ,60.6682 ,1.65071 ,0.49037 ,4.81154 
305 ,60.8925 ,1.65287 ,0.48695 ,4.77796 
306 ,61.1006 ,1.65491 ,0.45615 ,4.47576 
307 ,61.2922 ,1.65689 ,0.46300 ,4.54291 
308 ,61.4848 ,1.65884 ,0.43904 ,4.30787 
309 ,61.6767 ,1.66077 ,0.44588 ,4.37502 
310 ,61.8687 ,1.66272 ,0.41166 ,4.03924 
311 ,62.0767 ,1.66481 ,0.40824 ,4.00566 
312 ,62.2690 ,1.66670 ,0.40824 ,4.00566 
313 ,62.4769 ,1.66880 ,0.38771 ,3.80419 
314 ,62.6691 ,1.67069 ,0.37744 ,3.70346 
315 ,62.8612 ,1.67263 ,0.36033 ,3.53557 
316 ,63.0691 ,1.67466 ,0.35691 ,3.50199 
317 ,63.2614 ,1.67663 ,0.33295 ,3.26694 
318 ,63.4530 ,1.67852 ,0.32953 ,3.23336 
319 ,63.6455 ,1.68049 ,0.30558 ,2.99831 
320 ,63.8533 ,1.68246 ,0.32269 ,3.16620 
321 ,64.0456 ,1.68442 ,0.28162 ,2.76326 
322 ,64.2377 ,1.68633 ,0.28162 ,2.76326 
323 ,64.4297 ,1.68833 ,0.26109 ,2.56179 
324 ,64.6378 ,1.69036 ,0.24398 ,2.39390 
325 ,64.8298 ,1.69230 ,0.25082 ,2.46106 
326 ,65.0222 ,1.69419 ,0.23713 ,2.32675 
327 ,65.2300 ,1.69633 ,0.22687 ,2.22601 
328 ,65.4223 ,1.69820 ,0.21318 ,2.09170 
329 ,65.6300 ,1.70030 ,0.21660 ,2.12528 
330 ,65.8383 ,1.70237 ,0.19949 ,1.95738 
331 ,66.0464 ,1.70445 ,0.17896 ,1.75592 
332 ,66.2386 ,1.70640 ,0.16869 ,1.65518 
333 ,66.4306 ,1.70828 ,0.14816 ,1.45371 
334 ,66.6386 ,1.71031 ,0.14473 ,1.42013 
335 ,66.8308 ,1.71229 ,0.14131 ,1.38655 
336 ,67.0229 ,1.71417 ,0.13105 ,1.28582 
337 ,67.2151 ,1.71613 ,0.13789 ,1.35298 
338 ,67.4066 ,1.71817 ,0.10367 ,1.01719 
339 ,67.5990 ,1.71999 ,0.09682 ,0.95004 
340 ,67.7913 ,1.72193 ,0.09682 ,0.95004 
341 ,67.9993 ,1.72395 ,0.07971 ,0.78214 
342 ,68.2074 ,1.72604 ,0.05918 ,0.58067 
343 ,68.3834 ,1.72795 ,0.06602 ,0.64783 
344 ,68.5757 ,1.72974 ,0.05576 ,0.54710 
345 ,68.7676 ,1.73166 ,0.02838 ,0.27847 
346 ,68.9754 ,1.73370 ,0.03865 ,0.37920 
347 ,69.1676 ,1.73566 ,0.00100 ,0.00984 
348 ,69.3757 ,1.73776 ,0.02154 ,0.21131 
349 ,69.5678 ,1.73962 ,-0.00926 ,-0.09089 
350 ,69.7760 ,1.74174 ,-0.00584 ,-0.05731 
351 ,69.9677 ,1.74365 ,-0.01953 ,-0.19163 
352 ,70.2077 ,1.74595 ,-0.04691 ,-0.46025 
353 ,70.3997 ,1.74806 ,-0.04006 ,-0.39310 
354 ,70.5920 ,1.74988 ,-0.06060 ,-0.59457 
355 ,70.7999 ,1.75194 ,-0.07428 ,-0.72888 
356 ,70.9925 ,1.75386 ,-0.07086 ,-0.69530 
357 ,71.2001 ,1.75595 ,-0.08797 ,-0.86319 
358 ,71.3925 ,1.75787 ,-0.08455 ,-0.82961 
359 ,71.5848 ,1.75982 ,-0.11535 ,-1.13182 
360 ,71.7926 ,1.76186 ,-0.10166 ,-0.99751 
361 ,71.9851 ,1.76383 ,-0.14957 ,-1.46760 
362 ,72.1930 ,1.76590 ,-0.14615 ,-1.43402 
363 ,72.3851 ,1.76781 ,-0.15642 ,-1.53476 
364 ,72.5931 ,1.76990 ,-0.16326 ,-1.60191 
365 ,72.7855 ,1.77182 ,-0.18379 ,-1.80338 
366 ,72.9773 ,1.77374 ,-0.17011 ,-1.66907 
367 ,73.1694 ,1.77567 ,-0.19406 ,-1.90412 
368 ,73.3611 ,1.77756 ,-0.20090 ,-1.97128 
369 ,73.5696 ,1.77963 ,-0.21459 ,-2.10559 
370 ,73.7936 ,1.78179 ,-0.22144 ,-2.17275 
371 ,73.9697 ,1.78380 ,-0.23170 ,-2.27348 
372 ,74.1617 ,1.78558 ,-0.23513 ,-2.30706 
373 ,74.3699 ,1.78768 ,-0.26250 ,-2.57569 
374 ,74.5779 ,1.78972 ,-0.26250 ,-2.57569 
375 ,74.7701 ,1.79167 ,-0.28304 ,-2.77716 
376 ,74.9622 ,1.79360 ,-0.27619 ,-2.71000 
377 ,75.1703 ,1.79567 ,-0.30699 ,-3.01220 
378 ,75.3623 ,1.79759 ,-0.29330 ,-2.87789 
379 ,75.5541 ,1.79950 ,-0.30699 ,-3.01220 
380 ,75.7785 ,1.80166 ,-0.32068 ,-3.14652 
381 ,75.9865 ,1.80380 ,-0.34121 ,-3.34799 
382 ,76.1786 ,1.80578 ,-0.33779 ,-3.31441 
383 ,76.3867 ,1.80781 ,-0.36859 ,-3.61661 
384 ,76.5788 ,1.80972 ,-0.35832 ,-3.51588 
385 ,76.7709 ,1.81163 ,-0.38912 ,-3.81808 
386 ,76.9789 ,1.81374 ,-0.37886 ,-3.71735 
387 ,77.1710 ,1.81565 ,-0.39939 ,-3.91882 
388 ,77.3792 ,1.81776 ,-0.40281 ,-3.95240 
389 ,77.5872 ,1.81979 ,-0.42335 ,-4.15387 
390 ,77.7948 ,1.82186 ,-0.41308 ,-4.05313 
391 ,77.9872 ,1.82385 ,-0.43703 ,-4.28818 
392 ,78.2275 ,1.82622 ,-0.44730 ,-4.38891 
393 ,78.4193 ,1.82813 ,-0.45072 ,-4.42249 
394 ,78.6276 ,1.83022 ,-0.47810 ,-4.69112 
395 ,78.8197 ,1.83210 ,-0.45757 ,-4.48965 
396 ,79.0438 ,1.83429 ,-0.49863 ,-4.89259 
397 ,79.2359 ,1.83629 ,-0.48837 ,-4.79185 
398 ,79.4115 ,1.83818 ,-0.51232 ,-5.02690 
399 ,79.6038 ,1.83996 ,-0.52259 ,-5.12764 
400 ,79.8122 ,1.84204 ,-0.53285 ,-5.22837 
401 ,79.9878 ,1.84395 ,-0.51917 ,-5.09406 
402 ,80.1803 ,1.84572 ,-0.52259 ,-5.12764 
403 ,80.4043 ,1.84793 ,-0.56365 ,-5.53058 
404 ,80.5963 ,1.84992 ,-0.56023 ,-5.49700 
405 ,80.7884 ,1.85187 ,-0.57050 ,-5.59773 
406 ,80.9964 ,1.85391 ,-0.56365 ,-5.53058 
407 ,81.1886 ,1.85580 ,-0.59103 ,-5.79920 
408 ,81.3966 ,1.85792 ,-0.58077 ,-5.69847 
409 ,81.5889 ,1.85984 ,-0.62183 ,-6.10141 
410 ,81.7648 ,1.86172 ,-0.60472 ,-5.93352 
411 ,81.9568 ,1.86350 ,-0.62183 ,-6.10141 
412 ,82.1647 ,1.86554 ,-0.63210 ,-6.20214 
413 ,82.3730 ,1.86764 ,-0.63552 ,-6.23572 
414 ,82.5809 ,1.86974 ,-0.64579 ,-6.33646 
415 ,82.7732 ,1.87166 ,-0.66632 ,-6.53793 
416 ,82.9651 ,1.87357 ,-0.65947 ,-6.47077 
417 ,83.1734 ,1.87564 ,-0.67659 ,-6.63866 
418 ,83.3652 ,1.87754 ,-0.70054 ,-6.87371 
419 ,83.5574 ,1.87946 ,-0.68685 ,-6.73940 
420 ,83.7494 ,1.88144 ,-0.71423 ,-7.00802 
421 ,83.9577 ,1.88348 ,-0.70739 ,-6.94086 
422 ,84.1655 ,1.88554 ,-0.73476 ,-7.20949 
423 ,84.3576 ,1.88746 ,-0.72792 ,-7.14233 
424 ,84.5658 ,1.88962 ,-0.75530 ,-7.41096 
425 ,84.7741 ,1.89169 ,-0.75187 ,-7.37738 
426 ,84.9821 ,1.89361 ,-0.76214 ,-7.47812 
427 ,85.2381 ,1.89621 ,-0.77583 ,-7.61243 
428 ,85.4459 ,1.89839 ,-0.76898 ,-7.54527 
429 ,85.6543 ,1.90036 ,-0.78610 ,-7.71317 
430 ,85.8625 ,1.90256 ,-0.79636 ,-7.81390 
431 ,86.0543 ,1.90447 ,-0.82374 ,-8.08253 
432 ,86.2464 ,1.90637 ,-0.83058 ,-8.14968 
433 ,86.4703 ,1.90855 ,-0.85454 ,-8.38473 
434 ,86.6623 ,1.91052 ,-0.84085 ,-8.25042 
435 ,86.8547 ,1.91246 ,-0.85796 ,-8.41831 
436 ,87.0630 ,1.91459 ,-0.85796 ,-8.41831 
437 ,87.2872 ,1.91669 ,-0.87849 ,-8.61978 
438 ,87.4951 ,1.91884 ,-0.86823 ,-8.51904 
439 ,87.7187 ,1.92094 ,-0.87849 ,-8.61978 
440 ,87.9271 ,1.92314 ,-0.89560 ,-8.78767 
441 ,88.1033 ,1.92507 ,-0.90245 ,-8.85483 
442 ,88.2952 ,1.92685 ,-0.91272 ,-8.95556 
443 ,88.4876 ,1.92881 ,-0.91272 ,-8.95556 
444 ,88.6954 ,1.93088 ,-0.93325 ,-9.15703 
445 ,88.9037 ,1.93289 ,-0.93325 ,-9.15703 
446 ,89.0955 ,1.93483 ,-0.94694 ,-9.29135 
447 ,89.2878 ,1.93679 ,-0.96405 ,-9.45924 
448 ,89.4799 ,1.93872 ,-0.94694 ,-9.29135 
449 ,89.7040 ,1.94087 ,-0.97774 ,-9.59355 
450 ,89.9117 ,1.94299 ,-0.99143 ,-9.72786 
451 ,90.1205 ,1.94505 ,-0.98116 ,-9.62713 
452 ,90.3284 ,1.94721 ,-1.00511 ,-9.86218 
453 ,90.5361 ,1.94922 ,-1.01880 ,-9.99649 
454 ,90.7124 ,1.95113 ,-1.02565 ,-10.06365 
455 ,90.9045 ,1.95295 ,-1.02907 ,-10.09723 
456 ,91.1125 ,1.95499 ,-1.04960 ,-10.29869 
457 ,91.3046 ,1.95691 ,-1.03591 ,-10.16438 
458 ,91.4965 ,1.95885 ,-1.04276 ,-10.23154 
459 ,91.7047 ,1.96092 ,-1.04618 ,-10.26512 
460 ,91.8968 ,1.96280 ,-1.06671 ,-10.46659 
461 ,92.0886 ,1.96477 ,-1.06671 ,-10.46659 
462 ,92.2811 ,1.96672 ,-1.08040 ,-10.60090 
