Data stamp = , 30-04-2022 13:10:46 222

Calibration Values: 
Slope = , 26.54 , g/V 
Offset Voltage at no contact = , -0.501760 , V 

No , Time , Stage Position ,   Mass , Force 
   ,  (s) ,      (mm)      ,   (g)  , (mN)  

1 ,0.0000 ,0.99953 ,5.41487 ,53.13072 
2 ,0.2284 ,0.99964 ,5.41829 ,53.16429 
3 ,0.7887 ,1.00157 ,5.41829 ,53.16429 
4 ,1.0128 ,1.00430 ,5.41145 ,53.09714 
5 ,1.2529 ,1.00659 ,5.42514 ,53.23145 
6 ,1.4289 ,1.00867 ,5.41829 ,53.16429 
7 ,1.6371 ,1.01057 ,5.38065 ,52.79493 
8 ,1.8612 ,1.01275 ,5.36012 ,52.59346 
9 ,2.0692 ,1.01497 ,5.34301 ,52.42557 
10 ,2.2773 ,1.01701 ,5.31563 ,52.15694 
11 ,2.4855 ,1.01914 ,5.32589 ,52.25768 
12 ,2.6615 ,1.02106 ,5.27456 ,51.75401 
13 ,2.8536 ,1.02291 ,5.26087 ,51.61969 
14 ,3.0456 ,1.02478 ,5.25061 ,51.51896 
15 ,3.2376 ,1.02675 ,5.20954 ,51.11602 
16 ,3.4457 ,1.02868 ,5.21981 ,51.21675 
17 ,3.6538 ,1.03077 ,5.18901 ,50.91455 
18 ,3.8623 ,1.03285 ,5.18216 ,50.84739 
19 ,4.0704 ,1.03501 ,5.13768 ,50.41087 
20 ,4.2626 ,1.03692 ,5.14110 ,50.44445 
21 ,4.4547 ,1.03883 ,5.12399 ,50.27656 
22 ,4.6465 ,1.04080 ,5.11372 ,50.17583 
23 ,4.8548 ,1.04285 ,5.05897 ,49.63857 
24 ,5.0623 ,1.04485 ,5.06923 ,49.73931 
25 ,5.2545 ,1.04682 ,5.03501 ,49.40352 
26 ,5.4466 ,1.04871 ,5.01790 ,49.23563 
27 ,5.6226 ,1.05062 ,5.00763 ,49.13490 
28 ,5.8148 ,1.05240 ,4.98368 ,48.89985 
29 ,6.0070 ,1.05432 ,4.96657 ,48.73196 
30 ,6.1992 ,1.05623 ,4.94261 ,48.49691 
31 ,6.3914 ,1.05819 ,4.92550 ,48.32902 
32 ,6.5994 ,1.06021 ,4.91523 ,48.22828 
33 ,6.7915 ,1.06216 ,4.87759 ,47.85892 
34 ,6.9836 ,1.06410 ,4.88444 ,47.92608 
35 ,7.1915 ,1.06606 ,4.85364 ,47.62387 
36 ,7.3998 ,1.06824 ,4.85021 ,47.59030 
37 ,7.5915 ,1.07021 ,4.79546 ,47.05304 
38 ,7.8154 ,1.07235 ,4.80573 ,47.15378 
39 ,8.0240 ,1.07436 ,4.77150 ,46.81800 
40 ,8.2158 ,1.07642 ,4.75439 ,46.65010 
41 ,8.4081 ,1.07830 ,4.72702 ,46.38148 
42 ,8.6162 ,1.08046 ,4.71675 ,46.28074 
43 ,8.8241 ,1.08235 ,4.69964 ,46.11285 
44 ,9.0483 ,1.08464 ,4.66199 ,45.74349 
45 ,9.2563 ,1.08678 ,4.65857 ,45.70991 
46 ,9.4485 ,1.08872 ,4.63462 ,45.47486 
47 ,9.6405 ,1.09072 ,4.63462 ,45.47486 
48 ,9.8326 ,1.09257 ,4.60040 ,45.13908 
49 ,10.0248 ,1.09448 ,4.60724 ,45.20624 
50 ,10.2170 ,1.09640 ,4.58328 ,44.97119 
51 ,10.4089 ,1.09834 ,4.55591 ,44.70256 
52 ,10.6330 ,1.10057 ,4.53195 ,44.46751 
53 ,10.8252 ,1.10250 ,4.52169 ,44.36678 
54 ,11.0169 ,1.10442 ,4.51142 ,44.26604 
55 ,11.2573 ,1.10665 ,4.48062 ,43.96384 
56 ,11.4652 ,1.10891 ,4.46351 ,43.79595 
57 ,11.6574 ,1.11082 ,4.44640 ,43.62806 
58 ,11.8493 ,1.11273 ,4.41902 ,43.35943 
59 ,12.0417 ,1.11468 ,4.41560 ,43.32585 
60 ,12.2493 ,1.11675 ,4.38480 ,43.02365 
61 ,12.4418 ,1.11869 ,4.38138 ,42.99007 
62 ,12.6338 ,1.12057 ,4.34373 ,42.62071 
63 ,12.8419 ,1.12268 ,4.34716 ,42.65429 
64 ,13.0342 ,1.12459 ,4.31293 ,42.31850 
65 ,13.2579 ,1.12675 ,4.30267 ,42.21777 
66 ,13.4660 ,1.12895 ,4.28213 ,42.01630 
67 ,13.6738 ,1.13096 ,4.25476 ,41.74767 
68 ,13.8658 ,1.13286 ,4.24107 ,41.61336 
69 ,14.0420 ,1.13481 ,4.23765 ,41.57978 
70 ,14.2343 ,1.13660 ,4.22053 ,41.41189 
71 ,14.4422 ,1.13866 ,4.20000 ,41.21042 
72 ,14.6347 ,1.14063 ,4.18631 ,41.07611 
73 ,14.8267 ,1.14251 ,4.15551 ,40.77390 
74 ,15.0187 ,1.14441 ,4.15894 ,40.80748 
75 ,15.2109 ,1.14638 ,4.12814 ,40.50527 
76 ,15.4189 ,1.14832 ,4.12129 ,40.43812 
77 ,15.6110 ,1.15035 ,4.09391 ,40.16949 
78 ,15.8031 ,1.15226 ,4.08707 ,40.10233 
79 ,16.0111 ,1.15436 ,4.05627 ,39.80013 
80 ,16.2032 ,1.15628 ,4.04943 ,39.73297 
81 ,16.4113 ,1.15835 ,4.02547 ,39.49793 
82 ,16.6030 ,1.16023 ,4.00494 ,39.29646 
83 ,16.7954 ,1.16220 ,3.98441 ,39.09499 
84 ,17.0035 ,1.16425 ,3.97072 ,38.96067 
85 ,17.1955 ,1.16618 ,3.97414 ,38.99425 
86 ,17.3877 ,1.16809 ,3.94334 ,38.69205 
87 ,17.5798 ,1.17001 ,3.92965 ,38.55773 
88 ,17.7876 ,1.17208 ,3.89885 ,38.25553 
89 ,17.9801 ,1.17405 ,3.90227 ,38.28911 
90 ,18.1720 ,1.17596 ,3.87490 ,38.02048 
91 ,18.3640 ,1.17784 ,3.86463 ,37.91975 
92 ,18.5562 ,1.17977 ,3.86121 ,37.88617 
93 ,18.7639 ,1.18184 ,3.82699 ,37.55038 
94 ,18.9723 ,1.18384 ,3.82356 ,37.51681 
95 ,19.1962 ,1.18620 ,3.78934 ,37.18102 
96 ,19.4045 ,1.18826 ,3.76539 ,36.94597 
97 ,19.6125 ,1.19033 ,3.75512 ,36.84524 
98 ,19.8207 ,1.19246 ,3.74143 ,36.71093 
99 ,20.0127 ,1.19432 ,3.72432 ,36.54303 
100 ,20.2047 ,1.19626 ,3.69010 ,36.20725 
101 ,20.3969 ,1.19820 ,3.70379 ,36.34157 
102 ,20.6044 ,1.20020 ,3.66614 ,35.97220 
103 ,20.7964 ,1.20222 ,3.66614 ,35.97220 
104 ,20.9725 ,1.20409 ,3.62508 ,35.56926 
105 ,21.1811 ,1.20605 ,3.62166 ,35.53569 
106 ,21.4372 ,1.20850 ,3.59770 ,35.30064 
107 ,21.6292 ,1.21051 ,3.57717 ,35.09917 
108 ,21.8214 ,1.21238 ,3.59086 ,35.23348 
109 ,22.0135 ,1.21435 ,3.55663 ,34.89770 
110 ,22.2055 ,1.21623 ,3.53268 ,34.66265 
111 ,22.3976 ,1.21814 ,3.52584 ,34.59549 
112 ,22.5897 ,1.22006 ,3.49846 ,34.32687 
113 ,22.7817 ,1.22199 ,3.49846 ,34.32687 
114 ,22.9739 ,1.22394 ,3.48477 ,34.19255 
115 ,23.1816 ,1.22601 ,3.46424 ,33.99108 
116 ,23.3741 ,1.22798 ,3.43001 ,33.65530 
117 ,23.5659 ,1.22990 ,3.41290 ,33.48741 
118 ,23.7582 ,1.23184 ,3.40948 ,33.45383 
119 ,23.9663 ,1.23384 ,3.37184 ,33.08447 
120 ,24.1743 ,1.23595 ,3.36157 ,32.98374 
121 ,24.3665 ,1.23787 ,3.33419 ,32.71511 
122 ,24.5744 ,1.23996 ,3.34446 ,32.81584 
123 ,24.7668 ,1.24185 ,3.30339 ,32.41290 
124 ,24.9585 ,1.24379 ,3.31366 ,32.51364 
125 ,25.1508 ,1.24571 ,3.28971 ,32.27859 
126 ,25.3425 ,1.24760 ,3.27602 ,32.14428 
127 ,25.5350 ,1.24956 ,3.26575 ,32.04354 
128 ,25.7424 ,1.25163 ,3.23495 ,31.74134 
129 ,25.9512 ,1.25373 ,3.22126 ,31.60702 
130 ,26.1591 ,1.25580 ,3.21100 ,31.50629 
131 ,26.3512 ,1.25770 ,3.18704 ,31.27124 
132 ,26.5274 ,1.25953 ,3.17335 ,31.13693 
133 ,26.7194 ,1.26134 ,3.16993 ,31.10335 
134 ,26.9116 ,1.26329 ,3.14597 ,30.86830 
135 ,27.1195 ,1.26544 ,3.13571 ,30.76757 
136 ,27.3118 ,1.26726 ,3.09464 ,30.36463 
137 ,27.5038 ,1.26924 ,3.09464 ,30.36463 
138 ,27.7119 ,1.27134 ,3.08438 ,30.26389 
139 ,27.9200 ,1.27338 ,3.06384 ,30.06242 
140 ,28.1120 ,1.27529 ,3.05015 ,29.92811 
141 ,28.3201 ,1.27737 ,3.04331 ,29.86095 
142 ,28.5281 ,1.27941 ,3.00909 ,29.52517 
143 ,28.7039 ,1.28137 ,2.99882 ,29.42444 
144 ,28.9123 ,1.28332 ,2.97829 ,29.22297 
145 ,29.1204 ,1.28543 ,2.96118 ,29.05507 
146 ,29.3124 ,1.28728 ,2.94064 ,28.85360 
147 ,29.5205 ,1.28931 ,2.94064 ,28.85360 
148 ,29.7125 ,1.29126 ,2.92011 ,28.65213 
149 ,29.9208 ,1.29338 ,2.90642 ,28.51782 
150 ,30.1287 ,1.29545 ,2.87220 ,28.18204 
151 ,30.3209 ,1.29744 ,2.87220 ,28.18204 
152 ,30.5288 ,1.29943 ,2.83114 ,27.77910 
153 ,30.7211 ,1.30142 ,2.83456 ,27.81268 
154 ,30.8970 ,1.30326 ,2.80718 ,27.54405 
155 ,31.0891 ,1.30508 ,2.79349 ,27.40974 
156 ,31.2812 ,1.30696 ,2.80034 ,27.47689 
157 ,31.4734 ,1.30890 ,2.77296 ,27.20827 
158 ,31.6813 ,1.31100 ,2.77296 ,27.20827 
159 ,31.8897 ,1.31300 ,2.74900 ,26.97322 
160 ,32.0976 ,1.31521 ,2.74216 ,26.90606 
161 ,32.2894 ,1.31721 ,2.70109 ,26.50312 
162 ,32.4817 ,1.31896 ,2.70794 ,26.57028 
163 ,32.6737 ,1.32088 ,2.68056 ,26.30165 
164 ,32.8660 ,1.32280 ,2.66003 ,26.10018 
165 ,33.0736 ,1.32490 ,2.65660 ,26.06661 
166 ,33.2662 ,1.32681 ,2.62581 ,25.76440 
167 ,33.4578 ,1.32875 ,2.63607 ,25.86514 
168 ,33.6503 ,1.33062 ,2.59843 ,25.49577 
169 ,33.8420 ,1.33263 ,2.59843 ,25.49577 
170 ,34.0341 ,1.33445 ,2.57447 ,25.26073 
171 ,34.2262 ,1.33637 ,2.55394 ,25.05926 
172 ,34.4185 ,1.33831 ,2.55736 ,25.09283 
173 ,34.6104 ,1.34022 ,2.51630 ,24.68989 
174 ,34.8026 ,1.34229 ,2.52314 ,24.75705 
175 ,34.9945 ,1.34411 ,2.50603 ,24.58916 
176 ,35.1868 ,1.34597 ,2.47523 ,24.28696 
177 ,35.3628 ,1.34796 ,2.47181 ,24.25338 
178 ,35.5550 ,1.34971 ,2.46496 ,24.18622 
179 ,35.7471 ,1.35161 ,2.43074 ,23.85044 
180 ,35.9552 ,1.35372 ,2.44785 ,24.01833 
181 ,36.1472 ,1.35560 ,2.40679 ,23.61539 
182 ,36.3391 ,1.35755 ,2.41363 ,23.68255 
183 ,36.5314 ,1.35955 ,2.37941 ,23.34676 
184 ,36.7394 ,1.36155 ,2.37256 ,23.27961 
185 ,36.9314 ,1.36350 ,2.35888 ,23.14529 
186 ,37.1397 ,1.36555 ,2.35545 ,23.11171 
187 ,37.3317 ,1.36748 ,2.32808 ,22.84309 
188 ,37.5239 ,1.36939 ,2.30412 ,22.60804 
189 ,37.7476 ,1.37153 ,2.29728 ,22.54088 
190 ,37.9561 ,1.37375 ,2.27674 ,22.33941 
191 ,38.1478 ,1.37564 ,2.26648 ,22.23868 
192 ,38.3561 ,1.37768 ,2.24937 ,22.07079 
193 ,38.5479 ,1.37959 ,2.22541 ,21.83574 
194 ,38.7403 ,1.38154 ,2.22199 ,21.80216 
195 ,38.9483 ,1.38364 ,2.19119 ,21.49996 
196 ,39.1405 ,1.38557 ,2.18777 ,21.46638 
197 ,39.3326 ,1.38751 ,2.19119 ,21.49996 
198 ,39.5407 ,1.38944 ,2.15355 ,21.13059 
199 ,39.7328 ,1.39148 ,2.15012 ,21.09702 
200 ,39.9408 ,1.39354 ,2.13644 ,20.96270 
201 ,40.1329 ,1.39548 ,2.11248 ,20.72766 
202 ,40.3408 ,1.39755 ,2.09537 ,20.55976 
203 ,40.5331 ,1.39944 ,2.08510 ,20.45903 
204 ,40.7409 ,1.40143 ,2.06457 ,20.25756 
205 ,40.9492 ,1.40366 ,2.03377 ,19.95535 
206 ,41.1572 ,1.40571 ,2.04404 ,20.05609 
207 ,41.3494 ,1.40769 ,2.02008 ,19.82104 
208 ,41.5413 ,1.40959 ,2.00639 ,19.68673 
209 ,41.7656 ,1.41182 ,1.98586 ,19.48526 
210 ,41.9736 ,1.41386 ,1.99270 ,19.55241 
211 ,42.1657 ,1.41580 ,1.95506 ,19.18305 
212 ,42.3577 ,1.41771 ,1.94479 ,19.08232 
213 ,42.5501 ,1.41962 ,1.92426 ,18.88085 
214 ,42.7417 ,1.42160 ,1.91742 ,18.81369 
215 ,42.9496 ,1.42365 ,1.91057 ,18.74654 
216 ,43.1421 ,1.42561 ,1.90031 ,18.64580 
217 ,43.3502 ,1.42766 ,1.89688 ,18.61222 
218 ,43.5420 ,1.42959 ,1.85924 ,18.24286 
219 ,43.7501 ,1.43158 ,1.85240 ,18.17570 
220 ,43.9423 ,1.43356 ,1.82844 ,17.94066 
221 ,44.1343 ,1.43542 ,1.82844 ,17.94066 
222 ,44.3268 ,1.43738 ,1.79080 ,17.57129 
223 ,44.5186 ,1.43935 ,1.78737 ,17.53772 
224 ,44.7107 ,1.44122 ,1.77711 ,17.43698 
225 ,44.9188 ,1.44327 ,1.75657 ,17.23551 
226 ,45.1266 ,1.44539 ,1.74973 ,17.16836 
227 ,45.3509 ,1.44747 ,1.74631 ,17.13478 
228 ,45.5430 ,1.44955 ,1.72235 ,16.89973 
229 ,45.7512 ,1.45167 ,1.71209 ,16.79899 
230 ,45.9590 ,1.45369 ,1.69155 ,16.59752 
231 ,46.1511 ,1.45566 ,1.68813 ,16.56395 
232 ,46.3433 ,1.45750 ,1.66075 ,16.29532 
233 ,46.5350 ,1.45947 ,1.65733 ,16.26174 
234 ,46.7272 ,1.46136 ,1.62653 ,15.95954 
235 ,46.9355 ,1.46346 ,1.63680 ,16.06027 
236 ,47.1276 ,1.46538 ,1.60258 ,15.72449 
237 ,47.3196 ,1.46726 ,1.60258 ,15.72449 
238 ,47.5119 ,1.46923 ,1.58547 ,15.55660 
239 ,47.7196 ,1.47137 ,1.56151 ,15.32155 
240 ,47.9441 ,1.47343 ,1.55467 ,15.25439 
241 ,48.1519 ,1.47564 ,1.54782 ,15.18724 
242 ,48.3442 ,1.47750 ,1.51018 ,14.81787 
243 ,48.5362 ,1.47945 ,1.51702 ,14.88503 
244 ,48.7444 ,1.48140 ,1.49991 ,14.71714 
245 ,48.9365 ,1.48346 ,1.48965 ,14.61640 
246 ,49.1446 ,1.48554 ,1.45885 ,14.31420 
247 ,49.3368 ,1.48747 ,1.46911 ,14.41493 
248 ,49.5284 ,1.48942 ,1.43831 ,14.11273 
249 ,49.7528 ,1.49149 ,1.43831 ,14.11273 
250 ,49.9609 ,1.49373 ,1.40409 ,13.77695 
251 ,50.1527 ,1.49567 ,1.40751 ,13.81053 
252 ,50.3450 ,1.49754 ,1.39725 ,13.70979 
253 ,50.5372 ,1.49945 ,1.37671 ,13.50832 
254 ,50.7131 ,1.50134 ,1.35618 ,13.30685 
255 ,50.9052 ,1.50313 ,1.33565 ,13.10538 
256 ,51.0971 ,1.50506 ,1.33907 ,13.13896 
257 ,51.2897 ,1.50700 ,1.31854 ,12.93749 
258 ,51.4817 ,1.50892 ,1.29800 ,12.73602 
259 ,51.6894 ,1.51096 ,1.30827 ,12.83675 
260 ,51.8817 ,1.51290 ,1.27747 ,12.53455 
261 ,52.0897 ,1.51503 ,1.26720 ,12.43381 
262 ,52.2818 ,1.51695 ,1.24667 ,12.23235 
263 ,52.4740 ,1.51885 ,1.26720 ,12.43381 
264 ,52.6822 ,1.52089 ,1.22272 ,11.99730 
265 ,52.8736 ,1.52287 ,1.22956 ,12.06445 
266 ,53.0663 ,1.52473 ,1.18507 ,11.62794 
267 ,53.2583 ,1.52670 ,1.17823 ,11.56078 
268 ,53.4500 ,1.52860 ,1.18165 ,11.59436 
269 ,53.6424 ,1.53054 ,1.15085 ,11.29215 
270 ,53.8344 ,1.53245 ,1.16454 ,11.42647 
271 ,54.0264 ,1.53431 ,1.13374 ,11.12426 
272 ,54.2186 ,1.53623 ,1.12347 ,11.02353 
273 ,54.4105 ,1.53819 ,1.12005 ,10.98995 
274 ,54.6027 ,1.54016 ,1.07556 ,10.55343 
275 ,54.7949 ,1.54205 ,1.09267 ,10.72132 
276 ,54.9871 ,1.54396 ,1.07899 ,10.58701 
277 ,55.1791 ,1.54596 ,1.05503 ,10.35196 
278 ,55.3873 ,1.54795 ,1.04819 ,10.28480 
279 ,55.5952 ,1.55002 ,1.04819 ,10.28480 
280 ,55.7873 ,1.55192 ,1.00370 ,9.84829 
281 ,56.0114 ,1.55412 ,1.00370 ,9.84829 
282 ,56.2034 ,1.55626 ,0.99001 ,9.71397 
283 ,56.3956 ,1.55801 ,0.99001 ,9.71397 
284 ,56.6195 ,1.56015 ,0.95237 ,9.34461 
285 ,56.8118 ,1.56221 ,0.95921 ,9.41177 
286 ,57.0198 ,1.56428 ,0.92841 ,9.10956 
287 ,57.2117 ,1.56620 ,0.92841 ,9.10956 
288 ,57.4200 ,1.56827 ,0.90446 ,8.87451 
289 ,57.6279 ,1.57036 ,0.90103 ,8.84094 
290 ,57.8201 ,1.57222 ,0.87708 ,8.60589 
291 ,58.0123 ,1.57422 ,0.89419 ,8.77378 
292 ,58.2041 ,1.57614 ,0.84970 ,8.33726 
293 ,58.3962 ,1.57801 ,0.83601 ,8.20295 
294 ,58.5884 ,1.57989 ,0.83259 ,8.16937 
295 ,58.7806 ,1.58190 ,0.81548 ,8.00148 
296 ,59.0046 ,1.58406 ,0.80521 ,7.90074 
297 ,59.1966 ,1.58600 ,0.79837 ,7.83359 
298 ,59.3886 ,1.58793 ,0.79495 ,7.80001 
299 ,59.5808 ,1.58995 ,0.77099 ,7.56496 
300 ,59.7887 ,1.59193 ,0.76415 ,7.49780 
301 ,59.9811 ,1.59390 ,0.72308 ,7.09486 
302 ,60.1889 ,1.59588 ,0.74019 ,7.26276 
303 ,60.3814 ,1.59790 ,0.71624 ,7.02771 
304 ,60.5728 ,1.59977 ,0.70939 ,6.96055 
305 ,60.7654 ,1.60169 ,0.69228 ,6.79266 
306 ,60.9572 ,1.60363 ,0.68201 ,6.69193 
307 ,61.1656 ,1.60575 ,0.66490 ,6.52403 
308 ,61.3574 ,1.60764 ,0.65464 ,6.42330 
309 ,61.5496 ,1.60954 ,0.65806 ,6.45688 
310 ,61.7417 ,1.61143 ,0.62726 ,6.15467 
311 ,61.9659 ,1.61353 ,0.62726 ,6.15467 
312 ,62.1579 ,1.61563 ,0.60673 ,5.95320 
313 ,62.3659 ,1.61771 ,0.59988 ,5.88605 
314 ,62.5581 ,1.61961 ,0.58277 ,5.71815 
315 ,62.7658 ,1.62171 ,0.57251 ,5.61742 
316 ,62.9580 ,1.62360 ,0.56566 ,5.55026 
317 ,63.1503 ,1.62554 ,0.55539 ,5.44953 
318 ,63.3424 ,1.62751 ,0.52117 ,5.11375 
319 ,63.5502 ,1.62955 ,0.52117 ,5.11375 
320 ,63.7425 ,1.63149 ,0.49722 ,4.87870 
321 ,63.9344 ,1.63341 ,0.50748 ,4.97943 
322 ,64.1267 ,1.63536 ,0.48695 ,4.77796 
323 ,64.3347 ,1.63737 ,0.48011 ,4.71081 
324 ,64.5430 ,1.63947 ,0.44588 ,4.37502 
325 ,64.7349 ,1.64141 ,0.45957 ,4.50934 
326 ,64.9266 ,1.64326 ,0.44246 ,4.34144 
327 ,65.1191 ,1.64525 ,0.41851 ,4.10640 
328 ,65.3270 ,1.64732 ,0.42877 ,4.20713 
329 ,65.5191 ,1.64920 ,0.40482 ,3.97208 
330 ,65.7113 ,1.65110 ,0.39797 ,3.90493 
331 ,65.9034 ,1.65304 ,0.38771 ,3.80419 
332 ,66.0953 ,1.65510 ,0.39113 ,3.83777 
333 ,66.2878 ,1.65694 ,0.37744 ,3.70346 
334 ,66.4956 ,1.65898 ,0.36375 ,3.56914 
335 ,66.7036 ,1.66096 ,0.34322 ,3.36767 
336 ,66.8958 ,1.66300 ,0.32953 ,3.23336 
337 ,67.0875 ,1.66495 ,0.31926 ,3.13263 
338 ,67.2800 ,1.66689 ,0.29531 ,2.89758 
339 ,67.4882 ,1.66887 ,0.29873 ,2.93116 
340 ,67.6802 ,1.67084 ,0.26793 ,2.62895 
341 ,67.8720 ,1.67278 ,0.28162 ,2.76326 
342 ,68.0642 ,1.67464 ,0.24398 ,2.39390 
343 ,68.2563 ,1.67658 ,0.25082 ,2.46106 
344 ,68.4483 ,1.67846 ,0.23713 ,2.32675 
345 ,68.6406 ,1.68043 ,0.21660 ,2.12528 
346 ,68.8485 ,1.68241 ,0.23029 ,2.25959 
347 ,69.0567 ,1.68457 ,0.22002 ,2.15885 
348 ,69.2484 ,1.68648 ,0.18922 ,1.85665 
349 ,69.4729 ,1.68859 ,0.19607 ,1.92381 
350 ,69.6811 ,1.69085 ,0.16185 ,1.58802 
351 ,69.8730 ,1.69276 ,0.17896 ,1.75592 
352 ,70.0649 ,1.69467 ,0.14473 ,1.42013 
353 ,70.2571 ,1.69658 ,0.14131 ,1.38655 
354 ,70.4330 ,1.69843 ,0.13105 ,1.28582 
355 ,70.6254 ,1.70028 ,0.10709 ,1.05077 
356 ,70.8172 ,1.70221 ,0.12078 ,1.18508 
357 ,71.0096 ,1.70412 ,0.11051 ,1.08435 
358 ,71.2174 ,1.70617 ,0.07629 ,0.74857 
359 ,71.4095 ,1.70811 ,0.08656 ,0.84930 
360 ,71.6017 ,1.71008 ,0.06602 ,0.64783 
361 ,71.8099 ,1.71212 ,0.06602 ,0.64783 
362 ,72.0339 ,1.71435 ,0.05576 ,0.54710 
363 ,72.2421 ,1.71646 ,0.02838 ,0.27847 
364 ,72.4339 ,1.71837 ,0.03865 ,0.37920 
365 ,72.6422 ,1.72041 ,-0.00242 ,-0.02373 
366 ,72.8343 ,1.72234 ,0.01469 ,0.14416 
367 ,73.0263 ,1.72427 ,-0.00584 ,-0.05731 
368 ,73.2182 ,1.72618 ,-0.01953 ,-0.19163 
369 ,73.4105 ,1.72815 ,-0.01269 ,-0.12447 
370 ,73.6022 ,1.72999 ,-0.06060 ,-0.59457 
371 ,73.8102 ,1.73210 ,-0.03664 ,-0.35952 
372 ,74.0023 ,1.73400 ,-0.06744 ,-0.66172 
373 ,74.1947 ,1.73592 ,-0.05717 ,-0.56099 
374 ,74.3869 ,1.73783 ,-0.07771 ,-0.76246 
375 ,74.5789 ,1.73980 ,-0.09482 ,-0.93035 
376 ,74.7707 ,1.74169 ,-0.09824 ,-0.96393 
377 ,74.9632 ,1.74366 ,-0.10851 ,-1.06466 
378 ,75.1553 ,1.74557 ,-0.11193 ,-1.09824 
379 ,75.3633 ,1.74764 ,-0.13246 ,-1.29971 
380 ,75.5553 ,1.74955 ,-0.12904 ,-1.26613 
381 ,75.7474 ,1.75146 ,-0.13588 ,-1.33329 
382 ,75.9395 ,1.75340 ,-0.15642 ,-1.53476 
383 ,76.1637 ,1.75563 ,-0.16668 ,-1.63549 
384 ,76.3557 ,1.75754 ,-0.16668 ,-1.63549 
385 ,76.5476 ,1.75943 ,-0.19406 ,-1.90412 
386 ,76.7400 ,1.76137 ,-0.18722 ,-1.83696 
387 ,76.9476 ,1.76344 ,-0.21117 ,-2.07201 
388 ,77.1400 ,1.76542 ,-0.21459 ,-2.10559 
389 ,77.3477 ,1.76745 ,-0.22828 ,-2.23990 
390 ,77.5402 ,1.76933 ,-0.23513 ,-2.30706 
391 ,77.7322 ,1.77134 ,-0.22486 ,-2.20632 
392 ,77.9403 ,1.77336 ,-0.25908 ,-2.54211 
393 ,78.1323 ,1.77529 ,-0.24539 ,-2.40779 
394 ,78.3245 ,1.77724 ,-0.27619 ,-2.71000 
395 ,78.5166 ,1.77914 ,-0.27619 ,-2.71000 
396 ,78.7083 ,1.78106 ,-0.28304 ,-2.77716 
397 ,78.9008 ,1.78296 ,-0.30699 ,-3.01220 
398 ,79.0924 ,1.78492 ,-0.30015 ,-2.94505 
399 ,79.2846 ,1.78683 ,-0.31726 ,-3.11294 
400 ,79.4770 ,1.78880 ,-0.30699 ,-3.01220 
401 ,79.6689 ,1.79070 ,-0.34464 ,-3.38156 
402 ,79.8766 ,1.79262 ,-0.35490 ,-3.48230 
403 ,80.0691 ,1.79470 ,-0.34806 ,-3.41514 
404 ,80.2768 ,1.79670 ,-0.36175 ,-3.54946 
405 ,80.4692 ,1.79871 ,-0.36517 ,-3.58303 
406 ,80.6770 ,1.80064 ,-0.39255 ,-3.85166 
407 ,80.8695 ,1.80263 ,-0.39939 ,-3.91882 
408 ,81.0776 ,1.80477 ,-0.39939 ,-3.91882 
409 ,81.2692 ,1.80670 ,-0.40966 ,-4.01955 
410 ,81.4771 ,1.80868 ,-0.43019 ,-4.22102 
411 ,81.6695 ,1.81071 ,-0.43703 ,-4.28818 
412 ,81.9099 ,1.81305 ,-0.43703 ,-4.28818 
413 ,82.1181 ,1.81514 ,-0.45757 ,-4.48965 
414 ,82.3101 ,1.81703 ,-0.46099 ,-4.52323 
415 ,82.5022 ,1.81903 ,-0.47468 ,-4.65754 
416 ,82.6938 ,1.82100 ,-0.49179 ,-4.82543 
417 ,82.8863 ,1.82280 ,-0.50206 ,-4.92617 
418 ,83.0782 ,1.82474 ,-0.49863 ,-4.89259 
419 ,83.2705 ,1.82671 ,-0.49863 ,-4.89259 
420 ,83.4624 ,1.82858 ,-0.52259 ,-5.12764 
421 ,83.6547 ,1.83050 ,-0.52259 ,-5.12764 
422 ,83.8628 ,1.83264 ,-0.54654 ,-5.36268 
423 ,84.0707 ,1.83467 ,-0.52943 ,-5.19479 
424 ,84.2628 ,1.83659 ,-0.58077 ,-5.69847 
425 ,84.4549 ,1.83852 ,-0.55339 ,-5.42984 
426 ,84.6465 ,1.84043 ,-0.58761 ,-5.76562 
427 ,84.8391 ,1.84231 ,-0.60130 ,-5.89994 
428 ,85.0471 ,1.84441 ,-0.59103 ,-5.79920 
429 ,85.2392 ,1.84634 ,-0.60472 ,-5.93352 
430 ,85.4313 ,1.84827 ,-0.61499 ,-6.03425 
431 ,85.6233 ,1.85016 ,-0.62525 ,-6.13499 
432 ,85.8154 ,1.85209 ,-0.62525 ,-6.13499 
433 ,86.0236 ,1.85423 ,-0.64236 ,-6.30288 
434 ,86.2315 ,1.85627 ,-0.63894 ,-6.26930 
435 ,86.4237 ,1.85824 ,-0.65947 ,-6.47077 
436 ,86.6159 ,1.86015 ,-0.65263 ,-6.40361 
437 ,86.8234 ,1.86219 ,-0.69027 ,-6.77297 
438 ,87.0160 ,1.86410 ,-0.66974 ,-6.57150 
439 ,87.2078 ,1.86604 ,-0.69370 ,-6.80655 
440 ,87.4160 ,1.86811 ,-0.68685 ,-6.73940 
441 ,87.6082 ,1.87004 ,-0.70739 ,-6.94086 
442 ,87.8162 ,1.87210 ,-0.71081 ,-6.97444 
443 ,88.0081 ,1.87405 ,-0.73476 ,-7.20949 
444 ,88.2003 ,1.87596 ,-0.73476 ,-7.20949 
445 ,88.3924 ,1.87786 ,-0.73134 ,-7.17591 
446 ,88.5841 ,1.87975 ,-0.75872 ,-7.44454 
447 ,88.7762 ,1.88170 ,-0.76898 ,-7.54527 
448 ,88.9682 ,1.88360 ,-0.76214 ,-7.47812 
449 ,89.1763 ,1.88561 ,-0.77583 ,-7.61243 
450 ,89.3684 ,1.88759 ,-0.78267 ,-7.67959 
451 ,89.5605 ,1.88955 ,-0.79978 ,-7.84748 
452 ,89.7526 ,1.89144 ,-0.79978 ,-7.84748 
453 ,89.9447 ,1.89335 ,-0.82374 ,-8.08253 
454 ,90.1367 ,1.89527 ,-0.83058 ,-8.14968 
455 ,90.3288 ,1.89723 ,-0.83058 ,-8.14968 
456 ,90.5210 ,1.89914 ,-0.84427 ,-8.28400 
457 ,90.7130 ,1.90103 ,-0.84769 ,-8.31758 
458 ,90.9051 ,1.90296 ,-0.86823 ,-8.51904 
459 ,91.0972 ,1.90488 ,-0.87165 ,-8.55262 
460 ,91.2893 ,1.90680 ,-0.87165 ,-8.55262 
461 ,91.4814 ,1.90874 ,-0.89560 ,-8.78767 
462 ,91.6734 ,1.91065 ,-0.88876 ,-8.72051 
463 ,91.8653 ,1.91258 ,-0.89903 ,-8.82125 
