Data stamp = , 30-04-2022 20:07:31 089

Calibration Values: 
Slope = , 26.54 , g/V 
Offset Voltage at no contact = , -0.501760 , V 

No , Time , Stage Position ,   Mass , Force 
   ,  (s) ,      (mm)      ,   (g)  , (mN)  

1 ,0.0000 ,0.99948 ,5.43540 ,53.33219 
2 ,0.2194 ,0.99958 ,5.42856 ,53.26503 
3 ,0.5722 ,1.00060 ,5.42856 ,53.26503 
4 ,0.8442 ,1.00267 ,5.44225 ,53.39934 
5 ,1.0522 ,1.00465 ,5.44567 ,53.43292 
6 ,1.2444 ,1.00666 ,5.43540 ,53.33219 
7 ,1.4525 ,1.00875 ,5.42856 ,53.26503 
8 ,1.6606 ,1.01073 ,5.39776 ,52.96282 
9 ,1.8523 ,1.01272 ,5.39434 ,52.92925 
10 ,2.0447 ,1.01465 ,5.34301 ,52.42557 
11 ,2.2368 ,1.01662 ,5.34643 ,52.45915 
12 ,2.4288 ,1.01850 ,5.32932 ,52.29126 
13 ,2.6531 ,1.02074 ,5.32247 ,52.22410 
14 ,2.8607 ,1.02285 ,5.29167 ,51.92190 
15 ,3.0532 ,1.02479 ,5.28141 ,51.82116 
16 ,3.2612 ,1.02682 ,5.23692 ,51.38464 
17 ,3.4533 ,1.02874 ,5.24718 ,51.48538 
18 ,3.6615 ,1.03080 ,5.20612 ,51.08244 
19 ,3.8535 ,1.03278 ,5.19585 ,50.98170 
20 ,4.0616 ,1.03485 ,5.16163 ,50.64592 
21 ,4.2535 ,1.03673 ,5.15479 ,50.57876 
22 ,4.4457 ,1.03865 ,5.12741 ,50.31014 
23 ,4.6378 ,1.04058 ,5.11714 ,50.20940 
24 ,4.8298 ,1.04252 ,5.10003 ,50.04151 
25 ,5.0218 ,1.04447 ,5.07608 ,49.80646 
26 ,5.2300 ,1.04653 ,5.06581 ,49.70573 
27 ,5.4377 ,1.04857 ,5.03843 ,49.43710 
28 ,5.6302 ,1.05052 ,5.02474 ,49.30279 
29 ,5.8381 ,1.05253 ,5.00763 ,49.13490 
30 ,6.0303 ,1.05456 ,4.99394 ,49.00058 
31 ,6.2379 ,1.05663 ,4.96999 ,48.76554 
32 ,6.4145 ,1.05848 ,4.93919 ,48.46333 
33 ,6.6068 ,1.06026 ,4.91866 ,48.26186 
34 ,6.7986 ,1.06221 ,4.91866 ,48.26186 
35 ,6.9906 ,1.06413 ,4.88786 ,47.95966 
36 ,7.1988 ,1.06622 ,4.86732 ,47.75819 
37 ,7.4065 ,1.06824 ,4.84679 ,47.55672 
38 ,7.5990 ,1.07020 ,4.83310 ,47.42240 
39 ,7.7911 ,1.07212 ,4.82284 ,47.32167 
40 ,7.9831 ,1.07401 ,4.80230 ,47.12020 
41 ,8.1752 ,1.07595 ,4.78177 ,46.91873 
42 ,8.3670 ,1.07785 ,4.74755 ,46.58295 
43 ,8.5756 ,1.07993 ,4.75782 ,46.68368 
44 ,8.7833 ,1.08209 ,4.71675 ,46.28074 
45 ,8.9755 ,1.08394 ,4.72017 ,46.31432 
46 ,9.1838 ,1.08592 ,4.67568 ,45.87780 
47 ,9.3756 ,1.08801 ,4.66884 ,45.81065 
48 ,9.5518 ,1.08984 ,4.65173 ,45.64275 
49 ,9.7439 ,1.09164 ,4.63462 ,45.47486 
50 ,9.9360 ,1.09356 ,4.62777 ,45.40771 
51 ,10.1600 ,1.09567 ,4.60382 ,45.17266 
52 ,10.3521 ,1.09771 ,4.58671 ,45.00477 
53 ,10.5918 ,1.10006 ,4.55591 ,44.70256 
54 ,10.7838 ,1.10203 ,4.53537 ,44.50109 
55 ,10.9766 ,1.10395 ,4.53537 ,44.50109 
56 ,11.1846 ,1.10604 ,4.49773 ,44.13173 
57 ,11.3768 ,1.10793 ,4.50115 ,44.16531 
58 ,11.5685 ,1.10987 ,4.46351 ,43.79595 
59 ,11.7606 ,1.11177 ,4.45324 ,43.69521 
60 ,11.9527 ,1.11375 ,4.44982 ,43.66163 
61 ,12.1608 ,1.11583 ,4.41560 ,43.32585 
62 ,12.3529 ,1.11773 ,4.39849 ,43.15796 
63 ,12.5609 ,1.11975 ,4.38822 ,43.05723 
64 ,12.7526 ,1.12168 ,4.38138 ,42.99007 
65 ,12.9611 ,1.12370 ,4.33689 ,42.55355 
66 ,13.1693 ,1.12583 ,4.31978 ,42.38566 
67 ,13.3614 ,1.12781 ,4.32320 ,42.41924 
68 ,13.5850 ,1.13012 ,4.30267 ,42.21777 
69 ,13.7775 ,1.13197 ,4.28556 ,42.04988 
70 ,13.9695 ,1.13393 ,4.26160 ,41.81483 
71 ,14.1616 ,1.13579 ,4.23765 ,41.57978 
72 ,14.3536 ,1.13771 ,4.23080 ,41.51262 
73 ,14.5458 ,1.13971 ,4.20000 ,41.21042 
74 ,14.7378 ,1.14159 ,4.20000 ,41.21042 
75 ,14.9296 ,1.14345 ,4.16920 ,40.90821 
76 ,15.1378 ,1.14551 ,4.16920 ,40.90821 
77 ,15.3460 ,1.14766 ,4.12129 ,40.43812 
78 ,15.5380 ,1.14955 ,4.12814 ,40.50527 
79 ,15.7142 ,1.15144 ,4.10760 ,40.30380 
80 ,15.9063 ,1.15322 ,4.07338 ,39.96802 
81 ,16.1142 ,1.15530 ,4.08707 ,40.10233 
82 ,16.3065 ,1.15720 ,4.04943 ,39.73297 
83 ,16.4825 ,1.15911 ,4.04600 ,39.69940 
84 ,16.6747 ,1.16091 ,4.03232 ,39.56508 
85 ,16.8667 ,1.16284 ,3.99809 ,39.22930 
86 ,17.0748 ,1.16492 ,3.99809 ,39.22930 
87 ,17.2668 ,1.16680 ,3.95703 ,38.82636 
88 ,17.4587 ,1.16873 ,3.95703 ,38.82636 
89 ,17.6511 ,1.17072 ,3.93650 ,38.62489 
90 ,17.8431 ,1.17259 ,3.92965 ,38.55773 
91 ,18.0511 ,1.17466 ,3.89885 ,38.25553 
92 ,18.2427 ,1.17660 ,3.88174 ,38.08764 
93 ,18.4353 ,1.17855 ,3.87147 ,37.98690 
94 ,18.6434 ,1.18061 ,3.84752 ,37.75185 
95 ,18.8355 ,1.18250 ,3.83383 ,37.61754 
96 ,19.0436 ,1.18458 ,3.80987 ,37.38249 
97 ,19.2517 ,1.18667 ,3.78934 ,37.18102 
98 ,19.4435 ,1.18870 ,3.78592 ,37.14744 
99 ,19.6358 ,1.19047 ,3.76539 ,36.94597 
100 ,19.8439 ,1.19259 ,3.74828 ,36.77808 
101 ,20.0359 ,1.19454 ,3.72774 ,36.57661 
102 ,20.2278 ,1.19646 ,3.70721 ,36.37514 
103 ,20.4201 ,1.19834 ,3.70721 ,36.37514 
104 ,20.6123 ,1.20030 ,3.67641 ,36.07294 
105 ,20.8202 ,1.20240 ,3.67641 ,36.07294 
106 ,21.0124 ,1.20426 ,3.64219 ,35.73716 
107 ,21.2044 ,1.20619 ,3.63534 ,35.67000 
108 ,21.3965 ,1.20808 ,3.61139 ,35.43495 
109 ,21.5723 ,1.20996 ,3.58401 ,35.16632 
110 ,21.7648 ,1.21180 ,3.56690 ,34.99843 
111 ,21.9728 ,1.21391 ,3.56348 ,34.96485 
112 ,22.1649 ,1.21581 ,3.53268 ,34.66265 
113 ,22.3729 ,1.21792 ,3.53610 ,34.69623 
114 ,22.5649 ,1.21978 ,3.50530 ,34.39402 
115 ,22.7573 ,1.22172 ,3.50872 ,34.42760 
116 ,22.9812 ,1.22387 ,3.47792 ,34.12540 
117 ,23.1731 ,1.22592 ,3.45739 ,33.92393 
118 ,23.3811 ,1.22798 ,3.44713 ,33.82319 
119 ,23.5733 ,1.22989 ,3.43344 ,33.68888 
120 ,23.7650 ,1.23177 ,3.40264 ,33.38667 
121 ,23.9737 ,1.23381 ,3.39237 ,33.28594 
122 ,24.1816 ,1.23592 ,3.38210 ,33.18520 
123 ,24.3740 ,1.23787 ,3.35815 ,32.95016 
124 ,24.5819 ,1.23999 ,3.34788 ,32.84942 
125 ,24.7740 ,1.24190 ,3.33077 ,32.68153 
126 ,24.9660 ,1.24379 ,3.29655 ,32.34575 
127 ,25.1581 ,1.24576 ,3.30339 ,32.41290 
128 ,25.3662 ,1.24780 ,3.27259 ,32.11070 
129 ,25.5584 ,1.24971 ,3.26575 ,32.04354 
130 ,25.7503 ,1.25168 ,3.24864 ,31.87565 
131 ,25.9419 ,1.25367 ,3.23495 ,31.74134 
132 ,26.1504 ,1.25557 ,3.21442 ,31.53987 
133 ,26.3425 ,1.25759 ,3.18704 ,31.27124 
134 ,26.5346 ,1.25949 ,3.19046 ,31.30482 
135 ,26.7267 ,1.26143 ,3.15282 ,30.93546 
136 ,26.9347 ,1.26339 ,3.15282 ,30.93546 
137 ,27.1427 ,1.26560 ,3.11175 ,30.53252 
138 ,27.3510 ,1.26764 ,3.11175 ,30.53252 
139 ,27.5429 ,1.26957 ,3.07411 ,30.16316 
140 ,27.7350 ,1.27146 ,3.08438 ,30.26389 
141 ,27.9111 ,1.27335 ,3.04331 ,29.86095 
142 ,28.1348 ,1.27533 ,3.06042 ,30.02884 
143 ,28.3274 ,1.27742 ,3.02620 ,29.69306 
144 ,28.5193 ,1.27931 ,3.00909 ,29.52517 
145 ,28.7115 ,1.28126 ,2.99198 ,29.35728 
146 ,28.9191 ,1.28326 ,2.98513 ,29.29012 
147 ,29.1113 ,1.28523 ,2.95433 ,28.98792 
148 ,29.3032 ,1.28715 ,2.95091 ,28.95434 
149 ,29.4958 ,1.28909 ,2.94407 ,28.88718 
150 ,29.6878 ,1.29100 ,2.90300 ,28.48424 
151 ,29.8959 ,1.29304 ,2.89958 ,28.45066 
152 ,30.0880 ,1.29497 ,2.87220 ,28.18204 
153 ,30.2959 ,1.29706 ,2.86536 ,28.11488 
154 ,30.5040 ,1.29915 ,2.83456 ,27.81268 
155 ,30.7122 ,1.30122 ,2.82771 ,27.74552 
156 ,30.9042 ,1.30320 ,2.79007 ,27.37616 
157 ,31.0965 ,1.30510 ,2.81402 ,27.61121 
158 ,31.3046 ,1.30714 ,2.76954 ,27.17469 
159 ,31.5127 ,1.30913 ,2.76954 ,27.17469 
160 ,31.7047 ,1.31116 ,2.74216 ,26.90606 
161 ,31.8967 ,1.31308 ,2.73531 ,26.83891 
162 ,32.0885 ,1.31504 ,2.71136 ,26.60386 
163 ,32.2811 ,1.31696 ,2.69425 ,26.43597 
164 ,32.4887 ,1.31900 ,2.69083 ,26.40239 
165 ,32.6813 ,1.32094 ,2.66687 ,26.16734 
166 ,32.8893 ,1.32297 ,2.66003 ,26.10018 
167 ,33.0815 ,1.32496 ,2.64634 ,25.96587 
168 ,33.2894 ,1.32700 ,2.62923 ,25.79798 
169 ,33.4816 ,1.32894 ,2.60185 ,25.52935 
170 ,33.6736 ,1.33088 ,2.60527 ,25.56293 
171 ,33.8656 ,1.33275 ,2.57105 ,25.22715 
172 ,34.0575 ,1.33467 ,2.56763 ,25.19357 
173 ,34.2819 ,1.33683 ,2.54710 ,24.99210 
174 ,34.4897 ,1.33897 ,2.52656 ,24.79063 
175 ,34.6818 ,1.34088 ,2.51630 ,24.68989 
176 ,34.8737 ,1.34288 ,2.51287 ,24.65632 
177 ,35.0661 ,1.34474 ,2.47181 ,24.25338 
178 ,35.2579 ,1.34669 ,2.48207 ,24.35411 
179 ,35.4502 ,1.34863 ,2.45812 ,24.11906 
180 ,35.6424 ,1.35051 ,2.45470 ,24.08549 
181 ,35.8339 ,1.35250 ,2.43759 ,23.91759 
182 ,36.0265 ,1.35439 ,2.39994 ,23.54823 
183 ,36.2505 ,1.35652 ,2.38968 ,23.44750 
184 ,36.4425 ,1.35850 ,2.37256 ,23.27961 
185 ,36.6347 ,1.36047 ,2.37256 ,23.27961 
186 ,36.8428 ,1.36255 ,2.34861 ,23.04456 
187 ,37.0348 ,1.36446 ,2.34177 ,22.97740 
188 ,37.2589 ,1.36656 ,2.29728 ,22.54088 
189 ,37.4667 ,1.36869 ,2.30412 ,22.60804 
190 ,37.6592 ,1.37064 ,2.27674 ,22.33941 
191 ,37.8510 ,1.37262 ,2.26648 ,22.23868 
192 ,38.0429 ,1.37461 ,2.25621 ,22.13794 
193 ,38.2352 ,1.37644 ,2.25279 ,22.10437 
194 ,38.4436 ,1.37845 ,2.22199 ,21.80216 
195 ,38.6516 ,1.38051 ,2.20830 ,21.66785 
196 ,38.8436 ,1.38252 ,2.19119 ,21.49996 
197 ,39.0358 ,1.38446 ,2.18777 ,21.46638 
198 ,39.2277 ,1.38640 ,2.15697 ,21.16417 
199 ,39.4359 ,1.38842 ,2.17408 ,21.33206 
200 ,39.6279 ,1.39035 ,2.13301 ,20.92912 
201 ,39.8361 ,1.39248 ,2.13644 ,20.96270 
202 ,40.0443 ,1.39439 ,2.10564 ,20.66050 
203 ,40.2522 ,1.39662 ,2.09537 ,20.55976 
204 ,40.4443 ,1.39848 ,2.07826 ,20.39187 
205 ,40.6365 ,1.40043 ,2.08168 ,20.42545 
206 ,40.8282 ,1.40239 ,2.05430 ,20.15682 
207 ,41.0206 ,1.40427 ,2.03377 ,19.95535 
208 ,41.2127 ,1.40622 ,2.02693 ,19.88820 
209 ,41.4207 ,1.40831 ,2.00297 ,19.65315 
210 ,41.6288 ,1.41042 ,1.99270 ,19.55241 
211 ,41.8369 ,1.41249 ,1.99613 ,19.58599 
212 ,42.0290 ,1.41435 ,1.96533 ,19.28379 
213 ,42.2371 ,1.41645 ,1.95164 ,19.14948 
214 ,42.4452 ,1.41849 ,1.92426 ,18.88085 
215 ,42.6374 ,1.42045 ,1.93111 ,18.94801 
216 ,42.8611 ,1.42259 ,1.90373 ,18.67938 
217 ,43.0694 ,1.42479 ,1.88319 ,18.47791 
218 ,43.2613 ,1.42664 ,1.88662 ,18.51149 
219 ,43.4693 ,1.42874 ,1.84555 ,18.10855 
220 ,43.6774 ,1.43078 ,1.84213 ,18.07497 
221 ,43.8694 ,1.43279 ,1.82844 ,17.94066 
222 ,44.0614 ,1.43472 ,1.81475 ,17.80634 
223 ,44.2698 ,1.43668 ,1.80791 ,17.73919 
224 ,44.4940 ,1.43900 ,1.79764 ,17.63845 
225 ,44.6863 ,1.44093 ,1.76684 ,17.33625 
226 ,44.9102 ,1.44308 ,1.77026 ,17.36983 
227 ,45.1024 ,1.44514 ,1.73262 ,17.00046 
228 ,45.3104 ,1.44721 ,1.73262 ,17.00046 
229 ,45.5021 ,1.44912 ,1.70866 ,16.76542 
230 ,45.6942 ,1.45101 ,1.70866 ,16.76542 
231 ,45.8866 ,1.45289 ,1.67444 ,16.42963 
232 ,46.0786 ,1.45484 ,1.68813 ,16.56395 
233 ,46.2867 ,1.45687 ,1.65391 ,16.22816 
234 ,46.4627 ,1.45877 ,1.66760 ,16.36248 
235 ,46.6550 ,1.46060 ,1.65391 ,16.22816 
236 ,46.8630 ,1.46269 ,1.61969 ,15.89238 
237 ,47.0548 ,1.46463 ,1.62311 ,15.92596 
238 ,47.2471 ,1.46649 ,1.58547 ,15.55660 
239 ,47.4553 ,1.46862 ,1.59231 ,15.62375 
240 ,47.6473 ,1.47053 ,1.57520 ,15.45586 
241 ,47.8230 ,1.47241 ,1.55467 ,15.25439 
242 ,48.0316 ,1.47427 ,1.55467 ,15.25439 
243 ,48.2396 ,1.47648 ,1.52729 ,14.98577 
244 ,48.4476 ,1.47854 ,1.49991 ,14.71714 
245 ,48.6396 ,1.48044 ,1.51018 ,14.81787 
246 ,48.8318 ,1.48242 ,1.49991 ,14.71714 
247 ,49.0237 ,1.48442 ,1.48965 ,14.61640 
248 ,49.2160 ,1.48624 ,1.48965 ,14.61640 
249 ,49.4078 ,1.48812 ,1.43489 ,14.07915 
250 ,49.6480 ,1.49045 ,1.43831 ,14.11273 
251 ,49.8402 ,1.49245 ,1.42120 ,13.94484 
252 ,50.0478 ,1.49446 ,1.39725 ,13.70979 
253 ,50.2401 ,1.49647 ,1.40067 ,13.74337 
254 ,50.4485 ,1.49853 ,1.37671 ,13.50832 
255 ,50.6567 ,1.50061 ,1.38698 ,13.60906 
256 ,50.8484 ,1.50251 ,1.34934 ,13.23969 
257 ,51.0567 ,1.50462 ,1.35276 ,13.27327 
258 ,51.2327 ,1.50650 ,1.32196 ,12.97107 
259 ,51.4250 ,1.50829 ,1.31854 ,12.93749 
260 ,51.6170 ,1.51022 ,1.31854 ,12.93749 
261 ,51.8250 ,1.51226 ,1.28774 ,12.63528 
262 ,52.0172 ,1.51424 ,1.29800 ,12.73602 
263 ,52.2248 ,1.51634 ,1.26036 ,12.36666 
264 ,52.4174 ,1.51825 ,1.26720 ,12.43381 
265 ,52.6254 ,1.52027 ,1.22614 ,12.03088 
266 ,52.8172 ,1.52220 ,1.22614 ,12.03088 
267 ,53.0095 ,1.52415 ,1.21245 ,11.89656 
268 ,53.2017 ,1.52605 ,1.20218 ,11.79583 
269 ,53.3936 ,1.52803 ,1.17481 ,11.52720 
270 ,53.5857 ,1.52985 ,1.16796 ,11.46004 
271 ,53.7778 ,1.53182 ,1.17823 ,11.56078 
272 ,53.9858 ,1.53389 ,1.14401 ,11.22500 
273 ,54.1779 ,1.53578 ,1.14058 ,11.19142 
274 ,54.3696 ,1.53772 ,1.12005 ,10.98995 
275 ,54.5622 ,1.53967 ,1.11321 ,10.92279 
276 ,54.7700 ,1.54174 ,1.07899 ,10.58701 
277 ,54.9623 ,1.54367 ,1.08241 ,10.62059 
278 ,55.1703 ,1.54568 ,1.05161 ,10.31838 
279 ,55.3787 ,1.54775 ,1.06530 ,10.45270 
280 ,55.5866 ,1.54989 ,1.03792 ,10.18407 
281 ,55.7947 ,1.55198 ,1.03108 ,10.11691 
282 ,56.0028 ,1.55405 ,1.01054 ,9.91544 
283 ,56.1948 ,1.55597 ,1.01054 ,9.91544 
284 ,56.4029 ,1.55801 ,1.00028 ,9.81471 
285 ,56.5945 ,1.55995 ,0.98659 ,9.68039 
286 ,56.7868 ,1.56189 ,0.95579 ,9.37819 
287 ,56.9952 ,1.56396 ,0.95579 ,9.37819 
288 ,57.1870 ,1.56588 ,0.93525 ,9.17672 
289 ,57.3793 ,1.56778 ,0.93525 ,9.17672 
290 ,57.5873 ,1.56988 ,0.90788 ,8.90809 
291 ,57.7955 ,1.57196 ,0.90103 ,8.84094 
292 ,58.0196 ,1.57409 ,0.89077 ,8.74020 
293 ,58.2273 ,1.57629 ,0.87023 ,8.53873 
294 ,58.4197 ,1.57815 ,0.87708 ,8.60589 
295 ,58.6596 ,1.58063 ,0.85654 ,8.40442 
296 ,58.8518 ,1.58251 ,0.82232 ,8.06864 
297 ,59.0598 ,1.58463 ,0.83259 ,8.16937 
298 ,59.2521 ,1.58655 ,0.80863 ,7.93432 
299 ,59.4597 ,1.58860 ,0.80179 ,7.86717 
300 ,59.6522 ,1.59054 ,0.79495 ,7.80001 
301 ,59.8438 ,1.59245 ,0.76415 ,7.49780 
302 ,60.0523 ,1.59442 ,0.76415 ,7.49780 
303 ,60.2604 ,1.59656 ,0.74704 ,7.32991 
304 ,60.4519 ,1.59849 ,0.71966 ,7.06129 
305 ,60.6439 ,1.60044 ,0.71966 ,7.06129 
306 ,60.8362 ,1.60241 ,0.70255 ,6.89340 
307 ,61.0607 ,1.60465 ,0.68886 ,6.75908 
308 ,61.2686 ,1.60672 ,0.66833 ,6.55761 
309 ,61.4604 ,1.60863 ,0.68201 ,6.69193 
310 ,61.6690 ,1.61072 ,0.65464 ,6.42330 
311 ,61.8771 ,1.61274 ,0.64437 ,6.32256 
312 ,62.0686 ,1.61470 ,0.62726 ,6.15467 
313 ,62.2610 ,1.61662 ,0.62726 ,6.15467 
314 ,62.4528 ,1.61854 ,0.59646 ,5.85247 
315 ,62.6448 ,1.62042 ,0.59304 ,5.81889 
316 ,62.8370 ,1.62239 ,0.59304 ,5.81889 
317 ,63.0291 ,1.62426 ,0.57593 ,5.65100 
318 ,63.2211 ,1.62620 ,0.56908 ,5.58384 
319 ,63.4133 ,1.62809 ,0.55882 ,5.48311 
320 ,63.5893 ,1.63000 ,0.53486 ,5.24806 
321 ,63.7814 ,1.63182 ,0.53144 ,5.21448 
322 ,63.9734 ,1.63372 ,0.51775 ,5.08017 
323 ,64.1655 ,1.63564 ,0.50064 ,4.91228 
324 ,64.3576 ,1.63753 ,0.50064 ,4.91228 
325 ,64.5497 ,1.63950 ,0.48353 ,4.74438 
326 ,64.7417 ,1.64138 ,0.48011 ,4.71081 
327 ,64.9338 ,1.64331 ,0.45273 ,4.44218 
328 ,65.1419 ,1.64532 ,0.44931 ,4.40860 
329 ,65.3180 ,1.64732 ,0.42877 ,4.20713 
330 ,65.5261 ,1.64920 ,0.42535 ,4.17355 
331 ,65.7181 ,1.65112 ,0.42535 ,4.17355 
332 ,65.9102 ,1.65306 ,0.39113 ,3.83777 
333 ,66.1023 ,1.65500 ,0.38771 ,3.80419 
334 ,66.2943 ,1.65691 ,0.37744 ,3.70346 
335 ,66.4865 ,1.65887 ,0.36718 ,3.60272 
336 ,66.6785 ,1.66077 ,0.37402 ,3.66988 
337 ,66.8710 ,1.66268 ,0.34664 ,3.40125 
338 ,67.0628 ,1.66460 ,0.33980 ,3.33410 
339 ,67.2712 ,1.66663 ,0.33638 ,3.30052 
340 ,67.4627 ,1.66858 ,0.31926 ,3.13263 
341 ,67.6552 ,1.67049 ,0.30900 ,3.03189 
342 ,67.8474 ,1.67247 ,0.29189 ,2.86400 
343 ,68.0392 ,1.67440 ,0.29531 ,2.89758 
344 ,68.2635 ,1.67652 ,0.26451 ,2.59537 
345 ,68.4555 ,1.67851 ,0.26451 ,2.59537 
346 ,68.6632 ,1.68061 ,0.25767 ,2.52822 
347 ,68.8556 ,1.68253 ,0.24398 ,2.39390 
348 ,69.0475 ,1.68438 ,0.22002 ,2.15885 
349 ,69.2397 ,1.68632 ,0.22344 ,2.19243 
350 ,69.4319 ,1.68830 ,0.18580 ,1.82307 
351 ,69.6240 ,1.69023 ,0.19607 ,1.92381 
352 ,69.8161 ,1.69214 ,0.17553 ,1.72234 
353 ,69.9916 ,1.69400 ,0.17553 ,1.72234 
354 ,70.1847 ,1.69576 ,0.16869 ,1.65518 
355 ,70.4082 ,1.69802 ,0.15500 ,1.52087 
356 ,70.6164 ,1.70015 ,0.15842 ,1.55445 
357 ,70.8081 ,1.70208 ,0.12762 ,1.25224 
358 ,71.0002 ,1.70400 ,0.13105 ,1.28582 
359 ,71.1927 ,1.70587 ,0.10709 ,1.05077 
360 ,71.3845 ,1.70785 ,0.10367 ,1.01719 
361 ,71.5767 ,1.70970 ,0.08998 ,0.88288 
362 ,71.7689 ,1.71159 ,0.06945 ,0.68141 
363 ,71.9606 ,1.71358 ,0.08998 ,0.88288 
364 ,72.1530 ,1.71546 ,0.04891 ,0.47994 
365 ,72.3611 ,1.71754 ,0.06260 ,0.61425 
366 ,72.5528 ,1.71948 ,0.04207 ,0.41278 
367 ,72.7447 ,1.72145 ,0.03180 ,0.31205 
368 ,72.9529 ,1.72344 ,0.00785 ,0.07700 
369 ,73.1609 ,1.72554 ,0.02496 ,0.24489 
370 ,73.3530 ,1.72751 ,-0.01269 ,-0.12447 
371 ,73.5771 ,1.72962 ,-0.00926 ,-0.09089 
372 ,73.7853 ,1.73175 ,-0.02295 ,-0.22520 
373 ,73.9774 ,1.73373 ,-0.03664 ,-0.35952 
374 ,74.1693 ,1.73567 ,-0.06060 ,-0.59457 
375 ,74.3615 ,1.73755 ,-0.05717 ,-0.56099 
376 ,74.5699 ,1.73956 ,-0.07428 ,-0.72888 
377 ,74.7779 ,1.74174 ,-0.06744 ,-0.66172 
378 ,74.9700 ,1.74365 ,-0.08455 ,-0.82961 
379 ,75.1623 ,1.74558 ,-0.08455 ,-0.82961 
380 ,75.3542 ,1.74751 ,-0.11193 ,-1.09824 
381 ,75.5625 ,1.74962 ,-0.11877 ,-1.16540 
382 ,75.7706 ,1.75162 ,-0.13931 ,-1.36687 
383 ,75.9466 ,1.75354 ,-0.13246 ,-1.29971 
384 ,76.1387 ,1.75532 ,-0.13931 ,-1.36687 
385 ,76.3304 ,1.75721 ,-0.15984 ,-1.56834 
386 ,76.5226 ,1.75914 ,-0.15984 ,-1.56834 
387 ,76.7150 ,1.76105 ,-0.18722 ,-1.83696 
388 ,76.9070 ,1.76299 ,-0.18722 ,-1.83696 
389 ,77.0990 ,1.76493 ,-0.18722 ,-1.83696 
390 ,77.3072 ,1.76704 ,-0.20775 ,-2.03843 
391 ,77.4987 ,1.76890 ,-0.20433 ,-2.00485 
392 ,77.6913 ,1.77084 ,-0.24197 ,-2.37422 
393 ,77.8836 ,1.77272 ,-0.23170 ,-2.27348 
394 ,78.0916 ,1.77485 ,-0.25566 ,-2.50853 
395 ,78.2835 ,1.77678 ,-0.25566 ,-2.50853 
396 ,78.4752 ,1.77868 ,-0.27961 ,-2.74358 
397 ,78.6675 ,1.78058 ,-0.28988 ,-2.84431 
398 ,78.8757 ,1.78268 ,-0.29330 ,-2.87789 
399 ,79.0518 ,1.78454 ,-0.28988 ,-2.84431 
400 ,79.2440 ,1.78637 ,-0.29673 ,-2.91147 
401 ,79.4679 ,1.78851 ,-0.32752 ,-3.21367 
402 ,79.6918 ,1.79081 ,-0.34121 ,-3.34799 
403 ,79.8844 ,1.79279 ,-0.33095 ,-3.24725 
404 ,80.0924 ,1.79483 ,-0.35832 ,-3.51588 
405 ,80.2843 ,1.79677 ,-0.34121 ,-3.34799 
406 ,80.4766 ,1.79871 ,-0.36859 ,-3.61661 
407 ,80.6843 ,1.80078 ,-0.35490 ,-3.48230 
408 ,80.8766 ,1.80263 ,-0.37544 ,-3.68377 
409 ,81.0683 ,1.80461 ,-0.39939 ,-3.91882 
410 ,81.2609 ,1.80657 ,-0.39597 ,-3.88524 
411 ,81.4527 ,1.80849 ,-0.41650 ,-4.08671 
412 ,81.6610 ,1.81053 ,-0.40623 ,-3.98597 
413 ,81.8687 ,1.81247 ,-0.44046 ,-4.32176 
414 ,82.0610 ,1.81456 ,-0.44046 ,-4.32176 
415 ,82.2532 ,1.81646 ,-0.46441 ,-4.55681 
416 ,82.4453 ,1.81833 ,-0.45757 ,-4.48965 
417 ,82.6534 ,1.82033 ,-0.47468 ,-4.65754 
418 ,82.8771 ,1.82260 ,-0.48494 ,-4.75828 
419 ,83.0529 ,1.82460 ,-0.49179 ,-4.82543 
420 ,83.2456 ,1.82636 ,-0.48494 ,-4.75828 
421 ,83.5177 ,1.82909 ,-0.52259 ,-5.12764 
422 ,83.7098 ,1.83105 ,-0.52601 ,-5.16121 
423 ,83.9019 ,1.83291 ,-0.50890 ,-4.99332 
424 ,84.0935 ,1.83484 ,-0.54654 ,-5.36268 
425 ,84.2862 ,1.83677 ,-0.53628 ,-5.26195 
426 ,84.4940 ,1.83874 ,-0.56365 ,-5.53058 
427 ,84.7023 ,1.84085 ,-0.55339 ,-5.42984 
428 ,84.8943 ,1.84286 ,-0.59788 ,-5.86636 
429 ,85.1024 ,1.84495 ,-0.58419 ,-5.73205 
430 ,85.2942 ,1.84685 ,-0.60130 ,-5.89994 
431 ,85.5023 ,1.84891 ,-0.60130 ,-5.89994 
432 ,85.6946 ,1.85085 ,-0.61841 ,-6.06783 
433 ,85.9027 ,1.85293 ,-0.61841 ,-6.06783 
434 ,86.0944 ,1.85481 ,-0.64236 ,-6.30288 
435 ,86.2865 ,1.85674 ,-0.62525 ,-6.13499 
436 ,86.4788 ,1.85872 ,-0.64579 ,-6.33646 
437 ,86.6872 ,1.86076 ,-0.65947 ,-6.47077 
438 ,86.9112 ,1.86303 ,-0.67659 ,-6.63866 
439 ,87.1191 ,1.86512 ,-0.66974 ,-6.57150 
440 ,87.3269 ,1.86713 ,-0.69712 ,-6.84013 
441 ,87.5194 ,1.86911 ,-0.69712 ,-6.84013 
442 ,87.7115 ,1.87102 ,-0.71765 ,-7.04160 
443 ,87.9193 ,1.87308 ,-0.71081 ,-6.97444 
444 ,88.1117 ,1.87501 ,-0.72107 ,-7.07518 
445 ,88.3198 ,1.87714 ,-0.72107 ,-7.07518 
446 ,88.4954 ,1.87898 ,-0.75187 ,-7.37738 
447 ,88.6878 ,1.88074 ,-0.75530 ,-7.41096 
448 ,88.8956 ,1.88287 ,-0.77583 ,-7.61243 
449 ,89.0877 ,1.88474 ,-0.77241 ,-7.57885 
450 ,89.2797 ,1.88670 ,-0.76898 ,-7.54527 
451 ,89.4717 ,1.88863 ,-0.80321 ,-7.88106 
452 ,89.6642 ,1.89054 ,-0.78267 ,-7.67959 
453 ,89.8725 ,1.89264 ,-0.80663 ,-7.91464 
454 ,90.0642 ,1.89457 ,-0.82374 ,-8.08253 
455 ,90.2566 ,1.89646 ,-0.82374 ,-8.08253 
456 ,90.4485 ,1.89835 ,-0.82716 ,-8.11611 
457 ,90.6242 ,1.90027 ,-0.83401 ,-8.18326 
458 ,90.8168 ,1.90208 ,-0.85454 ,-8.38473 
459 ,91.0405 ,1.90419 ,-0.85454 ,-8.38473 
460 ,91.2488 ,1.90628 ,-0.87849 ,-8.61978 
461 ,91.4569 ,1.90844 ,-0.88534 ,-8.68694 
462 ,91.6491 ,1.91036 ,-0.88534 ,-8.68694 
463 ,91.8409 ,1.91231 ,-0.87507 ,-8.58620 
