Data stamp = , 01-05-2022 18:11:19 197

Calibration Values: 
Slope = , 26.54 , g/V 
Offset Voltage at no contact = , -0.501760 , V 

No , Time , Stage Position ,   Mass , Force 
   ,  (s) ,      (mm)      ,   (g)  , (mN)  

1 ,0.0000 ,0.99945 ,5.33616 ,52.35841 
2 ,0.2143 ,0.99952 ,5.33958 ,52.39199 
3 ,0.7428 ,1.00162 ,5.34301 ,52.42557 
4 ,0.9510 ,1.00354 ,5.32932 ,52.29126 
5 ,1.2550 ,1.00609 ,5.33616 ,52.35841 
6 ,1.4470 ,1.00860 ,5.33958 ,52.39199 
7 ,1.6552 ,1.01071 ,5.31221 ,52.12337 
8 ,1.8792 ,1.01286 ,5.31221 ,52.12337 
9 ,2.0874 ,1.01503 ,5.30536 ,52.05621 
10 ,2.2795 ,1.01695 ,5.26430 ,51.65327 
11 ,2.4878 ,1.01908 ,5.25061 ,51.51896 
12 ,2.6952 ,1.02112 ,5.23007 ,51.31749 
13 ,2.8873 ,1.02304 ,5.21639 ,51.18317 
14 ,3.0795 ,1.02494 ,5.18901 ,50.91455 
15 ,3.3041 ,1.02717 ,5.16163 ,50.64592 
16 ,3.4962 ,1.02909 ,5.14794 ,50.51161 
17 ,3.6877 ,1.03103 ,5.14110 ,50.44445 
18 ,3.8642 ,1.03296 ,5.10345 ,50.07509 
19 ,4.0563 ,1.03469 ,5.11030 ,50.14225 
20 ,4.2644 ,1.03677 ,5.06923 ,49.73931 
21 ,4.4564 ,1.03871 ,5.04870 ,49.53784 
22 ,4.6486 ,1.04059 ,5.04528 ,49.50426 
23 ,4.8402 ,1.04256 ,5.01448 ,49.20205 
24 ,5.0326 ,1.04451 ,5.00079 ,49.06774 
25 ,5.2406 ,1.04658 ,4.96999 ,48.76554 
26 ,5.4488 ,1.04862 ,4.96657 ,48.73196 
27 ,5.6409 ,1.05053 ,4.92892 ,48.36260 
28 ,5.8329 ,1.05247 ,4.92208 ,48.29544 
29 ,6.0252 ,1.05441 ,4.90839 ,48.16113 
30 ,6.2331 ,1.05648 ,4.89470 ,48.02681 
31 ,6.4253 ,1.05840 ,4.85021 ,47.59030 
32 ,6.6333 ,1.06046 ,4.85706 ,47.65745 
33 ,6.8253 ,1.06235 ,4.82968 ,47.38883 
34 ,7.0332 ,1.06439 ,4.82968 ,47.38883 
35 ,7.2256 ,1.06641 ,4.78861 ,46.98589 
36 ,7.4177 ,1.06832 ,4.77150 ,46.81800 
37 ,7.6098 ,1.07024 ,4.76124 ,46.71726 
38 ,7.8178 ,1.07229 ,4.73044 ,46.41506 
39 ,8.0098 ,1.07422 ,4.73386 ,46.44863 
40 ,8.2020 ,1.07616 ,4.68937 ,46.01212 
41 ,8.4101 ,1.07827 ,4.68595 ,45.97854 
42 ,8.6017 ,1.08019 ,4.65173 ,45.64275 
43 ,8.8422 ,1.08242 ,4.63804 ,45.50844 
44 ,9.0501 ,1.08461 ,4.62777 ,45.40771 
45 ,9.2423 ,1.08656 ,4.60724 ,45.20624 
46 ,9.4345 ,1.08846 ,4.59697 ,45.10550 
47 ,9.6266 ,1.09041 ,4.55933 ,44.73614 
48 ,9.8187 ,1.09234 ,4.56617 ,44.80330 
49 ,10.0268 ,1.09441 ,4.53195 ,44.46751 
50 ,10.2344 ,1.09645 ,4.51826 ,44.33320 
51 ,10.4270 ,1.09840 ,4.49431 ,44.09815 
52 ,10.6345 ,1.10048 ,4.49431 ,44.09815 
53 ,10.8270 ,1.10245 ,4.45666 ,43.72879 
54 ,11.0192 ,1.10426 ,4.45324 ,43.69521 
55 ,11.2113 ,1.10623 ,4.42244 ,43.39301 
56 ,11.4189 ,1.10831 ,4.41560 ,43.32585 
57 ,11.6113 ,1.11021 ,4.38822 ,43.05723 
58 ,11.8036 ,1.11216 ,4.36427 ,42.82218 
59 ,11.9954 ,1.11407 ,4.38138 ,42.99007 
60 ,12.1876 ,1.11596 ,4.32662 ,42.45282 
61 ,12.3957 ,1.11808 ,4.34031 ,42.58713 
62 ,12.5876 ,1.12000 ,4.29240 ,42.11703 
63 ,12.7799 ,1.12194 ,4.28898 ,42.08345 
64 ,12.9720 ,1.12380 ,4.28213 ,42.01630 
65 ,13.1800 ,1.12592 ,4.25818 ,41.78125 
66 ,13.3720 ,1.12783 ,4.24107 ,41.61336 
67 ,13.5637 ,1.12975 ,4.21027 ,41.31115 
68 ,13.7723 ,1.13178 ,4.21369 ,41.34473 
69 ,13.9803 ,1.13392 ,4.18631 ,41.07611 
70 ,14.1724 ,1.13584 ,4.17947 ,41.00895 
71 ,14.3805 ,1.13791 ,4.15209 ,40.74032 
72 ,14.5725 ,1.13978 ,4.14525 ,40.67317 
73 ,14.7966 ,1.14204 ,4.12129 ,40.43812 
74 ,15.0049 ,1.14412 ,4.08707 ,40.10233 
75 ,15.2128 ,1.14627 ,4.08023 ,40.03518 
76 ,15.4211 ,1.14816 ,4.05969 ,39.83371 
77 ,15.6292 ,1.15039 ,4.03232 ,39.56508 
78 ,15.8212 ,1.15231 ,4.03574 ,39.59866 
79 ,16.0133 ,1.15424 ,4.00836 ,39.33003 
80 ,16.2054 ,1.15616 ,3.98783 ,39.12856 
81 ,16.3973 ,1.15809 ,3.99809 ,39.22930 
82 ,16.6055 ,1.16021 ,3.96045 ,38.85994 
83 ,16.7974 ,1.16207 ,3.95018 ,38.75920 
84 ,16.9898 ,1.16405 ,3.91596 ,38.42342 
85 ,17.1980 ,1.16609 ,3.90912 ,38.35626 
86 ,17.4059 ,1.16813 ,3.88858 ,38.15479 
87 ,17.6135 ,1.17027 ,3.87490 ,38.02048 
88 ,17.8059 ,1.17212 ,3.85094 ,37.78543 
89 ,17.9980 ,1.17408 ,3.84067 ,37.68470 
90 ,18.1901 ,1.17601 ,3.82014 ,37.48323 
91 ,18.3981 ,1.17795 ,3.81330 ,37.41607 
92 ,18.6062 ,1.18010 ,3.78250 ,37.11387 
93 ,18.7984 ,1.18211 ,3.77908 ,37.08029 
94 ,19.0062 ,1.18409 ,3.74485 ,36.74450 
95 ,19.1984 ,1.18607 ,3.73801 ,36.67735 
96 ,19.3905 ,1.18800 ,3.71063 ,36.40872 
97 ,19.5827 ,1.18992 ,3.71063 ,36.40872 
98 ,19.8226 ,1.19214 ,3.66957 ,36.00578 
99 ,20.0309 ,1.19442 ,3.65588 ,35.87147 
100 ,20.2390 ,1.19648 ,3.65588 ,35.87147 
101 ,20.4470 ,1.19855 ,3.62508 ,35.56926 
102 ,20.6387 ,1.20052 ,3.62850 ,35.60284 
103 ,20.8311 ,1.20241 ,3.59428 ,35.26706 
104 ,21.0233 ,1.20431 ,3.58059 ,35.13275 
105 ,21.2309 ,1.20640 ,3.54979 ,34.83054 
106 ,21.4234 ,1.20836 ,3.55663 ,34.89770 
107 ,21.6316 ,1.21038 ,3.51215 ,34.46118 
108 ,21.8235 ,1.21235 ,3.52241 ,34.56192 
109 ,22.0156 ,1.21426 ,3.49504 ,34.29329 
110 ,22.2076 ,1.21616 ,3.46766 ,34.02466 
111 ,22.3838 ,1.21804 ,3.48135 ,34.15898 
112 ,22.5759 ,1.21983 ,3.44370 ,33.78961 
113 ,22.7680 ,1.22178 ,3.43344 ,33.68888 
114 ,22.9758 ,1.22381 ,3.41633 ,33.52099 
115 ,23.1681 ,1.22570 ,3.40264 ,33.38667 
116 ,23.3602 ,1.22770 ,3.39921 ,33.35310 
117 ,23.5681 ,1.22968 ,3.36499 ,33.01731 
118 ,23.8083 ,1.23214 ,3.34788 ,32.84942 
119 ,24.0164 ,1.23423 ,3.32393 ,32.61437 
120 ,24.2245 ,1.23628 ,3.32051 ,32.58080 
121 ,24.4325 ,1.23840 ,3.27602 ,32.14428 
122 ,24.6244 ,1.24035 ,3.28971 ,32.27859 
123 ,24.8486 ,1.24245 ,3.24864 ,31.87565 
124 ,25.0568 ,1.24465 ,3.24522 ,31.84207 
125 ,25.2490 ,1.24656 ,3.22468 ,31.64060 
126 ,25.4568 ,1.24854 ,3.21784 ,31.57345 
127 ,25.6486 ,1.25055 ,3.19731 ,31.37198 
128 ,25.8412 ,1.25249 ,3.18362 ,31.23766 
129 ,26.0333 ,1.25439 ,3.14940 ,30.90188 
130 ,26.2254 ,1.25628 ,3.15624 ,30.96904 
131 ,26.4329 ,1.25837 ,3.11860 ,30.59968 
132 ,26.6253 ,1.26030 ,3.12886 ,30.70041 
133 ,26.8496 ,1.26243 ,3.09122 ,30.33105 
134 ,27.0577 ,1.26466 ,3.08438 ,30.26389 
135 ,27.2497 ,1.26653 ,3.07411 ,30.16316 
136 ,27.4419 ,1.26850 ,3.05358 ,29.96169 
137 ,27.6499 ,1.27043 ,3.02962 ,29.72664 
138 ,27.8419 ,1.27246 ,3.02962 ,29.72664 
139 ,28.0340 ,1.27438 ,2.98855 ,29.32370 
140 ,28.2259 ,1.27631 ,2.99540 ,29.39086 
141 ,28.4343 ,1.27839 ,2.96460 ,29.08865 
142 ,28.6263 ,1.28033 ,2.97144 ,29.15581 
143 ,28.8342 ,1.28240 ,2.92353 ,28.68571 
144 ,29.0425 ,1.28447 ,2.93038 ,28.75287 
145 ,29.2507 ,1.28660 ,2.91669 ,28.61856 
146 ,29.4426 ,1.28854 ,2.89958 ,28.45066 
147 ,29.6664 ,1.29065 ,2.88247 ,28.28277 
148 ,29.8586 ,1.29263 ,2.85167 ,27.98057 
149 ,30.0668 ,1.29469 ,2.85509 ,28.01415 
150 ,30.2588 ,1.29669 ,2.82771 ,27.74552 
151 ,30.4511 ,1.29862 ,2.81060 ,27.57763 
152 ,30.6591 ,1.30062 ,2.79349 ,27.40974 
153 ,30.8513 ,1.30260 ,2.79691 ,27.44332 
154 ,31.0588 ,1.30461 ,2.75585 ,27.04038 
155 ,31.2513 ,1.30660 ,2.76269 ,27.10753 
156 ,31.4594 ,1.30856 ,2.73531 ,26.83891 
157 ,31.6671 ,1.31069 ,2.73874 ,26.87248 
158 ,31.8596 ,1.31263 ,2.70452 ,26.53670 
159 ,32.0674 ,1.31466 ,2.69425 ,26.43597 
160 ,32.2597 ,1.31665 ,2.67714 ,26.26807 
161 ,32.4677 ,1.31875 ,2.67029 ,26.20092 
162 ,32.6754 ,1.32074 ,2.64292 ,25.93229 
163 ,32.8679 ,1.32272 ,2.63265 ,25.83156 
164 ,33.0600 ,1.32461 ,2.60869 ,25.59651 
165 ,33.2517 ,1.32659 ,2.59843 ,25.49577 
166 ,33.4760 ,1.32881 ,2.57447 ,25.26073 
167 ,33.6843 ,1.33091 ,2.57789 ,25.29430 
168 ,33.8762 ,1.33285 ,2.54367 ,24.95852 
169 ,34.0683 ,1.33476 ,2.55052 ,25.02568 
170 ,34.2764 ,1.33683 ,2.51287 ,24.65632 
171 ,34.4685 ,1.33877 ,2.50603 ,24.58916 
172 ,34.6766 ,1.34075 ,2.48550 ,24.38769 
173 ,34.8687 ,1.34277 ,2.47523 ,24.28696 
174 ,35.0448 ,1.34461 ,2.45470 ,24.08549 
175 ,35.2527 ,1.34646 ,2.44101 ,23.95117 
176 ,35.4606 ,1.34860 ,2.42048 ,23.74970 
177 ,35.6529 ,1.35056 ,2.41363 ,23.68255 
178 ,35.8453 ,1.35247 ,2.39994 ,23.54823 
179 ,36.0531 ,1.35457 ,2.38968 ,23.44750 
180 ,36.2454 ,1.35647 ,2.38283 ,23.38034 
181 ,36.4535 ,1.35859 ,2.36914 ,23.24603 
182 ,36.6454 ,1.36050 ,2.34177 ,22.97740 
183 ,36.8536 ,1.36255 ,2.32808 ,22.84309 
184 ,37.0617 ,1.36462 ,2.30412 ,22.60804 
185 ,37.2695 ,1.36672 ,2.30412 ,22.60804 
186 ,37.4617 ,1.36866 ,2.27332 ,22.30584 
187 ,37.6537 ,1.37053 ,2.26648 ,22.23868 
188 ,37.8459 ,1.37245 ,2.25963 ,22.17152 
189 ,38.0378 ,1.37437 ,2.22541 ,21.83574 
190 ,38.2302 ,1.37634 ,2.22199 ,21.80216 
191 ,38.4220 ,1.37825 ,2.19803 ,21.56711 
192 ,38.6144 ,1.38015 ,2.19803 ,21.56711 
193 ,38.8704 ,1.38261 ,2.17408 ,21.33206 
194 ,39.0783 ,1.38482 ,2.15012 ,21.09702 
195 ,39.2867 ,1.38685 ,2.15355 ,21.13059 
196 ,39.4786 ,1.38877 ,2.13301 ,20.92912 
197 ,39.6706 ,1.39071 ,2.12617 ,20.86197 
198 ,39.8627 ,1.39265 ,2.09537 ,20.55976 
199 ,40.0549 ,1.39457 ,2.10221 ,20.62692 
200 ,40.2628 ,1.39663 ,2.07141 ,20.32472 
201 ,40.4549 ,1.39855 ,2.06457 ,20.25756 
202 ,40.6468 ,1.40048 ,2.04404 ,20.05609 
203 ,40.8388 ,1.40240 ,2.02693 ,19.88820 
204 ,41.0309 ,1.40433 ,2.02693 ,19.88820 
205 ,41.2229 ,1.40624 ,1.99270 ,19.55241 
206 ,41.4312 ,1.40820 ,2.00639 ,19.68673 
207 ,41.6391 ,1.41042 ,1.96190 ,19.25021 
208 ,41.8314 ,1.41233 ,1.97217 ,19.35094 
209 ,42.0396 ,1.41440 ,1.93111 ,18.94801 
210 ,42.2318 ,1.41632 ,1.94137 ,19.04874 
211 ,42.4559 ,1.41835 ,1.92084 ,18.84727 
212 ,42.6638 ,1.42067 ,1.89004 ,18.54507 
213 ,42.8560 ,1.42256 ,1.88662 ,18.51149 
214 ,43.0477 ,1.42441 ,1.88319 ,18.47791 
215 ,43.2563 ,1.42654 ,1.85582 ,18.20928 
216 ,43.4482 ,1.42851 ,1.83528 ,18.00781 
217 ,43.6403 ,1.43043 ,1.81817 ,17.83992 
218 ,43.8163 ,1.43228 ,1.82502 ,17.90708 
219 ,44.0084 ,1.43405 ,1.82160 ,17.87350 
220 ,44.2005 ,1.43598 ,1.78395 ,17.50414 
221 ,44.4085 ,1.43797 ,1.77711 ,17.43698 
222 ,44.6004 ,1.44004 ,1.76342 ,17.30267 
223 ,44.7928 ,1.44193 ,1.76684 ,17.33625 
224 ,44.9847 ,1.44385 ,1.71893 ,16.86615 
225 ,45.1771 ,1.44579 ,1.72578 ,16.93331 
226 ,45.3689 ,1.44770 ,1.70524 ,16.73184 
227 ,45.5771 ,1.44974 ,1.69498 ,16.63110 
228 ,45.7693 ,1.45165 ,1.67444 ,16.42963 
229 ,45.9772 ,1.45372 ,1.66760 ,16.36248 
230 ,46.1694 ,1.45563 ,1.64364 ,16.12743 
231 ,46.3772 ,1.45772 ,1.64022 ,16.09385 
232 ,46.5696 ,1.45973 ,1.62311 ,15.92596 
233 ,46.7775 ,1.46171 ,1.61969 ,15.89238 
234 ,46.9696 ,1.46366 ,1.59231 ,15.62375 
235 ,47.1618 ,1.46560 ,1.57178 ,15.42228 
236 ,47.3543 ,1.46751 ,1.58204 ,15.52302 
237 ,47.5779 ,1.46968 ,1.56493 ,15.35513 
238 ,47.8022 ,1.47194 ,1.51702 ,14.88503 
239 ,48.0100 ,1.47411 ,1.51360 ,14.85145 
240 ,48.2022 ,1.47602 ,1.49991 ,14.71714 
241 ,48.3941 ,1.47790 ,1.50676 ,14.78430 
242 ,48.5862 ,1.47978 ,1.46569 ,14.38136 
243 ,48.7783 ,1.48172 ,1.47938 ,14.51567 
244 ,48.9706 ,1.48369 ,1.44516 ,14.17989 
245 ,49.1622 ,1.48564 ,1.45200 ,14.24704 
246 ,49.3548 ,1.48749 ,1.43147 ,14.04557 
247 ,49.5465 ,1.48945 ,1.40751 ,13.81053 
248 ,49.7388 ,1.49137 ,1.40409 ,13.77695 
249 ,49.9466 ,1.49344 ,1.37671 ,13.50832 
250 ,50.1391 ,1.49531 ,1.38356 ,13.57548 
251 ,50.3312 ,1.49735 ,1.36645 ,13.40759 
252 ,50.5392 ,1.49937 ,1.36303 ,13.37401 
253 ,50.7310 ,1.50127 ,1.33907 ,13.13896 
254 ,50.9390 ,1.50331 ,1.32880 ,13.03822 
255 ,51.1314 ,1.50529 ,1.30827 ,12.83675 
256 ,51.3236 ,1.50719 ,1.30143 ,12.76960 
257 ,51.5317 ,1.50928 ,1.28089 ,12.56813 
258 ,51.7394 ,1.51137 ,1.28089 ,12.56813 
259 ,51.9319 ,1.51334 ,1.26036 ,12.36666 
260 ,52.1399 ,1.51532 ,1.25352 ,12.29950 
261 ,52.3160 ,1.51729 ,1.23641 ,12.13161 
262 ,52.5081 ,1.51904 ,1.20903 ,11.86298 
263 ,52.7161 ,1.52109 ,1.21587 ,11.93014 
264 ,52.8919 ,1.52301 ,1.18850 ,11.66151 
265 ,53.0841 ,1.52478 ,1.18507 ,11.62794 
266 ,53.2763 ,1.52675 ,1.17138 ,11.49362 
267 ,53.4683 ,1.52863 ,1.13716 ,11.15784 
268 ,53.6763 ,1.53070 ,1.14401 ,11.22500 
269 ,53.8685 ,1.53262 ,1.12690 ,11.05710 
270 ,54.0923 ,1.53475 ,1.13716 ,11.15784 
271 ,54.2849 ,1.53680 ,1.08925 ,10.68774 
272 ,54.4767 ,1.53874 ,1.09952 ,10.78848 
273 ,54.6529 ,1.54065 ,1.08241 ,10.62059 
274 ,54.8451 ,1.54241 ,1.06530 ,10.45270 
275 ,55.0367 ,1.54431 ,1.05845 ,10.38554 
276 ,55.2452 ,1.54636 ,1.03792 ,10.18407 
277 ,55.4533 ,1.54849 ,1.02423 ,10.04976 
278 ,55.6454 ,1.55043 ,1.01396 ,9.94902 
279 ,55.8535 ,1.55238 ,1.01396 ,9.94902 
280 ,56.0611 ,1.55457 ,0.99343 ,9.74755 
281 ,56.2854 ,1.55673 ,0.96948 ,9.51250 
282 ,56.4775 ,1.55877 ,0.96263 ,9.44535 
283 ,56.6696 ,1.56069 ,0.94552 ,9.27745 
284 ,56.9099 ,1.56294 ,0.92841 ,9.10956 
285 ,57.1019 ,1.56512 ,0.91130 ,8.94167 
286 ,57.2780 ,1.56681 ,0.90788 ,8.90809 
287 ,57.4698 ,1.56864 ,0.89419 ,8.77378 
288 ,57.6622 ,1.57053 ,0.89077 ,8.74020 
289 ,57.8544 ,1.57251 ,0.87023 ,8.53873 
290 ,58.0624 ,1.57447 ,0.86339 ,8.47158 
291 ,58.2701 ,1.57665 ,0.84286 ,8.27011 
292 ,58.4625 ,1.57856 ,0.85997 ,8.43800 
293 ,58.6705 ,1.58065 ,0.81548 ,8.00148 
294 ,58.8787 ,1.58263 ,0.82575 ,8.10221 
295 ,59.0865 ,1.58482 ,0.80179 ,7.86717 
296 ,59.2789 ,1.58668 ,0.79837 ,7.83359 
297 ,59.4709 ,1.58863 ,0.76757 ,7.53138 
298 ,59.6631 ,1.59057 ,0.77441 ,7.59854 
299 ,59.8872 ,1.59282 ,0.73677 ,7.22918 
300 ,60.0953 ,1.59486 ,0.72308 ,7.09486 
301 ,60.3033 ,1.59699 ,0.74019 ,7.26276 
302 ,60.5109 ,1.59901 ,0.70255 ,6.89340 
303 ,60.7034 ,1.60099 ,0.69913 ,6.85982 
304 ,60.9116 ,1.60306 ,0.67517 ,6.62477 
305 ,61.1034 ,1.60500 ,0.68544 ,6.72550 
306 ,61.3118 ,1.60707 ,0.65464 ,6.42330 
307 ,61.5195 ,1.60914 ,0.65464 ,6.42330 
308 ,61.7119 ,1.61105 ,0.62726 ,6.15467 
309 ,61.9199 ,1.61312 ,0.63753 ,6.25541 
310 ,62.1121 ,1.61504 ,0.60673 ,5.95320 
311 ,62.3202 ,1.61716 ,0.60673 ,5.95320 
312 ,62.5123 ,1.61908 ,0.57251 ,5.61742 
313 ,62.7203 ,1.62109 ,0.58619 ,5.75173 
314 ,62.9123 ,1.62302 ,0.56566 ,5.55026 
315 ,63.1041 ,1.62494 ,0.55197 ,5.41595 
316 ,63.3122 ,1.62698 ,0.53144 ,5.21448 
317 ,63.5523 ,1.62921 ,0.53828 ,5.28164 
318 ,63.7764 ,1.63166 ,0.51433 ,5.04659 
319 ,63.9689 ,1.63367 ,0.50064 ,4.91228 
320 ,64.1769 ,1.63564 ,0.49037 ,4.81154 
321 ,64.3691 ,1.63764 ,0.47668 ,4.67723 
322 ,64.5771 ,1.63965 ,0.46984 ,4.61007 
323 ,64.7692 ,1.64166 ,0.44588 ,4.37502 
324 ,64.9771 ,1.64372 ,0.43904 ,4.30787 
325 ,65.1849 ,1.64578 ,0.44246 ,4.34144 
326 ,65.3773 ,1.64766 ,0.42877 ,4.20713 
327 ,65.5695 ,1.64962 ,0.40824 ,4.00566 
328 ,65.7615 ,1.65154 ,0.41851 ,4.10640 
329 ,65.9372 ,1.65344 ,0.38429 ,3.77061 
330 ,66.1137 ,1.65517 ,0.37744 ,3.70346 
331 ,66.3059 ,1.65696 ,0.37744 ,3.70346 
332 ,66.5136 ,1.65902 ,0.35349 ,3.46841 
333 ,66.7061 ,1.66094 ,0.35691 ,3.50199 
334 ,66.9140 ,1.66307 ,0.32269 ,3.16620 
335 ,67.1222 ,1.66510 ,0.33638 ,3.30052 
336 ,67.3304 ,1.66721 ,0.31584 ,3.09905 
337 ,67.5380 ,1.66925 ,0.30900 ,3.03189 
338 ,67.7303 ,1.67119 ,0.27820 ,2.72969 
339 ,67.9384 ,1.67325 ,0.28162 ,2.76326 
340 ,68.1301 ,1.67520 ,0.26451 ,2.59537 
341 ,68.3228 ,1.67712 ,0.26793 ,2.62895 
342 ,68.5308 ,1.67925 ,0.24055 ,2.36032 
343 ,68.7226 ,1.68113 ,0.24398 ,2.39390 
344 ,68.9150 ,1.68305 ,0.21660 ,2.12528 
345 ,69.1228 ,1.68514 ,0.22002 ,2.15885 
346 ,69.3150 ,1.68703 ,0.19949 ,1.95738 
347 ,69.5070 ,1.68894 ,0.19949 ,1.95738 
348 ,69.6993 ,1.69091 ,0.17553 ,1.72234 
349 ,69.9071 ,1.69297 ,0.16869 ,1.65518 
350 ,70.0996 ,1.69490 ,0.16527 ,1.62160 
351 ,70.3070 ,1.69694 ,0.15158 ,1.48729 
352 ,70.4997 ,1.69893 ,0.14131 ,1.38655 
353 ,70.7072 ,1.70094 ,0.14131 ,1.38655 
354 ,70.9000 ,1.70291 ,0.12420 ,1.21866 
355 ,71.0919 ,1.70480 ,0.10367 ,1.01719 
356 ,71.2840 ,1.70675 ,0.11393 ,1.11793 
357 ,71.4919 ,1.70875 ,0.08998 ,0.88288 
358 ,71.7157 ,1.71101 ,0.07287 ,0.71499 
359 ,71.9240 ,1.71299 ,0.07629 ,0.74857 
360 ,72.1323 ,1.71522 ,0.04891 ,0.47994 
361 ,72.3403 ,1.71728 ,0.04891 ,0.47994 
362 ,72.5325 ,1.71923 ,0.02838 ,0.27847 
363 ,72.7405 ,1.72133 ,0.03522 ,0.34563 
364 ,72.9486 ,1.72331 ,0.01127 ,0.11058 
365 ,73.1407 ,1.72529 ,-0.01269 ,-0.12447 
366 ,73.3327 ,1.72723 ,-0.02295 ,-0.22520 
367 ,73.5244 ,1.72913 ,-0.01953 ,-0.19163 
368 ,73.7490 ,1.73124 ,-0.03322 ,-0.32594 
369 ,73.9570 ,1.73349 ,-0.05033 ,-0.49383 
370 ,74.1492 ,1.73534 ,-0.03322 ,-0.32594 
371 ,74.3412 ,1.73728 ,-0.06744 ,-0.66172 
372 ,74.5493 ,1.73932 ,-0.06402 ,-0.62814 
373 ,74.7572 ,1.74136 ,-0.09140 ,-0.89677 
374 ,74.9974 ,1.74383 ,-0.10851 ,-1.06466 
375 ,75.2055 ,1.74589 ,-0.09824 ,-0.96393 
376 ,75.3976 ,1.74784 ,-0.12219 ,-1.19898 
377 ,75.5898 ,1.74974 ,-0.11535 ,-1.13182 
378 ,75.7816 ,1.75169 ,-0.14615 ,-1.43402 
379 ,75.9739 ,1.75359 ,-0.14273 ,-1.40045 
380 ,76.1818 ,1.75558 ,-0.13588 ,-1.33329 
381 ,76.3900 ,1.75778 ,-0.16326 ,-1.60191 
382 ,76.5820 ,1.75965 ,-0.18722 ,-1.83696 
383 ,76.7740 ,1.76162 ,-0.19406 ,-1.90412 
384 ,76.9663 ,1.76356 ,-0.18722 ,-1.83696 
385 ,77.1741 ,1.76564 ,-0.19406 ,-1.90412 
386 ,77.3661 ,1.76753 ,-0.22486 ,-2.20632 
387 ,77.5585 ,1.76941 ,-0.23513 ,-2.30706 
388 ,77.7505 ,1.77138 ,-0.23170 ,-2.27348 
389 ,77.9425 ,1.77329 ,-0.25566 ,-2.50853 
390 ,78.1507 ,1.77533 ,-0.25224 ,-2.47495 
391 ,78.3748 ,1.77758 ,-0.26250 ,-2.57569 
392 ,78.5666 ,1.77952 ,-0.25908 ,-2.54211 
393 ,78.7590 ,1.78145 ,-0.29673 ,-2.91147 
394 ,78.9666 ,1.78349 ,-0.28304 ,-2.77716 
395 ,79.1589 ,1.78545 ,-0.31726 ,-3.11294 
396 ,79.3672 ,1.78755 ,-0.30015 ,-2.94505 
397 ,79.5753 ,1.78960 ,-0.33095 ,-3.24725 
398 ,79.7674 ,1.79151 ,-0.32410 ,-3.18010 
399 ,79.9595 ,1.79346 ,-0.35490 ,-3.48230 
400 ,80.1514 ,1.79537 ,-0.33095 ,-3.24725 
401 ,80.3755 ,1.79762 ,-0.36175 ,-3.54946 
402 ,80.5674 ,1.79956 ,-0.34806 ,-3.41514 
403 ,80.7756 ,1.80161 ,-0.38570 ,-3.78450 
404 ,80.9517 ,1.80348 ,-0.37886 ,-3.71735 
405 ,81.1434 ,1.80526 ,-0.39939 ,-3.91882 
406 ,81.3360 ,1.80724 ,-0.40966 ,-4.01955 
407 ,81.5440 ,1.80931 ,-0.42677 ,-4.18744 
408 ,81.7522 ,1.81141 ,-0.41308 ,-4.05313 
409 ,81.9441 ,1.81332 ,-0.44730 ,-4.38891 
410 ,82.1362 ,1.81517 ,-0.45414 ,-4.45607 
411 ,82.3279 ,1.81708 ,-0.45072 ,-4.42249 
412 ,82.5205 ,1.81906 ,-0.48152 ,-4.72470 
413 ,82.7123 ,1.82100 ,-0.47126 ,-4.62396 
414 ,82.9206 ,1.82304 ,-0.48837 ,-4.79185 
415 ,83.1125 ,1.82496 ,-0.48837 ,-4.79185 
416 ,83.3049 ,1.82690 ,-0.50206 ,-4.92617 
417 ,83.5127 ,1.82897 ,-0.50548 ,-4.95975 
418 ,83.7367 ,1.83113 ,-0.54312 ,-5.32911 
419 ,83.9290 ,1.83308 ,-0.52601 ,-5.16121 
420 ,84.1369 ,1.83518 ,-0.54997 ,-5.39626 
421 ,84.3293 ,1.83719 ,-0.53628 ,-5.26195 
422 ,84.5212 ,1.83903 ,-0.57392 ,-5.63131 
423 ,84.7133 ,1.84094 ,-0.56023 ,-5.49700 
424 ,84.9055 ,1.84290 ,-0.58077 ,-5.69847 
425 ,85.1295 ,1.84505 ,-0.58761 ,-5.76562 
426 ,85.3214 ,1.84707 ,-0.59788 ,-5.86636 
427 ,85.5137 ,1.84894 ,-0.60130 ,-5.89994 
428 ,85.7215 ,1.85102 ,-0.62183 ,-6.10141 
429 ,85.9138 ,1.85299 ,-0.62183 ,-6.10141 
430 ,86.1060 ,1.85487 ,-0.63552 ,-6.23572 
431 ,86.2978 ,1.85680 ,-0.64579 ,-6.33646 
432 ,86.4901 ,1.85873 ,-0.64921 ,-6.37003 
433 ,86.6817 ,1.86077 ,-0.66632 ,-6.53793 
434 ,86.8742 ,1.86258 ,-0.67316 ,-6.60508 
435 ,87.0661 ,1.86449 ,-0.68001 ,-6.67224 
436 ,87.2742 ,1.86658 ,-0.67659 ,-6.63866 
437 ,87.4665 ,1.86848 ,-0.70054 ,-6.87371 
438 ,87.6587 ,1.87041 ,-0.71081 ,-6.97444 
439 ,87.8666 ,1.87251 ,-0.72107 ,-7.07518 
440 ,88.0747 ,1.87453 ,-0.72107 ,-7.07518 
441 ,88.2665 ,1.87649 ,-0.74845 ,-7.34380 
442 ,88.4749 ,1.87859 ,-0.74161 ,-7.27665 
443 ,88.6668 ,1.88051 ,-0.76556 ,-7.51170 
444 ,88.8426 ,1.88239 ,-0.75530 ,-7.41096 
445 ,89.0671 ,1.88431 ,-0.75530 ,-7.41096 
446 ,89.2753 ,1.88657 ,-0.77583 ,-7.61243 
447 ,89.4671 ,1.88850 ,-0.78952 ,-7.74674 
448 ,89.6594 ,1.89039 ,-0.80321 ,-7.88106 
449 ,89.8671 ,1.89249 ,-0.80321 ,-7.88106 
450 ,90.0435 ,1.89439 ,-0.81347 ,-7.98179 
451 ,90.2517 ,1.89632 ,-0.82716 ,-8.11611 
452 ,90.4594 ,1.89842 ,-0.83401 ,-8.18326 
453 ,90.6519 ,1.90036 ,-0.83401 ,-8.18326 
454 ,90.8598 ,1.90240 ,-0.85112 ,-8.35115 
455 ,91.0515 ,1.90433 ,-0.86481 ,-8.48547 
456 ,91.2441 ,1.90624 ,-0.86481 ,-8.48547 
457 ,91.4521 ,1.90833 ,-0.87507 ,-8.58620 
458 ,91.6600 ,1.91039 ,-0.88192 ,-8.65336 
459 ,91.8523 ,1.91230 ,-0.89218 ,-8.75409 
460 ,92.0443 ,1.91428 ,-0.89903 ,-8.82125 
461 ,92.2525 ,1.91631 ,-0.89560 ,-8.78767 
462 ,92.4603 ,1.91838 ,-0.92640 ,-9.08988 
463 ,92.6526 ,1.92036 ,-0.92640 ,-9.08988 
