Data stamp = , 02-05-2022 13:47:54 551

Calibration Values: 
Slope = , 26.54 , g/V 
Offset Voltage at no contact = , -0.501760 , V 

No , Time , Stage Position ,   Mass , Force 
   ,  (s) ,      (mm)      ,   (g)  , (mN)  

1 ,0.0000 ,1.04953 ,4.98710 ,48.93343 
2 ,0.2088 ,1.04962 ,5.00421 ,49.10132 
3 ,0.7847 ,1.05190 ,4.99394 ,49.00058 
4 ,0.9932 ,1.05409 ,4.98710 ,48.93343 
5 ,1.2173 ,1.05636 ,5.00763 ,49.13490 
6 ,1.4093 ,1.05833 ,5.00079 ,49.06774 
7 ,1.6011 ,1.06027 ,4.96315 ,48.69838 
8 ,1.7937 ,1.06221 ,4.94261 ,48.49691 
9 ,2.0016 ,1.06425 ,4.93235 ,48.39618 
10 ,2.2256 ,1.06654 ,4.92892 ,48.36260 
11 ,2.4177 ,1.06848 ,4.89470 ,48.02681 
12 ,2.6098 ,1.07037 ,4.88444 ,47.92608 
13 ,2.8019 ,1.07231 ,4.85706 ,47.65745 
14 ,3.0100 ,1.07434 ,4.85021 ,47.59030 
15 ,3.2180 ,1.07641 ,4.82284 ,47.32167 
16 ,3.4422 ,1.07853 ,4.81941 ,47.28809 
17 ,3.6342 ,1.08060 ,4.78861 ,46.98589 
18 ,3.8259 ,1.08251 ,4.76808 ,46.78442 
19 ,4.0179 ,1.08449 ,4.74413 ,46.54937 
20 ,4.2262 ,1.08655 ,4.74070 ,46.51579 
21 ,4.4664 ,1.08891 ,4.70306 ,46.14643 
22 ,4.6584 ,1.09083 ,4.69279 ,46.04569 
23 ,4.8505 ,1.09279 ,4.67568 ,45.87780 
24 ,5.0425 ,1.09471 ,4.65857 ,45.70991 
25 ,5.2508 ,1.09678 ,4.63119 ,45.44128 
26 ,5.4746 ,1.09906 ,4.62093 ,45.34055 
27 ,5.6666 ,1.10094 ,4.60724 ,45.20624 
28 ,5.8428 ,1.10283 ,4.57986 ,44.93761 
29 ,6.0351 ,1.10465 ,4.56960 ,44.83688 
30 ,6.2428 ,1.10672 ,4.54564 ,44.60183 
31 ,6.4514 ,1.10878 ,4.53880 ,44.53467 
32 ,6.6592 ,1.11089 ,4.49773 ,44.13173 
33 ,6.8515 ,1.11280 ,4.49089 ,44.06457 
34 ,7.0435 ,1.11474 ,4.46351 ,43.79595 
35 ,7.2357 ,1.11668 ,4.44982 ,43.66163 
36 ,7.4277 ,1.11853 ,4.44982 ,43.66163 
37 ,7.6520 ,1.12082 ,4.42586 ,43.42659 
38 ,7.8759 ,1.12299 ,4.38480 ,43.02365 
39 ,8.0679 ,1.12488 ,4.38480 ,43.02365 
40 ,8.2600 ,1.12682 ,4.36084 ,42.78860 
41 ,8.4358 ,1.12873 ,4.35400 ,42.72144 
42 ,8.6443 ,1.13066 ,4.32320 ,42.41924 
43 ,8.8525 ,1.13270 ,4.30267 ,42.21777 
44 ,9.0445 ,1.13474 ,4.29240 ,42.11703 
45 ,9.2522 ,1.13675 ,4.27529 ,41.94914 
46 ,9.4446 ,1.13870 ,4.26502 ,41.84841 
47 ,9.6526 ,1.14080 ,4.26160 ,41.81483 
48 ,9.8608 ,1.14274 ,4.23080 ,41.51262 
49 ,10.0688 ,1.14497 ,4.22396 ,41.44547 
50 ,10.2606 ,1.14688 ,4.18974 ,41.10968 
51 ,10.4529 ,1.14879 ,4.17605 ,40.97537 
52 ,10.6767 ,1.15102 ,4.14183 ,40.63959 
53 ,10.8691 ,1.15296 ,4.14525 ,40.67317 
54 ,11.0772 ,1.15503 ,4.12129 ,40.43812 
55 ,11.2854 ,1.15714 ,4.10076 ,40.23665 
56 ,11.4773 ,1.15900 ,4.07680 ,40.00160 
57 ,11.6695 ,1.16105 ,4.07338 ,39.96802 
58 ,11.8775 ,1.16297 ,4.03916 ,39.63224 
59 ,12.0858 ,1.16511 ,4.03232 ,39.56508 
60 ,12.2776 ,1.16702 ,4.01520 ,39.39719 
61 ,12.4696 ,1.16895 ,4.00836 ,39.33003 
62 ,12.6619 ,1.17085 ,3.99809 ,39.22930 
63 ,12.8536 ,1.17276 ,3.96387 ,38.89352 
64 ,13.0620 ,1.17483 ,3.95361 ,38.79278 
65 ,13.2701 ,1.17695 ,3.94334 ,38.69205 
66 ,13.4622 ,1.17884 ,3.91254 ,38.38984 
67 ,13.6543 ,1.18078 ,3.89543 ,38.22195 
68 ,13.8465 ,1.18268 ,3.89201 ,38.18837 
69 ,14.0221 ,1.18458 ,3.85436 ,37.81901 
70 ,14.2147 ,1.18638 ,3.84410 ,37.71828 
71 ,14.4227 ,1.18842 ,3.83041 ,37.58396 
72 ,14.6149 ,1.19036 ,3.82014 ,37.48323 
73 ,14.8229 ,1.19250 ,3.80987 ,37.38249 
74 ,15.0151 ,1.19439 ,3.79276 ,37.21460 
75 ,15.2390 ,1.19664 ,3.75854 ,36.87882 
76 ,15.4472 ,1.19866 ,3.76539 ,36.94597 
77 ,15.6391 ,1.20062 ,3.72432 ,36.54303 
78 ,15.8794 ,1.20288 ,3.72774 ,36.57661 
79 ,16.0870 ,1.20511 ,3.71063 ,36.40872 
80 ,16.2795 ,1.20702 ,3.67983 ,36.10652 
81 ,16.4714 ,1.20897 ,3.66957 ,36.00578 
82 ,16.6635 ,1.21088 ,3.65930 ,35.90505 
83 ,16.8555 ,1.21276 ,3.63192 ,35.63642 
84 ,17.0638 ,1.21486 ,3.62850 ,35.60284 
85 ,17.2715 ,1.21690 ,3.60112 ,35.33422 
86 ,17.4640 ,1.21882 ,3.58059 ,35.13275 
87 ,17.6881 ,1.22111 ,3.56006 ,34.93128 
88 ,17.8804 ,1.22302 ,3.52584 ,34.59549 
89 ,18.0880 ,1.22512 ,3.53268 ,34.66265 
90 ,18.2963 ,1.22715 ,3.50188 ,34.36045 
91 ,18.4882 ,1.22907 ,3.49161 ,34.25971 
92 ,18.6965 ,1.23118 ,3.47450 ,34.09182 
93 ,18.9046 ,1.23328 ,3.45397 ,33.89035 
94 ,19.0966 ,1.23518 ,3.44713 ,33.82319 
95 ,19.2886 ,1.23706 ,3.43686 ,33.72246 
96 ,19.5125 ,1.23916 ,3.41290 ,33.48741 
97 ,19.7050 ,1.24125 ,3.40606 ,33.42025 
98 ,19.8966 ,1.24331 ,3.38210 ,33.18520 
99 ,20.0889 ,1.24509 ,3.37526 ,33.11805 
100 ,20.2807 ,1.24703 ,3.33762 ,32.74869 
101 ,20.4730 ,1.24891 ,3.34788 ,32.84942 
102 ,20.6973 ,1.25109 ,3.30339 ,32.41290 
103 ,20.9214 ,1.25335 ,3.29997 ,32.37933 
104 ,21.1295 ,1.25555 ,3.29655 ,32.34575 
105 ,21.3217 ,1.25740 ,3.25891 ,31.97639 
106 ,21.5297 ,1.25950 ,3.26917 ,32.07712 
107 ,21.7218 ,1.26138 ,3.22811 ,31.67418 
108 ,21.9300 ,1.26350 ,3.20757 ,31.47271 
109 ,22.1379 ,1.26561 ,3.19388 ,31.33840 
110 ,22.3458 ,1.26762 ,3.19046 ,31.30482 
111 ,22.5379 ,1.26955 ,3.14940 ,30.90188 
112 ,22.7299 ,1.27156 ,3.15966 ,31.00262 
113 ,22.9381 ,1.27357 ,3.12202 ,30.63325 
114 ,23.1463 ,1.27567 ,3.11860 ,30.59968 
115 ,23.3544 ,1.27777 ,3.09464 ,30.36463 
116 ,23.5625 ,1.27981 ,3.08438 ,30.26389 
117 ,23.7703 ,1.28189 ,3.07753 ,30.19674 
118 ,23.9626 ,1.28380 ,3.04673 ,29.89453 
119 ,24.1704 ,1.28586 ,3.02620 ,29.69306 
120 ,24.3628 ,1.28785 ,3.02278 ,29.65948 
121 ,24.5710 ,1.28992 ,3.01593 ,29.59233 
122 ,24.7630 ,1.29182 ,2.97487 ,29.18939 
123 ,24.9706 ,1.29390 ,2.97144 ,29.15581 
124 ,25.1630 ,1.29591 ,2.94407 ,28.88718 
125 ,25.3552 ,1.29772 ,2.93722 ,28.82003 
126 ,25.5472 ,1.29964 ,2.92696 ,28.71929 
127 ,25.7553 ,1.30173 ,2.89958 ,28.45066 
128 ,25.9475 ,1.30367 ,2.89958 ,28.45066 
129 ,26.1391 ,1.30555 ,2.86536 ,28.11488 
130 ,26.3316 ,1.30750 ,2.86878 ,28.14846 
131 ,26.5238 ,1.30945 ,2.85167 ,27.98057 
132 ,26.7318 ,1.31152 ,2.83114 ,27.77910 
133 ,26.9559 ,1.31356 ,2.80718 ,27.54405 
134 ,27.1635 ,1.31582 ,2.79349 ,27.40974 
135 ,27.3721 ,1.31781 ,2.78322 ,27.30900 
136 ,27.5642 ,1.31986 ,2.74900 ,26.97322 
137 ,27.7722 ,1.32187 ,2.75927 ,27.07395 
138 ,27.9802 ,1.32400 ,2.72847 ,26.77175 
139 ,28.1723 ,1.32588 ,2.71478 ,26.63744 
140 ,28.3644 ,1.32782 ,2.70452 ,26.53670 
141 ,28.5565 ,1.32986 ,2.69083 ,26.40239 
142 ,28.7645 ,1.33178 ,2.67029 ,26.20092 
143 ,28.9727 ,1.33377 ,2.64292 ,25.93229 
144 ,29.1646 ,1.33584 ,2.63265 ,25.83156 
145 ,29.3564 ,1.33767 ,2.61554 ,25.66367 
146 ,29.5484 ,1.33963 ,2.62238 ,25.73082 
147 ,29.7731 ,1.34175 ,2.59158 ,25.42862 
148 ,29.9812 ,1.34404 ,2.57105 ,25.22715 
149 ,30.1733 ,1.34591 ,2.56078 ,25.12641 
150 ,30.3811 ,1.34804 ,2.53683 ,24.89136 
151 ,30.5735 ,1.34993 ,2.52998 ,24.82421 
152 ,30.7815 ,1.35200 ,2.51630 ,24.68989 
153 ,30.9735 ,1.35389 ,2.48550 ,24.38769 
154 ,31.1657 ,1.35583 ,2.49918 ,24.52200 
155 ,31.3738 ,1.35796 ,2.46839 ,24.21980 
156 ,31.5815 ,1.35999 ,2.44443 ,23.98475 
157 ,31.7739 ,1.36190 ,2.41705 ,23.71612 
158 ,31.9659 ,1.36385 ,2.42390 ,23.78328 
159 ,32.1742 ,1.36579 ,2.40336 ,23.58181 
160 ,32.3822 ,1.36796 ,2.38625 ,23.41392 
161 ,32.5739 ,1.36991 ,2.37941 ,23.34676 
162 ,32.7664 ,1.37182 ,2.36572 ,23.21245 
163 ,32.9744 ,1.37392 ,2.34177 ,22.97740 
164 ,33.1825 ,1.37599 ,2.33150 ,22.87667 
165 ,33.3907 ,1.37805 ,2.31439 ,22.70877 
166 ,33.5986 ,1.38009 ,2.29043 ,22.47373 
167 ,33.7742 ,1.38201 ,2.29043 ,22.47373 
168 ,33.9666 ,1.38382 ,2.28359 ,22.40657 
169 ,34.1908 ,1.38595 ,2.25621 ,22.13794 
170 ,34.3989 ,1.38812 ,2.21857 ,21.76858 
171 ,34.5909 ,1.39011 ,2.22541 ,21.83574 
172 ,34.7988 ,1.39210 ,2.20146 ,21.60069 
173 ,34.9913 ,1.39412 ,2.19803 ,21.56711 
174 ,35.1993 ,1.39609 ,2.17408 ,21.33206 
175 ,35.3915 ,1.39806 ,2.17408 ,21.33206 
176 ,35.5991 ,1.40016 ,2.15012 ,21.09702 
177 ,35.7917 ,1.40205 ,2.13301 ,20.92912 
178 ,35.9832 ,1.40402 ,2.12617 ,20.86197 
179 ,36.1596 ,1.40589 ,2.10906 ,20.69408 
180 ,36.3676 ,1.40780 ,2.09537 ,20.55976 
181 ,36.5759 ,1.40994 ,2.07141 ,20.32472 
182 ,36.7520 ,1.41179 ,2.08510 ,20.45903 
183 ,36.9600 ,1.41368 ,2.05430 ,20.15682 
184 ,37.1361 ,1.41564 ,2.02693 ,19.88820 
185 ,37.3282 ,1.41741 ,2.02693 ,19.88820 
186 ,37.5360 ,1.41947 ,1.99955 ,19.61957 
187 ,37.7444 ,1.42147 ,2.00639 ,19.68673 
188 ,37.9525 ,1.42367 ,1.97902 ,19.41810 
189 ,38.1442 ,1.42562 ,1.97217 ,19.35094 
190 ,38.3527 ,1.42765 ,1.95848 ,19.21663 
191 ,38.5607 ,1.42975 ,1.92768 ,18.91443 
192 ,38.7367 ,1.43164 ,1.91742 ,18.81369 
193 ,38.9448 ,1.43359 ,1.91057 ,18.74654 
194 ,39.1368 ,1.43547 ,1.89004 ,18.54507 
195 ,39.3125 ,1.43738 ,1.87635 ,18.41075 
196 ,39.5051 ,1.43916 ,1.86608 ,18.31002 
197 ,39.6971 ,1.44106 ,1.84897 ,18.14213 
198 ,39.8893 ,1.44301 ,1.84897 ,18.14213 
199 ,40.0971 ,1.44508 ,1.81133 ,17.77276 
200 ,40.3055 ,1.44718 ,1.82160 ,17.87350 
201 ,40.5136 ,1.44925 ,1.78395 ,17.50414 
202 ,40.7216 ,1.45129 ,1.78395 ,17.50414 
203 ,40.9137 ,1.45327 ,1.76000 ,17.26909 
204 ,41.1057 ,1.45519 ,1.76342 ,17.30267 
205 ,41.2977 ,1.45706 ,1.73262 ,17.00046 
206 ,41.4894 ,1.45897 ,1.72235 ,16.89973 
207 ,41.6821 ,1.46098 ,1.70524 ,16.73184 
208 ,41.9221 ,1.46318 ,1.70182 ,16.69826 
209 ,42.1297 ,1.46546 ,1.68129 ,16.49679 
210 ,42.3224 ,1.46735 ,1.66760 ,16.36248 
211 ,42.5144 ,1.46926 ,1.64364 ,16.12743 
212 ,42.7065 ,1.47118 ,1.65733 ,16.26174 
213 ,42.9303 ,1.47328 ,1.62311 ,15.92596 
214 ,43.1225 ,1.47535 ,1.62311 ,15.92596 
215 ,43.3147 ,1.47726 ,1.60258 ,15.72449 
216 ,43.5224 ,1.47933 ,1.58889 ,15.59018 
217 ,43.7143 ,1.48123 ,1.56151 ,15.32155 
218 ,43.9070 ,1.48317 ,1.55809 ,15.28797 
219 ,44.1150 ,1.48528 ,1.53413 ,15.05292 
220 ,44.3230 ,1.48730 ,1.53756 ,15.08650 
221 ,44.5152 ,1.48930 ,1.50333 ,14.75072 
222 ,44.7073 ,1.49120 ,1.51702 ,14.88503 
223 ,44.9313 ,1.49341 ,1.47938 ,14.51567 
224 ,45.1393 ,1.49548 ,1.46569 ,14.38136 
225 ,45.3473 ,1.49757 ,1.45885 ,14.31420 
226 ,45.5396 ,1.49953 ,1.44174 ,14.14631 
227 ,45.7475 ,1.50160 ,1.43831 ,14.11273 
228 ,45.9392 ,1.50348 ,1.41436 ,13.87768 
229 ,46.1474 ,1.50547 ,1.39040 ,13.64263 
230 ,46.3559 ,1.50765 ,1.39040 ,13.64263 
231 ,46.5799 ,1.50985 ,1.38014 ,13.54190 
232 ,46.7720 ,1.51179 ,1.35276 ,13.27327 
233 ,46.9638 ,1.51372 ,1.36303 ,13.37401 
234 ,47.1722 ,1.51581 ,1.32538 ,13.00465 
235 ,47.3803 ,1.51793 ,1.33565 ,13.10538 
236 ,47.5883 ,1.52000 ,1.30485 ,12.80318 
237 ,47.7804 ,1.52186 ,1.30143 ,12.76960 
238 ,47.9885 ,1.52399 ,1.26720 ,12.43381 
239 ,48.1805 ,1.52593 ,1.25694 ,12.33308 
240 ,48.3726 ,1.52781 ,1.24667 ,12.23235 
241 ,48.5648 ,1.52973 ,1.23983 ,12.16519 
242 ,48.7729 ,1.53183 ,1.21587 ,11.93014 
243 ,48.9810 ,1.53387 ,1.21929 ,11.96372 
244 ,49.1887 ,1.53602 ,1.20218 ,11.79583 
245 ,49.3812 ,1.53793 ,1.18165 ,11.59436 
246 ,49.6048 ,1.54008 ,1.17823 ,11.56078 
247 ,49.7972 ,1.54209 ,1.13716 ,11.15784 
248 ,49.9894 ,1.54396 ,1.14058 ,11.19142 
249 ,50.1654 ,1.54590 ,1.13374 ,11.12426 
250 ,50.3572 ,1.54763 ,1.12005 ,10.98995 
251 ,50.5494 ,1.54956 ,1.10636 ,10.85563 
252 ,50.7416 ,1.55150 ,1.09610 ,10.75490 
253 ,50.9335 ,1.55355 ,1.07556 ,10.55343 
254 ,51.1258 ,1.55533 ,1.07556 ,10.55343 
255 ,51.3339 ,1.55743 ,1.04819 ,10.28480 
256 ,51.5418 ,1.55947 ,1.05503 ,10.35196 
257 ,51.7339 ,1.56148 ,1.02081 ,10.01618 
258 ,51.9260 ,1.56348 ,1.02423 ,10.04976 
259 ,52.1180 ,1.56524 ,1.00712 ,9.88186 
260 ,52.3100 ,1.56716 ,0.99343 ,9.74755 
261 ,52.5179 ,1.56928 ,0.97290 ,9.54608 
262 ,52.7103 ,1.57123 ,0.97632 ,9.57966 
263 ,52.9345 ,1.57342 ,0.94552 ,9.27745 
264 ,53.1265 ,1.57541 ,0.96605 ,9.47892 
265 ,53.3183 ,1.57724 ,0.91814 ,9.00883 
266 ,53.5108 ,1.57916 ,0.92157 ,9.04241 
267 ,53.7029 ,1.58116 ,0.92157 ,9.04241 
268 ,53.9110 ,1.58314 ,0.88050 ,8.63947 
269 ,54.1190 ,1.58517 ,0.90103 ,8.84094 
270 ,54.3271 ,1.58737 ,0.86681 ,8.50515 
271 ,54.5191 ,1.58929 ,0.84628 ,8.30368 
272 ,54.6948 ,1.59114 ,0.85312 ,8.37084 
273 ,54.8874 ,1.59293 ,0.84286 ,8.27011 
274 ,55.0953 ,1.59505 ,0.80863 ,7.93432 
275 ,55.2876 ,1.59694 ,0.80521 ,7.90074 
276 ,55.4955 ,1.59900 ,0.79495 ,7.80001 
277 ,55.6874 ,1.60094 ,0.78810 ,7.73285 
278 ,55.8795 ,1.60302 ,0.76415 ,7.49780 
279 ,56.0716 ,1.60480 ,0.76072 ,7.46423 
280 ,56.2637 ,1.60674 ,0.76415 ,7.49780 
281 ,56.4719 ,1.60878 ,0.73677 ,7.22918 
282 ,56.6640 ,1.61073 ,0.73677 ,7.22918 
283 ,56.8559 ,1.61264 ,0.71281 ,6.99413 
284 ,57.0802 ,1.61474 ,0.71966 ,7.06129 
285 ,57.2883 ,1.61695 ,0.70255 ,6.89340 
286 ,57.4639 ,1.61883 ,0.66833 ,6.55761 
287 ,57.6563 ,1.62061 ,0.66148 ,6.49046 
288 ,57.8485 ,1.62254 ,0.64437 ,6.32256 
289 ,58.0722 ,1.62477 ,0.63068 ,6.18825 
290 ,58.2646 ,1.62668 ,0.63753 ,6.25541 
291 ,58.4567 ,1.62861 ,0.62384 ,6.12109 
292 ,58.6970 ,1.63101 ,0.59646 ,5.85247 
293 ,58.9050 ,1.63315 ,0.60330 ,5.91962 
294 ,59.1126 ,1.63516 ,0.57935 ,5.68458 
295 ,59.3049 ,1.63713 ,0.57251 ,5.61742 
296 ,59.4972 ,1.63898 ,0.56224 ,5.51668 
297 ,59.7053 ,1.64112 ,0.55882 ,5.48311 
298 ,59.9134 ,1.64319 ,0.51775 ,5.08017 
299 ,60.1211 ,1.64527 ,0.52459 ,5.14732 
300 ,60.3295 ,1.64736 ,0.50406 ,4.94585 
301 ,60.5535 ,1.64956 ,0.48695 ,4.77796 
302 ,60.7456 ,1.65147 ,0.49380 ,4.84512 
303 ,60.9536 ,1.65357 ,0.46642 ,4.57649 
304 ,61.1458 ,1.65549 ,0.47668 ,4.67723 
305 ,61.3375 ,1.65737 ,0.44588 ,4.37502 
306 ,61.5296 ,1.65937 ,0.42535 ,4.17355 
307 ,61.7220 ,1.66128 ,0.43220 ,4.24071 
308 ,61.9140 ,1.66323 ,0.40824 ,4.00566 
309 ,62.1062 ,1.66510 ,0.40824 ,4.00566 
310 ,62.2982 ,1.66702 ,0.38771 ,3.80419 
311 ,62.4905 ,1.66899 ,0.37060 ,3.63630 
312 ,62.6984 ,1.67104 ,0.37060 ,3.63630 
313 ,62.8908 ,1.67298 ,0.35691 ,3.50199 
314 ,63.0821 ,1.67489 ,0.36033 ,3.53557 
315 ,63.2745 ,1.67677 ,0.34322 ,3.36767 
316 ,63.4662 ,1.67865 ,0.32611 ,3.19978 
317 ,63.6749 ,1.68066 ,0.32611 ,3.19978 
318 ,63.8829 ,1.68285 ,0.31242 ,3.06547 
319 ,64.0746 ,1.68492 ,0.30215 ,2.96473 
320 ,64.2666 ,1.68673 ,0.28847 ,2.83042 
321 ,64.4746 ,1.68875 ,0.26793 ,2.62895 
322 ,64.7147 ,1.69122 ,0.24740 ,2.42748 
323 ,64.9074 ,1.69316 ,0.25767 ,2.52822 
324 ,65.1152 ,1.69520 ,0.23029 ,2.25959 
325 ,65.3070 ,1.69708 ,0.22687 ,2.22601 
326 ,65.4991 ,1.69904 ,0.20291 ,1.99096 
327 ,65.6751 ,1.70092 ,0.19949 ,1.95738 
328 ,65.8674 ,1.70264 ,0.20291 ,1.99096 
329 ,66.0599 ,1.70467 ,0.18922 ,1.85665 
330 ,66.2840 ,1.70680 ,0.16869 ,1.65518 
331 ,66.4921 ,1.70891 ,0.15842 ,1.55445 
332 ,66.6679 ,1.71086 ,0.15158 ,1.48729 
333 ,66.8761 ,1.71273 ,0.12420 ,1.21866 
334 ,67.0842 ,1.71489 ,0.13789 ,1.35298 
335 ,67.2762 ,1.71680 ,0.11736 ,1.15151 
336 ,67.4845 ,1.71881 ,0.11393 ,1.11793 
337 ,67.6930 ,1.72086 ,0.09340 ,0.91646 
338 ,67.9005 ,1.72301 ,0.08998 ,0.88288 
339 ,68.0927 ,1.72492 ,0.07287 ,0.71499 
340 ,68.3166 ,1.72717 ,0.05918 ,0.58067 
341 ,68.5247 ,1.72927 ,0.06260 ,0.61425 
342 ,68.7329 ,1.73136 ,0.03865 ,0.37920 
343 ,68.9406 ,1.73344 ,0.03865 ,0.37920 
344 ,69.1331 ,1.73534 ,0.00785 ,0.07700 
345 ,69.3252 ,1.73728 ,0.01469 ,0.14416 
346 ,69.5173 ,1.73917 ,-0.01269 ,-0.12447 
347 ,69.7256 ,1.74128 ,-0.01269 ,-0.12447 
348 ,69.9175 ,1.74318 ,-0.01953 ,-0.19163 
349 ,70.1412 ,1.74538 ,-0.01953 ,-0.19163 
350 ,70.3496 ,1.74749 ,-0.03664 ,-0.35952 
351 ,70.5575 ,1.74948 ,-0.05033 ,-0.49383 
352 ,70.7497 ,1.75149 ,-0.06744 ,-0.66172 
353 ,70.9259 ,1.75340 ,-0.06744 ,-0.66172 
354 ,71.1175 ,1.75513 ,-0.08455 ,-0.82961 
355 ,71.3100 ,1.75711 ,-0.10166 ,-0.99751 
356 ,71.5021 ,1.75907 ,-0.09482 ,-0.93035 
357 ,71.7100 ,1.76111 ,-0.11877 ,-1.16540 
358 ,71.9179 ,1.76318 ,-0.12562 ,-1.23255 
359 ,72.1100 ,1.76510 ,-0.14615 ,-1.43402 
360 ,72.3182 ,1.76718 ,-0.15984 ,-1.56834 
361 ,72.5265 ,1.76925 ,-0.15299 ,-1.50118 
362 ,72.7185 ,1.77116 ,-0.17011 ,-1.66907 
363 ,72.9264 ,1.77322 ,-0.18037 ,-1.76981 
364 ,73.1346 ,1.77530 ,-0.18037 ,-1.76981 
365 ,73.3263 ,1.77723 ,-0.20433 ,-2.00485 
366 ,73.5185 ,1.77917 ,-0.19748 ,-1.93770 
367 ,73.7430 ,1.78148 ,-0.22828 ,-2.23990 
368 ,73.9508 ,1.78352 ,-0.24197 ,-2.37422 
369 ,74.1431 ,1.78537 ,-0.24539 ,-2.40779 
370 ,74.3509 ,1.78742 ,-0.25224 ,-2.47495 
371 ,74.5593 ,1.78953 ,-0.25908 ,-2.54211 
372 ,74.7674 ,1.79166 ,-0.27619 ,-2.71000 
373 ,74.9755 ,1.79376 ,-0.28646 ,-2.81073 
374 ,75.1676 ,1.79565 ,-0.29330 ,-2.87789 
375 ,75.3595 ,1.79759 ,-0.29330 ,-2.87789 
376 ,75.5351 ,1.79945 ,-0.32068 ,-3.14652 
377 ,75.7279 ,1.80122 ,-0.31726 ,-3.11294 
378 ,75.9359 ,1.80332 ,-0.33437 ,-3.28083 
379 ,76.1438 ,1.80539 ,-0.33779 ,-3.31441 
380 ,76.3360 ,1.80737 ,-0.35490 ,-3.48230 
381 ,76.5277 ,1.80926 ,-0.35832 ,-3.51588 
382 ,76.7201 ,1.81125 ,-0.36517 ,-3.58303 
383 ,76.9283 ,1.81323 ,-0.38228 ,-3.75093 
384 ,77.1524 ,1.81537 ,-0.37201 ,-3.65019 
385 ,77.3604 ,1.81757 ,-0.38570 ,-3.78450 
386 ,77.5524 ,1.81948 ,-0.41992 ,-4.12029 
387 ,77.7445 ,1.82141 ,-0.41650 ,-4.08671 
388 ,77.9367 ,1.82330 ,-0.41992 ,-4.12029 
389 ,78.1287 ,1.82524 ,-0.43361 ,-4.25460 
390 ,78.3370 ,1.82724 ,-0.44046 ,-4.32176 
391 ,78.5289 ,1.82928 ,-0.45414 ,-4.45607 
392 ,78.7368 ,1.83135 ,-0.46783 ,-4.59038 
393 ,78.9450 ,1.83340 ,-0.47810 ,-4.69112 
394 ,79.1530 ,1.83550 ,-0.49863 ,-4.89259 
395 ,79.3448 ,1.83741 ,-0.48837 ,-4.79185 
396 ,79.5373 ,1.83930 ,-0.50548 ,-4.95975 
397 ,79.7292 ,1.84130 ,-0.52259 ,-5.12764 
398 ,79.9374 ,1.84333 ,-0.52259 ,-5.12764 
399 ,80.1453 ,1.84546 ,-0.53628 ,-5.26195 
400 ,80.3536 ,1.84750 ,-0.54654 ,-5.36268 
401 ,80.5457 ,1.84941 ,-0.55681 ,-5.46342 
402 ,80.7377 ,1.85134 ,-0.56023 ,-5.49700 
403 ,80.9294 ,1.85330 ,-0.57734 ,-5.66489 
404 ,81.1379 ,1.85534 ,-0.57050 ,-5.59773 
405 ,81.3299 ,1.85728 ,-0.60130 ,-5.89994 
406 ,81.5379 ,1.85933 ,-0.60130 ,-5.89994 
407 ,81.7301 ,1.86128 ,-0.61156 ,-6.00067 
408 ,81.9223 ,1.86324 ,-0.61841 ,-6.06783 
409 ,82.1138 ,1.86526 ,-0.63552 ,-6.23572 
410 ,82.3222 ,1.86709 ,-0.64921 ,-6.37003 
411 ,82.5145 ,1.86913 ,-0.66290 ,-6.50435 
412 ,82.7384 ,1.87136 ,-0.65263 ,-6.40361 
413 ,82.9626 ,1.87347 ,-0.66974 ,-6.57150 
414 ,83.1544 ,1.87552 ,-0.67659 ,-6.63866 
415 ,83.3628 ,1.87751 ,-0.68343 ,-6.70582 
416 ,83.5708 ,1.87966 ,-0.71765 ,-7.04160 
417 ,83.7789 ,1.88166 ,-0.70739 ,-6.94086 
418 ,83.9870 ,1.88380 ,-0.71423 ,-7.00802 
419 ,84.1791 ,1.88570 ,-0.71423 ,-7.00802 
420 ,84.3872 ,1.88780 ,-0.73818 ,-7.24307 
421 ,84.5790 ,1.88971 ,-0.73134 ,-7.17591 
422 ,84.7715 ,1.89169 ,-0.75530 ,-7.41096 
423 ,84.9957 ,1.89374 ,-0.75530 ,-7.41096 
424 ,85.2036 ,1.89603 ,-0.76556 ,-7.51170 
425 ,85.3952 ,1.89794 ,-0.78952 ,-7.74674 
426 ,85.6036 ,1.89991 ,-0.78610 ,-7.71317 
427 ,85.7958 ,1.90189 ,-0.79294 ,-7.78032 
428 ,85.9879 ,1.90379 ,-0.80663 ,-7.91464 
429 ,86.1799 ,1.90573 ,-0.80321 ,-7.88106 
430 ,86.3720 ,1.90766 ,-0.83058 ,-8.14968 
431 ,86.5641 ,1.90957 ,-0.81347 ,-7.98179 
432 ,86.7722 ,1.91167 ,-0.84427 ,-8.28400 
433 ,86.9962 ,1.91384 ,-0.85112 ,-8.35115 
434 ,87.1883 ,1.91584 ,-0.87507 ,-8.58620 
435 ,87.3966 ,1.91788 ,-0.87849 ,-8.61978 
436 ,87.6041 ,1.91997 ,-0.87849 ,-8.61978 
437 ,87.8124 ,1.92196 ,-0.87507 ,-8.58620 
438 ,88.0047 ,1.92413 ,-0.89218 ,-8.75409 
439 ,88.1967 ,1.92594 ,-0.90587 ,-8.88841 
440 ,88.4048 ,1.92795 ,-0.90587 ,-8.88841 
441 ,88.5968 ,1.92989 ,-0.92640 ,-9.08988 
442 ,88.7887 ,1.93183 ,-0.92983 ,-9.12345 
443 ,88.9972 ,1.93390 ,-0.93325 ,-9.15703 
444 ,89.2050 ,1.93595 ,-0.94351 ,-9.25777 
445 ,89.3977 ,1.93789 ,-0.94009 ,-9.22419 
446 ,89.5891 ,1.93986 ,-0.96405 ,-9.45924 
447 ,89.7811 ,1.94176 ,-0.97089 ,-9.52639 
448 ,89.9737 ,1.94369 ,-0.98458 ,-9.66071 
449 ,90.1658 ,1.94565 ,-0.98458 ,-9.66071 
450 ,90.3578 ,1.94750 ,-1.00511 ,-9.86218 
451 ,90.5660 ,1.94961 ,-0.99827 ,-9.79502 
452 ,90.7578 ,1.95151 ,-1.02907 ,-10.09723 
453 ,90.9338 ,1.95337 ,-1.02907 ,-10.09723 
454 ,91.1419 ,1.95524 ,-1.03591 ,-10.16438 
455 ,91.3661 ,1.95748 ,-1.05645 ,-10.36585 
456 ,91.6062 ,1.95982 ,-1.05302 ,-10.33227 
457 ,91.7984 ,1.96190 ,-1.07014 ,-10.50016 
458 ,91.9743 ,1.96379 ,-1.05987 ,-10.39943 
459 ,92.1663 ,1.96559 ,-1.07014 ,-10.50016 
460 ,92.3584 ,1.96751 ,-1.08725 ,-10.66806 
461 ,92.5664 ,1.96954 ,-1.08040 ,-10.60090 
462 ,92.7425 ,1.97146 ,-1.08725 ,-10.66806 
