Data stamp = , 01-05-2022 05:31:22 684

Calibration Values: 
Slope = , 26.54 , g/V 
Offset Voltage at no contact = , -0.501760 , V 

No , Time , Stage Position ,   Mass , Force 
   ,  (s) ,      (mm)      ,   (g)  , (mN)  

1 ,0.0000 ,0.99945 ,5.38065 ,52.79493 
2 ,0.2141 ,0.99953 ,5.38749 ,52.86209 
3 ,0.7423 ,1.00157 ,5.37038 ,52.69420 
4 ,0.9668 ,1.00373 ,5.38065 ,52.79493 
5 ,1.1909 ,1.00599 ,5.36696 ,52.66062 
6 ,1.3830 ,1.00796 ,5.33958 ,52.39199 
7 ,1.5752 ,1.00990 ,5.34301 ,52.42557 
8 ,1.7672 ,1.01189 ,5.31905 ,52.19052 
9 ,1.9592 ,1.01391 ,5.30194 ,52.02263 
10 ,2.1509 ,1.01567 ,5.29167 ,51.92190 
11 ,2.3434 ,1.01761 ,5.25745 ,51.58611 
12 ,2.5512 ,1.01974 ,5.26430 ,51.65327 
13 ,2.7435 ,1.02166 ,5.23007 ,51.31749 
14 ,2.9355 ,1.02361 ,5.23007 ,51.31749 
15 ,3.1436 ,1.02564 ,5.18559 ,50.88097 
16 ,3.3677 ,1.02782 ,5.18901 ,50.91455 
17 ,3.5599 ,1.02982 ,5.14794 ,50.51161 
18 ,3.7839 ,1.03196 ,5.13083 ,50.34372 
19 ,3.9920 ,1.03408 ,5.12399 ,50.27656 
20 ,4.1840 ,1.03600 ,5.08292 ,49.87362 
21 ,4.3760 ,1.03795 ,5.07265 ,49.77289 
22 ,4.5683 ,1.03983 ,5.06239 ,49.67215 
23 ,4.7760 ,1.04201 ,5.04185 ,49.47068 
24 ,4.9683 ,1.04389 ,5.02817 ,49.33637 
25 ,5.1602 ,1.04584 ,4.99737 ,49.03416 
26 ,5.3686 ,1.04787 ,4.97683 ,48.83269 
27 ,5.5767 ,1.04991 ,4.96657 ,48.73196 
28 ,5.7686 ,1.05189 ,4.94261 ,48.49691 
29 ,5.9609 ,1.05383 ,4.92208 ,48.29544 
30 ,6.1527 ,1.05574 ,4.91523 ,48.22828 
31 ,6.3450 ,1.05765 ,4.88444 ,47.92608 
32 ,6.5529 ,1.05958 ,4.86732 ,47.75819 
33 ,6.7290 ,1.06163 ,4.83995 ,47.48956 
34 ,6.9211 ,1.06339 ,4.82284 ,47.32167 
35 ,7.1134 ,1.06534 ,4.83310 ,47.42240 
36 ,7.3211 ,1.06738 ,4.79888 ,47.08662 
37 ,7.5294 ,1.06947 ,4.78861 ,46.98589 
38 ,7.7374 ,1.07151 ,4.75782 ,46.68368 
39 ,7.9295 ,1.07349 ,4.75782 ,46.68368 
40 ,8.1213 ,1.07540 ,4.72017 ,46.31432 
41 ,8.3139 ,1.07732 ,4.73044 ,46.41506 
42 ,8.5217 ,1.07942 ,4.67568 ,45.87780 
43 ,8.7136 ,1.08129 ,4.67911 ,45.91138 
44 ,8.9061 ,1.08320 ,4.65515 ,45.67633 
45 ,9.0981 ,1.08519 ,4.62777 ,45.40771 
46 ,9.2899 ,1.08710 ,4.62777 ,45.40771 
47 ,9.4824 ,1.08901 ,4.59355 ,45.07192 
48 ,9.6742 ,1.09092 ,4.61066 ,45.23981 
49 ,9.8824 ,1.09298 ,4.57302 ,44.87045 
50 ,10.0746 ,1.09490 ,4.56617 ,44.80330 
51 ,10.2827 ,1.09688 ,4.52853 ,44.43394 
52 ,10.4748 ,1.09892 ,4.52511 ,44.40036 
53 ,10.6663 ,1.10079 ,4.50457 ,44.19889 
54 ,10.8909 ,1.10308 ,4.46693 ,43.82953 
55 ,11.0830 ,1.10500 ,4.45666 ,43.72879 
56 ,11.2749 ,1.10691 ,4.45324 ,43.69521 
57 ,11.4668 ,1.10885 ,4.42929 ,43.46016 
58 ,11.6589 ,1.11077 ,4.40533 ,43.22512 
59 ,11.8512 ,1.11268 ,4.40191 ,43.19154 
60 ,12.0593 ,1.11472 ,4.36427 ,42.82218 
61 ,12.2515 ,1.11669 ,4.36769 ,42.85576 
62 ,12.4435 ,1.11856 ,4.34716 ,42.65429 
63 ,12.6356 ,1.12053 ,4.32320 ,42.41924 
64 ,12.8112 ,1.12239 ,4.31293 ,42.31850 
65 ,13.0037 ,1.12424 ,4.28898 ,42.08345 
66 ,13.2118 ,1.12630 ,4.28213 ,42.01630 
67 ,13.4198 ,1.12824 ,4.24107 ,41.61336 
68 ,13.6280 ,1.13038 ,4.24791 ,41.68051 
69 ,13.8201 ,1.13239 ,4.20685 ,41.27758 
70 ,14.0281 ,1.13443 ,4.20342 ,41.24400 
71 ,14.2522 ,1.13656 ,4.18289 ,41.04253 
72 ,14.4443 ,1.13864 ,4.17605 ,40.97537 
73 ,14.6363 ,1.14054 ,4.14525 ,40.67317 
74 ,14.8282 ,1.14240 ,4.14183 ,40.63959 
75 ,15.0204 ,1.14433 ,4.10076 ,40.23665 
76 ,15.2126 ,1.14629 ,4.11103 ,40.33738 
77 ,15.4204 ,1.14839 ,4.07338 ,39.96802 
78 ,15.6286 ,1.15038 ,4.06996 ,39.93444 
79 ,15.8206 ,1.15236 ,4.02889 ,39.53150 
80 ,16.0285 ,1.15436 ,4.03574 ,39.59866 
81 ,16.2211 ,1.15638 ,4.01178 ,39.36361 
82 ,16.4291 ,1.15841 ,4.00494 ,39.29646 
83 ,16.6212 ,1.16037 ,3.96387 ,38.89352 
84 ,16.8133 ,1.16223 ,3.96729 ,38.92709 
85 ,17.0055 ,1.16421 ,3.93650 ,38.62489 
86 ,17.1973 ,1.16609 ,3.91938 ,38.45700 
87 ,17.3735 ,1.16800 ,3.92623 ,38.52415 
88 ,17.5660 ,1.16975 ,3.90227 ,38.28911 
89 ,17.7577 ,1.17179 ,3.87147 ,37.98690 
90 ,17.9658 ,1.17378 ,3.86121 ,37.88617 
91 ,18.1578 ,1.17572 ,3.84067 ,37.68470 
92 ,18.3495 ,1.17763 ,3.84410 ,37.71828 
93 ,18.5419 ,1.17957 ,3.79961 ,37.28176 
94 ,18.7500 ,1.18167 ,3.79276 ,37.21460 
95 ,18.9421 ,1.18354 ,3.76881 ,36.97955 
96 ,19.1343 ,1.18549 ,3.75170 ,36.81166 
97 ,19.3259 ,1.18738 ,3.75170 ,36.81166 
98 ,19.5183 ,1.18938 ,3.71748 ,36.47588 
99 ,19.7265 ,1.19139 ,3.72090 ,36.50946 
100 ,19.9185 ,1.19333 ,3.68668 ,36.17367 
101 ,20.1101 ,1.19524 ,3.67641 ,36.07294 
102 ,20.3026 ,1.19715 ,3.65930 ,35.90505 
103 ,20.4947 ,1.19907 ,3.64219 ,35.73716 
104 ,20.6869 ,1.20098 ,3.63192 ,35.63642 
105 ,20.8790 ,1.20296 ,3.59770 ,35.30064 
106 ,21.0711 ,1.20490 ,3.60112 ,35.33422 
107 ,21.2786 ,1.20690 ,3.57375 ,35.06559 
108 ,21.4710 ,1.20885 ,3.57032 ,35.03201 
109 ,21.6631 ,1.21084 ,3.52584 ,34.59549 
110 ,21.9032 ,1.21314 ,3.52926 ,34.62907 
111 ,22.0953 ,1.21511 ,3.49504 ,34.29329 
112 ,22.2870 ,1.21699 ,3.50530 ,34.39402 
113 ,22.4634 ,1.21891 ,3.47108 ,34.05824 
114 ,22.6714 ,1.22085 ,3.46424 ,33.99108 
115 ,22.8637 ,1.22271 ,3.44028 ,33.75604 
116 ,23.0720 ,1.22481 ,3.42659 ,33.62172 
117 ,23.2638 ,1.22675 ,3.43001 ,33.65530 
118 ,23.4559 ,1.22872 ,3.37868 ,33.15163 
119 ,23.6477 ,1.23063 ,3.38553 ,33.21878 
120 ,23.8401 ,1.23257 ,3.35130 ,32.88300 
121 ,24.0641 ,1.23464 ,3.36157 ,32.98374 
122 ,24.2561 ,1.23662 ,3.31708 ,32.54722 
123 ,24.4484 ,1.23856 ,3.32393 ,32.61437 
124 ,24.6404 ,1.24055 ,3.28286 ,32.21143 
125 ,24.8645 ,1.24264 ,3.28971 ,32.27859 
126 ,25.0727 ,1.24485 ,3.25548 ,31.94281 
127 ,25.2647 ,1.24676 ,3.25206 ,31.90923 
128 ,25.4565 ,1.24866 ,3.22468 ,31.64060 
129 ,25.6809 ,1.25082 ,3.22126 ,31.60702 
130 ,25.8725 ,1.25284 ,3.19388 ,31.33840 
131 ,26.0650 ,1.25475 ,3.18362 ,31.23766 
132 ,26.2571 ,1.25666 ,3.14940 ,30.90188 
133 ,26.4651 ,1.25876 ,3.13913 ,30.80115 
134 ,26.6568 ,1.26063 ,3.11860 ,30.59968 
135 ,26.8493 ,1.26256 ,3.12202 ,30.63325 
136 ,27.0409 ,1.26450 ,3.09806 ,30.39821 
137 ,27.2335 ,1.26644 ,3.08780 ,30.29747 
138 ,27.4255 ,1.26837 ,3.07069 ,30.12958 
139 ,27.6336 ,1.27039 ,3.05358 ,29.96169 
140 ,27.8257 ,1.27232 ,3.04673 ,29.89453 
141 ,28.0333 ,1.27441 ,3.02620 ,29.69306 
142 ,28.2258 ,1.27638 ,3.02278 ,29.65948 
143 ,28.4339 ,1.27842 ,2.98171 ,29.25654 
144 ,28.6419 ,1.28051 ,2.96118 ,29.05507 
145 ,28.8341 ,1.28239 ,2.94749 ,28.92076 
146 ,29.0261 ,1.28440 ,2.95433 ,28.98792 
147 ,29.2181 ,1.28632 ,2.91669 ,28.61856 
148 ,29.4262 ,1.28836 ,2.91327 ,28.58498 
149 ,29.6343 ,1.29043 ,2.87220 ,28.18204 
150 ,29.8262 ,1.29236 ,2.88589 ,28.31635 
151 ,30.0184 ,1.29425 ,2.85167 ,27.98057 
152 ,30.1942 ,1.29616 ,2.85509 ,28.01415 
153 ,30.3866 ,1.29798 ,2.83798 ,27.84625 
154 ,30.5788 ,1.29985 ,2.81060 ,27.57763 
155 ,30.7707 ,1.30182 ,2.81060 ,27.57763 
156 ,30.9629 ,1.30370 ,2.77980 ,27.27542 
157 ,31.1548 ,1.30565 ,2.75585 ,27.04038 
158 ,31.3466 ,1.30754 ,2.76954 ,27.17469 
159 ,31.5391 ,1.30948 ,2.72505 ,26.73817 
160 ,31.7313 ,1.31135 ,2.73189 ,26.80533 
161 ,31.9233 ,1.31332 ,2.70794 ,26.57028 
162 ,32.1154 ,1.31525 ,2.67372 ,26.23450 
163 ,32.3392 ,1.31751 ,2.68056 ,26.30165 
164 ,32.5474 ,1.31953 ,2.66345 ,26.13376 
165 ,32.7553 ,1.32162 ,2.63265 ,25.83156 
166 ,32.9638 ,1.32358 ,2.62923 ,25.79798 
167 ,33.1717 ,1.32579 ,2.59843 ,25.49577 
168 ,33.3636 ,1.32772 ,2.60869 ,25.59651 
169 ,33.5558 ,1.32958 ,2.56763 ,25.19357 
170 ,33.7480 ,1.33156 ,2.57105 ,25.22715 
171 ,33.9399 ,1.33346 ,2.55052 ,25.02568 
172 ,34.1323 ,1.33541 ,2.52998 ,24.82421 
173 ,34.3242 ,1.33732 ,2.52656 ,24.79063 
174 ,34.5162 ,1.33925 ,2.49576 ,24.48842 
175 ,34.7405 ,1.34137 ,2.49576 ,24.48842 
176 ,34.9484 ,1.34360 ,2.48207 ,24.35411 
177 ,35.1406 ,1.34553 ,2.45127 ,24.05191 
178 ,35.3487 ,1.34755 ,2.46154 ,24.15264 
179 ,35.5408 ,1.34946 ,2.41021 ,23.64897 
180 ,35.7329 ,1.35152 ,2.41705 ,23.71612 
181 ,35.9247 ,1.35333 ,2.41705 ,23.71612 
182 ,36.1169 ,1.35521 ,2.37256 ,23.27961 
183 ,36.3093 ,1.35720 ,2.37599 ,23.31318 
184 ,36.5014 ,1.35911 ,2.35888 ,23.14529 
185 ,36.6932 ,1.36101 ,2.32123 ,22.77593 
186 ,36.9494 ,1.36344 ,2.31097 ,22.67520 
187 ,37.1572 ,1.36560 ,2.28701 ,22.44015 
188 ,37.3492 ,1.36754 ,2.28701 ,22.44015 
189 ,37.5414 ,1.36945 ,2.27674 ,22.33941 
190 ,37.7336 ,1.37136 ,2.25621 ,22.13794 
191 ,37.9259 ,1.37329 ,2.25963 ,22.17152 
192 ,38.1179 ,1.37525 ,2.21857 ,21.76858 
193 ,38.3100 ,1.37714 ,2.21172 ,21.70143 
194 ,38.5019 ,1.37907 ,2.21515 ,21.73500 
195 ,38.7103 ,1.38117 ,2.19461 ,21.53353 
196 ,38.9019 ,1.38309 ,2.17408 ,21.33206 
197 ,39.0944 ,1.38503 ,2.14328 ,21.02986 
198 ,39.3184 ,1.38714 ,2.15697 ,21.16417 
199 ,39.5266 ,1.38931 ,2.14328 ,21.02986 
200 ,39.7341 ,1.39140 ,2.09537 ,20.55976 
201 ,39.9427 ,1.39350 ,2.10221 ,20.62692 
202 ,40.1508 ,1.39555 ,2.07826 ,20.39187 
203 ,40.3589 ,1.39768 ,2.06457 ,20.25756 
204 ,40.5508 ,1.39960 ,2.05088 ,20.12325 
205 ,40.7589 ,1.40166 ,2.03377 ,19.95535 
206 ,40.9510 ,1.40355 ,2.00982 ,19.72031 
207 ,41.1590 ,1.40559 ,2.01324 ,19.75388 
208 ,41.3511 ,1.40755 ,1.97902 ,19.41810 
209 ,41.5429 ,1.40946 ,1.97902 ,19.41810 
210 ,41.7349 ,1.41137 ,1.96190 ,19.25021 
211 ,41.9271 ,1.41330 ,1.95164 ,19.14948 
212 ,42.1192 ,1.41521 ,1.93795 ,19.01516 
213 ,42.3112 ,1.41721 ,1.91057 ,18.74654 
214 ,42.5034 ,1.41908 ,1.90715 ,18.71296 
215 ,42.6954 ,1.42099 ,1.87977 ,18.44433 
216 ,42.9034 ,1.42297 ,1.88319 ,18.47791 
217 ,43.0956 ,1.42498 ,1.86266 ,18.27644 
218 ,43.2876 ,1.42689 ,1.84897 ,18.14213 
219 ,43.4798 ,1.42886 ,1.81817 ,17.83992 
220 ,43.6719 ,1.43078 ,1.82160 ,17.87350 
221 ,43.8638 ,1.43268 ,1.82502 ,17.90708 
222 ,44.0560 ,1.43457 ,1.78737 ,17.53772 
223 ,44.2320 ,1.43648 ,1.77711 ,17.43698 
224 ,44.4241 ,1.43824 ,1.77026 ,17.36983 
225 ,44.6162 ,1.44017 ,1.74631 ,17.13478 
226 ,44.8083 ,1.44214 ,1.72920 ,16.96689 
227 ,45.0004 ,1.44404 ,1.74289 ,17.10120 
228 ,45.1923 ,1.44595 ,1.69155 ,16.59752 
229 ,45.4004 ,1.44801 ,1.70866 ,16.76542 
230 ,45.6085 ,1.45009 ,1.68129 ,16.49679 
231 ,45.8005 ,1.45212 ,1.67786 ,16.46321 
232 ,45.9928 ,1.45396 ,1.65049 ,16.19458 
233 ,46.1851 ,1.45584 ,1.65391 ,16.22816 
234 ,46.3774 ,1.45775 ,1.62311 ,15.92596 
235 ,46.5689 ,1.45968 ,1.60600 ,15.75807 
236 ,46.7616 ,1.46165 ,1.61284 ,15.82522 
237 ,46.9856 ,1.46379 ,1.57520 ,15.45586 
238 ,47.1937 ,1.46595 ,1.56151 ,15.32155 
239 ,47.3858 ,1.46785 ,1.57520 ,15.45586 
240 ,47.5778 ,1.46981 ,1.55809 ,15.28797 
241 ,47.7700 ,1.47177 ,1.53413 ,15.05292 
242 ,47.9780 ,1.47379 ,1.51360 ,14.85145 
243 ,48.1702 ,1.47578 ,1.49649 ,14.68356 
244 ,48.3782 ,1.47776 ,1.48622 ,14.58283 
245 ,48.5861 ,1.47983 ,1.46227 ,14.34778 
246 ,48.7944 ,1.48196 ,1.45542 ,14.28062 
247 ,49.0185 ,1.48427 ,1.46227 ,14.34778 
248 ,49.2263 ,1.48624 ,1.42805 ,14.01199 
249 ,49.4183 ,1.48816 ,1.42120 ,13.94484 
250 ,49.6106 ,1.49012 ,1.38356 ,13.57548 
251 ,49.8024 ,1.49203 ,1.40067 ,13.74337 
252 ,50.0108 ,1.49414 ,1.36987 ,13.44116 
253 ,50.2190 ,1.49618 ,1.37329 ,13.47474 
254 ,50.4110 ,1.49812 ,1.34934 ,13.23969 
255 ,50.6032 ,1.50001 ,1.34934 ,13.23969 
256 ,50.7953 ,1.50197 ,1.32880 ,13.03822 
257 ,50.9873 ,1.50389 ,1.30827 ,12.83675 
258 ,51.1954 ,1.50598 ,1.29800 ,12.73602 
259 ,51.3876 ,1.50790 ,1.28774 ,12.63528 
260 ,51.5955 ,1.50996 ,1.28089 ,12.56813 
261 ,51.7875 ,1.51184 ,1.26720 ,12.43381 
262 ,51.9794 ,1.51379 ,1.26378 ,12.40024 
263 ,52.1718 ,1.51576 ,1.22956 ,12.06445 
264 ,52.3800 ,1.51777 ,1.23298 ,12.09803 
265 ,52.5559 ,1.51972 ,1.19534 ,11.72867 
266 ,52.7480 ,1.52147 ,1.20903 ,11.86298 
267 ,52.9399 ,1.52339 ,1.18507 ,11.62794 
268 ,53.1316 ,1.52542 ,1.17138 ,11.49362 
269 ,53.3243 ,1.52723 ,1.16454 ,11.42647 
270 ,53.5161 ,1.52918 ,1.15427 ,11.32573 
271 ,53.7404 ,1.53135 ,1.13716 ,11.15784 
272 ,53.9483 ,1.53347 ,1.10636 ,10.85563 
273 ,54.1402 ,1.53542 ,1.12005 ,10.98995 
274 ,54.3327 ,1.53736 ,1.08925 ,10.68774 
275 ,54.5408 ,1.53938 ,1.09610 ,10.75490 
276 ,54.7329 ,1.54135 ,1.05503 ,10.35196 
277 ,54.9409 ,1.54333 ,1.05845 ,10.38554 
278 ,55.1490 ,1.54549 ,1.02081 ,10.01618 
279 ,55.3570 ,1.54753 ,1.03108 ,10.11691 
280 ,55.5488 ,1.54948 ,1.00370 ,9.84829 
281 ,55.7252 ,1.55139 ,1.00370 ,9.84829 
282 ,55.9171 ,1.55313 ,1.00028 ,9.81471 
283 ,56.1254 ,1.55524 ,0.99001 ,9.71397 
284 ,56.3171 ,1.55721 ,0.96263 ,9.44535 
285 ,56.4936 ,1.55907 ,0.94210 ,9.24388 
286 ,56.6856 ,1.56081 ,0.94552 ,9.27745 
287 ,56.8776 ,1.56276 ,0.93183 ,9.14314 
288 ,57.0697 ,1.56472 ,0.91130 ,8.94167 
289 ,57.2619 ,1.56660 ,0.92157 ,9.04241 
290 ,57.4696 ,1.56869 ,0.88050 ,8.63947 
291 ,57.6620 ,1.57060 ,0.87366 ,8.57231 
292 ,57.8540 ,1.57248 ,0.85654 ,8.40442 
293 ,58.0462 ,1.57447 ,0.85654 ,8.40442 
294 ,58.2541 ,1.57654 ,0.82575 ,8.10221 
295 ,58.4465 ,1.57839 ,0.82575 ,8.10221 
296 ,58.6540 ,1.58053 ,0.80521 ,7.90074 
297 ,58.8460 ,1.58242 ,0.80179 ,7.86717 
298 ,59.0383 ,1.58430 ,0.80179 ,7.86717 
299 ,59.2464 ,1.58642 ,0.77784 ,7.63212 
300 ,59.4546 ,1.58852 ,0.75730 ,7.43065 
301 ,59.6465 ,1.59040 ,0.75388 ,7.39707 
302 ,59.8388 ,1.59229 ,0.75046 ,7.36349 
303 ,60.0309 ,1.59429 ,0.71966 ,7.06129 
304 ,60.2230 ,1.59618 ,0.73335 ,7.19560 
305 ,60.4151 ,1.59814 ,0.69913 ,6.85982 
306 ,60.6073 ,1.60006 ,0.68886 ,6.75908 
307 ,60.8153 ,1.60216 ,0.67517 ,6.62477 
308 ,61.0072 ,1.60407 ,0.65464 ,6.42330 
309 ,61.1993 ,1.60599 ,0.66148 ,6.49046 
310 ,61.4074 ,1.60802 ,0.63068 ,6.18825 
311 ,61.5996 ,1.60999 ,0.64437 ,6.32256 
312 ,61.7912 ,1.61188 ,0.61015 ,5.98678 
313 ,61.9838 ,1.61382 ,0.62384 ,6.12109 
314 ,62.1759 ,1.61572 ,0.59988 ,5.88605 
315 ,62.3842 ,1.61783 ,0.58619 ,5.75173 
316 ,62.5762 ,1.61969 ,0.56566 ,5.55026 
317 ,62.8002 ,1.62185 ,0.56224 ,5.51668 
318 ,63.0082 ,1.62411 ,0.54171 ,5.31522 
319 ,63.2163 ,1.62614 ,0.52459 ,5.14732 
320 ,63.4242 ,1.62819 ,0.51775 ,5.08017 
321 ,63.6164 ,1.63010 ,0.51091 ,5.01301 
322 ,63.8084 ,1.63205 ,0.50064 ,4.91228 
323 ,64.0000 ,1.63395 ,0.50064 ,4.91228 
324 ,64.1926 ,1.63587 ,0.48011 ,4.71081 
325 ,64.3848 ,1.63777 ,0.47668 ,4.67723 
326 ,64.5768 ,1.63972 ,0.45615 ,4.47576 
327 ,64.7849 ,1.64181 ,0.43220 ,4.24071 
328 ,64.9770 ,1.64372 ,0.43220 ,4.24071 
329 ,65.2008 ,1.64587 ,0.41509 ,4.07282 
330 ,65.4091 ,1.64803 ,0.39113 ,3.83777 
331 ,65.6009 ,1.64998 ,0.39113 ,3.83777 
332 ,65.8093 ,1.65202 ,0.36718 ,3.60272 
333 ,66.0014 ,1.65401 ,0.37402 ,3.66988 
334 ,66.1933 ,1.65600 ,0.35691 ,3.50199 
335 ,66.3856 ,1.65778 ,0.35006 ,3.43483 
336 ,66.5936 ,1.65992 ,0.33638 ,3.30052 
337 ,66.8016 ,1.66191 ,0.31584 ,3.09905 
338 ,66.9937 ,1.66387 ,0.30900 ,3.03189 
339 ,67.1854 ,1.66581 ,0.29531 ,2.89758 
340 ,67.3780 ,1.66778 ,0.28504 ,2.79684 
341 ,67.5859 ,1.66975 ,0.26793 ,2.62895 
342 ,67.7781 ,1.67174 ,0.27478 ,2.69611 
343 ,67.9861 ,1.67378 ,0.25082 ,2.46106 
344 ,68.1943 ,1.67593 ,0.23713 ,2.32675 
345 ,68.3859 ,1.67776 ,0.23713 ,2.32675 
346 ,68.5783 ,1.67973 ,0.23713 ,2.32675 
347 ,68.7705 ,1.68167 ,0.19264 ,1.89023 
348 ,68.9621 ,1.68354 ,0.20976 ,2.05812 
349 ,69.1546 ,1.68547 ,0.19607 ,1.92381 
350 ,69.3462 ,1.68744 ,0.16527 ,1.62160 
351 ,69.5387 ,1.68932 ,0.17553 ,1.72234 
352 ,69.7467 ,1.69142 ,0.15158 ,1.48729 
353 ,69.9389 ,1.69336 ,0.15158 ,1.48729 
354 ,70.1469 ,1.69536 ,0.12762 ,1.25224 
355 ,70.3550 ,1.69750 ,0.12762 ,1.25224 
356 ,70.5632 ,1.69954 ,0.11051 ,1.08435 
357 ,70.7712 ,1.70162 ,0.10709 ,1.05077 
358 ,70.9633 ,1.70356 ,0.08998 ,0.88288 
359 ,71.1715 ,1.70569 ,0.07287 ,0.71499 
360 ,71.3634 ,1.70756 ,0.08656 ,0.84930 
361 ,71.5552 ,1.70942 ,0.07287 ,0.71499 
362 ,71.7474 ,1.71142 ,0.03865 ,0.37920 
363 ,71.9397 ,1.71334 ,0.05234 ,0.51352 
364 ,72.1317 ,1.71522 ,0.02838 ,0.27847 
365 ,72.3238 ,1.71715 ,0.01811 ,0.17773 
366 ,72.5317 ,1.71927 ,0.01469 ,0.14416 
367 ,72.7400 ,1.72133 ,0.02496 ,0.24489 
368 ,72.9317 ,1.72322 ,-0.00926 ,-0.09089 
369 ,73.1242 ,1.72516 ,-0.02980 ,-0.29236 
370 ,73.3322 ,1.72720 ,-0.02980 ,-0.29236 
371 ,73.5242 ,1.72914 ,-0.04691 ,-0.46025 
372 ,73.7161 ,1.73108 ,-0.03322 ,-0.32594 
373 ,73.9405 ,1.73315 ,-0.05033 ,-0.49383 
374 ,74.1485 ,1.73542 ,-0.07771 ,-0.76246 
375 ,74.3405 ,1.73736 ,-0.07428 ,-0.72888 
376 ,74.5327 ,1.73920 ,-0.09482 ,-0.93035 
377 ,74.7250 ,1.74117 ,-0.11193 ,-1.09824 
378 ,74.9650 ,1.74335 ,-0.11877 ,-1.16540 
379 ,75.1890 ,1.74571 ,-0.13246 ,-1.29971 
380 ,75.3814 ,1.74776 ,-0.13246 ,-1.29971 
381 ,75.5732 ,1.74966 ,-0.13588 ,-1.33329 
382 ,75.7650 ,1.75156 ,-0.16326 ,-1.60191 
383 ,75.9569 ,1.75344 ,-0.15984 ,-1.56834 
384 ,76.1492 ,1.75536 ,-0.17695 ,-1.73623 
385 ,76.3415 ,1.75733 ,-0.17695 ,-1.73623 
386 ,76.5494 ,1.75939 ,-0.19406 ,-1.90412 
387 ,76.7574 ,1.76141 ,-0.20433 ,-2.00485 
388 ,76.9496 ,1.76342 ,-0.21459 ,-2.10559 
389 ,77.1578 ,1.76545 ,-0.21459 ,-2.10559 
390 ,77.3660 ,1.76753 ,-0.25566 ,-2.50853 
391 ,77.5577 ,1.76949 ,-0.22828 ,-2.23990 
392 ,77.7499 ,1.77138 ,-0.26250 ,-2.57569 
393 ,77.9419 ,1.77339 ,-0.25908 ,-2.54211 
394 ,78.1342 ,1.77527 ,-0.25908 ,-2.54211 
395 ,78.3422 ,1.77720 ,-0.29673 ,-2.91147 
396 ,78.5502 ,1.77941 ,-0.30357 ,-2.97863 
397 ,78.7583 ,1.78148 ,-0.30357 ,-2.97863 
398 ,78.9986 ,1.78379 ,-0.32752 ,-3.21367 
399 ,79.1903 ,1.78581 ,-0.33437 ,-3.28083 
400 ,79.3988 ,1.78782 ,-0.33437 ,-3.28083 
401 ,79.6066 ,1.78991 ,-0.36517 ,-3.58303 
402 ,79.8310 ,1.79212 ,-0.35490 ,-3.48230 
403 ,80.0231 ,1.79416 ,-0.36517 ,-3.58303 
404 ,80.2310 ,1.79620 ,-0.37544 ,-3.68377 
405 ,80.4391 ,1.79832 ,-0.37544 ,-3.68377 
406 ,80.6470 ,1.80039 ,-0.40281 ,-3.95240 
407 ,80.8553 ,1.80240 ,-0.39255 ,-3.85166 
408 ,81.0475 ,1.80435 ,-0.43361 ,-4.25460 
409 ,81.2556 ,1.80644 ,-0.42677 ,-4.18744 
410 ,81.4473 ,1.80833 ,-0.45414 ,-4.45607 
411 ,81.6396 ,1.81031 ,-0.43361 ,-4.25460 
412 ,81.8476 ,1.81234 ,-0.46783 ,-4.59038 
413 ,82.0399 ,1.81431 ,-0.45757 ,-4.48965 
414 ,82.2477 ,1.81636 ,-0.48152 ,-4.72470 
415 ,82.4397 ,1.81829 ,-0.47126 ,-4.62396 
416 ,82.6322 ,1.82023 ,-0.49521 ,-4.85901 
417 ,82.8563 ,1.82240 ,-0.48837 ,-4.79185 
418 ,83.0802 ,1.82458 ,-0.52601 ,-5.16121 
419 ,83.2723 ,1.82659 ,-0.52943 ,-5.19479 
420 ,83.4962 ,1.82874 ,-0.52943 ,-5.19479 
421 ,83.7045 ,1.83103 ,-0.55339 ,-5.42984 
422 ,83.9127 ,1.83301 ,-0.55339 ,-5.42984 
423 ,84.1045 ,1.83496 ,-0.56023 ,-5.49700 
424 ,84.3129 ,1.83700 ,-0.56365 ,-5.53058 
425 ,84.5047 ,1.83891 ,-0.58761 ,-5.76562 
426 ,84.7125 ,1.84098 ,-0.59445 ,-5.83278 
427 ,84.9212 ,1.84302 ,-0.61156 ,-6.00067 
428 ,85.1292 ,1.84521 ,-0.62525 ,-6.13499 
429 ,85.3373 ,1.84723 ,-0.61156 ,-6.00067 
430 ,85.5293 ,1.84922 ,-0.63894 ,-6.26930 
431 ,85.7370 ,1.85127 ,-0.63210 ,-6.20214 
432 ,85.9134 ,1.85315 ,-0.65605 ,-6.43719 
433 ,86.1212 ,1.85506 ,-0.63894 ,-6.26930 
434 ,86.3137 ,1.85698 ,-0.65605 ,-6.43719 
435 ,86.5217 ,1.85910 ,-0.66974 ,-6.57150 
436 ,86.7138 ,1.86105 ,-0.69027 ,-6.77297 
437 ,86.9056 ,1.86295 ,-0.69027 ,-6.77297 
438 ,87.0978 ,1.86478 ,-0.69712 ,-6.84013 
439 ,87.2901 ,1.86674 ,-0.71423 ,-7.00802 
440 ,87.4980 ,1.86882 ,-0.71081 ,-6.97444 
441 ,87.6902 ,1.87079 ,-0.73134 ,-7.17591 
442 ,87.8978 ,1.87277 ,-0.71423 ,-7.00802 
443 ,88.0904 ,1.87478 ,-0.76214 ,-7.47812 
444 ,88.3139 ,1.87703 ,-0.74845 ,-7.34380 
445 ,88.5065 ,1.87889 ,-0.77925 ,-7.64601 
446 ,88.6986 ,1.88084 ,-0.76214 ,-7.47812 
447 ,88.8907 ,1.88277 ,-0.78267 ,-7.67959 
448 ,89.0827 ,1.88468 ,-0.78610 ,-7.71317 
449 ,89.2748 ,1.88659 ,-0.79294 ,-7.78032 
450 ,89.4667 ,1.88853 ,-0.82374 ,-8.08253 
451 ,89.6590 ,1.89046 ,-0.79978 ,-7.84748 
452 ,89.8668 ,1.89252 ,-0.82716 ,-8.11611 
453 ,90.0589 ,1.89446 ,-0.82032 ,-8.04895 
454 ,90.2670 ,1.89653 ,-0.85112 ,-8.35115 
455 ,90.4910 ,1.89876 ,-0.83743 ,-8.21684 
456 ,90.6833 ,1.90070 ,-0.86138 ,-8.45189 
457 ,90.8755 ,1.90262 ,-0.86823 ,-8.51904 
458 ,91.0832 ,1.90472 ,-0.88876 ,-8.72051 
459 ,91.2755 ,1.90654 ,-0.88534 ,-8.68694 
460 ,91.4677 ,1.90854 ,-0.90929 ,-8.92198 
461 ,91.6759 ,1.91051 ,-0.89903 ,-8.82125 
462 ,91.8679 ,1.91250 ,-0.91956 ,-9.02272 
463 ,92.0600 ,1.91444 ,-0.91614 ,-8.98914 
