Data stamp = , 01-05-2022 17:41:52 313

Calibration Values: 
Slope = , 26.54 , g/V 
Offset Voltage at no contact = , -0.501760 , V 

No , Time , Stage Position ,   Mass , Force 
   ,  (s) ,      (mm)      ,   (g)  , (mN)  

1 ,0.0000 ,0.99948 ,5.34985 ,52.49273 
2 ,0.2391 ,0.99961 ,5.34985 ,52.49273 
3 ,0.6238 ,1.00074 ,5.33616 ,52.35841 
4 ,0.8635 ,1.00292 ,5.33958 ,52.39199 
5 ,1.0721 ,1.00485 ,5.34643 ,52.45915 
6 ,1.2641 ,1.00685 ,5.34643 ,52.45915 
7 ,1.4558 ,1.00876 ,5.32932 ,52.29126 
8 ,1.6483 ,1.01074 ,5.29852 ,51.98905 
9 ,1.8721 ,1.01290 ,5.28141 ,51.82116 
10 ,2.0644 ,1.01491 ,5.26087 ,51.61969 
11 ,2.2725 ,1.01700 ,5.24718 ,51.48538 
12 ,2.4805 ,1.01904 ,5.22665 ,51.28391 
13 ,2.6726 ,1.02093 ,5.21296 ,51.14960 
14 ,2.8802 ,1.02303 ,5.19243 ,50.94813 
15 ,3.0727 ,1.02497 ,5.17532 ,50.78023 
16 ,3.2807 ,1.02701 ,5.16505 ,50.67950 
17 ,3.4728 ,1.02898 ,5.13425 ,50.37729 
18 ,3.6646 ,1.03091 ,5.11030 ,50.14225 
19 ,3.8728 ,1.03294 ,5.09319 ,49.97436 
20 ,4.1129 ,1.03539 ,5.07608 ,49.80646 
21 ,4.3209 ,1.03743 ,5.05212 ,49.57142 
22 ,4.5131 ,1.03934 ,5.02132 ,49.26921 
23 ,4.7212 ,1.04139 ,5.01790 ,49.23563 
24 ,4.9134 ,1.04336 ,4.99394 ,49.00058 
25 ,5.1056 ,1.04529 ,4.96999 ,48.76554 
26 ,5.2977 ,1.04720 ,4.96999 ,48.76554 
27 ,5.5217 ,1.04931 ,4.92550 ,48.32902 
28 ,5.7139 ,1.05134 ,4.92208 ,48.29544 
29 ,5.9218 ,1.05343 ,4.91181 ,48.19471 
30 ,6.1136 ,1.05534 ,4.88101 ,47.89250 
31 ,6.3061 ,1.05725 ,4.86732 ,47.75819 
32 ,6.4983 ,1.05922 ,4.85364 ,47.62387 
33 ,6.6903 ,1.06110 ,4.81941 ,47.28809 
34 ,6.8823 ,1.06307 ,4.80915 ,47.18736 
35 ,7.0904 ,1.06512 ,4.76808 ,46.78442 
36 ,7.2982 ,1.06716 ,4.76124 ,46.71726 
37 ,7.4902 ,1.06910 ,4.73728 ,46.48221 
38 ,7.6982 ,1.07119 ,4.74070 ,46.51579 
39 ,7.8904 ,1.07310 ,4.70990 ,46.21359 
40 ,8.0825 ,1.07498 ,4.70648 ,46.18001 
41 ,8.2750 ,1.07699 ,4.66542 ,45.77707 
42 ,8.5150 ,1.07919 ,4.67911 ,45.91138 
43 ,8.7231 ,1.08133 ,4.65173 ,45.64275 
44 ,8.9310 ,1.08352 ,4.61066 ,45.23981 
45 ,9.1228 ,1.08540 ,4.60382 ,45.17266 
46 ,9.3151 ,1.08737 ,4.56960 ,44.83688 
47 ,9.5395 ,1.08955 ,4.57302 ,44.87045 
48 ,9.7316 ,1.09153 ,4.54564 ,44.60183 
49 ,9.9397 ,1.09358 ,4.52511 ,44.40036 
50 ,10.1316 ,1.09550 ,4.51142 ,44.26604 
51 ,10.3234 ,1.09741 ,4.49773 ,44.13173 
52 ,10.5160 ,1.09936 ,4.47035 ,43.86310 
53 ,10.7240 ,1.10136 ,4.47720 ,43.93026 
54 ,10.9162 ,1.10334 ,4.43613 ,43.52732 
55 ,11.1080 ,1.10531 ,4.42244 ,43.39301 
56 ,11.3000 ,1.10726 ,4.40533 ,43.22512 
57 ,11.5083 ,1.10926 ,4.38138 ,42.99007 
58 ,11.7160 ,1.11134 ,4.36427 ,42.82218 
59 ,11.9241 ,1.11337 ,4.34373 ,42.62071 
60 ,12.1161 ,1.11535 ,4.32662 ,42.45282 
61 ,12.3086 ,1.11726 ,4.31293 ,42.31850 
62 ,12.5166 ,1.11932 ,4.29240 ,42.11703 
63 ,12.7089 ,1.12128 ,4.28213 ,42.01630 
64 ,12.9007 ,1.12325 ,4.27871 ,41.98272 
65 ,13.1090 ,1.12517 ,4.24791 ,41.68051 
66 ,13.3010 ,1.12723 ,4.24107 ,41.61336 
67 ,13.4928 ,1.12915 ,4.20685 ,41.27758 
68 ,13.6851 ,1.13103 ,4.21369 ,41.34473 
69 ,13.8933 ,1.13312 ,4.16578 ,40.87464 
70 ,14.0856 ,1.13504 ,4.17262 ,40.94179 
71 ,14.2934 ,1.13714 ,4.13156 ,40.53885 
72 ,14.5016 ,1.13923 ,4.14183 ,40.63959 
73 ,14.6936 ,1.14111 ,4.11103 ,40.33738 
74 ,14.8854 ,1.14304 ,4.10760 ,40.30380 
75 ,15.0937 ,1.14514 ,4.06654 ,39.90087 
76 ,15.3014 ,1.14726 ,4.06312 ,39.86729 
77 ,15.4935 ,1.14918 ,4.02889 ,39.53150 
78 ,15.6856 ,1.15103 ,4.03232 ,39.56508 
79 ,15.8782 ,1.15301 ,4.00494 ,39.29646 
80 ,16.0863 ,1.15505 ,4.00152 ,39.26288 
81 ,16.2784 ,1.15699 ,3.96045 ,38.85994 
82 ,16.4864 ,1.15909 ,3.96045 ,38.85994 
83 ,16.6785 ,1.16099 ,3.93992 ,38.65847 
84 ,16.8864 ,1.16304 ,3.93307 ,38.59131 
85 ,17.0946 ,1.16510 ,3.89885 ,38.25553 
86 ,17.2868 ,1.16705 ,3.89543 ,38.22195 
87 ,17.4948 ,1.16912 ,3.86805 ,37.95332 
88 ,17.6869 ,1.17103 ,3.86805 ,37.95332 
89 ,17.8785 ,1.17297 ,3.83041 ,37.58396 
90 ,18.1030 ,1.17523 ,3.81672 ,37.44965 
91 ,18.3111 ,1.17730 ,3.80645 ,37.34891 
92 ,18.5191 ,1.17938 ,3.78592 ,37.14744 
93 ,18.7110 ,1.18128 ,3.76196 ,36.91240 
94 ,18.9033 ,1.18320 ,3.76539 ,36.94597 
95 ,19.0952 ,1.18511 ,3.72090 ,36.50946 
96 ,19.3034 ,1.18719 ,3.72090 ,36.50946 
97 ,19.4957 ,1.18909 ,3.69010 ,36.20725 
98 ,19.7036 ,1.19119 ,3.69352 ,36.24083 
99 ,19.8958 ,1.19311 ,3.66614 ,35.97220 
100 ,20.1036 ,1.19515 ,3.65588 ,35.87147 
101 ,20.3119 ,1.19729 ,3.63534 ,35.67000 
102 ,20.5037 ,1.19923 ,3.61481 ,35.46853 
103 ,20.7121 ,1.20117 ,3.58059 ,35.13275 
104 ,20.9200 ,1.20337 ,3.58059 ,35.13275 
105 ,21.1120 ,1.20528 ,3.55663 ,34.89770 
106 ,21.3203 ,1.20737 ,3.53952 ,34.72981 
107 ,21.5283 ,1.20944 ,3.53268 ,34.66265 
108 ,21.7204 ,1.21135 ,3.51215 ,34.46118 
109 ,21.9286 ,1.21340 ,3.49504 ,34.29329 
110 ,22.1204 ,1.21534 ,3.47792 ,34.12540 
111 ,22.3128 ,1.21726 ,3.44713 ,33.82319 
112 ,22.5050 ,1.21917 ,3.45055 ,33.85677 
113 ,22.7129 ,1.22127 ,3.41975 ,33.55457 
114 ,22.9051 ,1.22317 ,3.41290 ,33.48741 
115 ,23.1131 ,1.22531 ,3.39579 ,33.31952 
116 ,23.3208 ,1.22732 ,3.38553 ,33.21878 
117 ,23.5294 ,1.22938 ,3.36157 ,32.98374 
118 ,23.7374 ,1.23153 ,3.32393 ,32.61437 
119 ,23.9452 ,1.23362 ,3.33419 ,32.71511 
120 ,24.1372 ,1.23547 ,3.28971 ,32.27859 
121 ,24.3293 ,1.23742 ,3.28971 ,32.27859 
122 ,24.5217 ,1.23936 ,3.27259 ,32.11070 
123 ,24.7297 ,1.24133 ,3.25548 ,31.94281 
124 ,24.9378 ,1.24347 ,3.23495 ,31.74134 
125 ,25.1295 ,1.24539 ,3.22811 ,31.67418 
126 ,25.3217 ,1.24736 ,3.21100 ,31.50629 
127 ,25.5138 ,1.24927 ,3.19388 ,31.33840 
128 ,25.7062 ,1.25118 ,3.18704 ,31.27124 
129 ,25.9302 ,1.25332 ,3.15966 ,31.00262 
130 ,26.1221 ,1.25535 ,3.14597 ,30.86830 
131 ,26.3304 ,1.25738 ,3.14597 ,30.86830 
132 ,26.5225 ,1.25940 ,3.11860 ,30.59968 
133 ,26.7306 ,1.26141 ,3.11175 ,30.53252 
134 ,26.9226 ,1.26345 ,3.07069 ,30.12958 
135 ,27.1308 ,1.26532 ,3.06384 ,30.06242 
136 ,27.3227 ,1.26742 ,3.04331 ,29.86095 
137 ,27.5308 ,1.26939 ,3.03647 ,29.79380 
138 ,27.7227 ,1.27137 ,3.00567 ,29.49159 
139 ,27.9310 ,1.27342 ,3.01251 ,29.55875 
140 ,28.1228 ,1.27535 ,2.98171 ,29.25654 
141 ,28.3473 ,1.27758 ,2.97829 ,29.22297 
142 ,28.5712 ,1.27972 ,2.95091 ,28.95434 
143 ,28.7634 ,1.28179 ,2.93038 ,28.75287 
144 ,28.9713 ,1.28384 ,2.92696 ,28.71929 
145 ,29.1795 ,1.28588 ,2.88931 ,28.34993 
146 ,29.3712 ,1.28785 ,2.88589 ,28.31635 
147 ,29.5637 ,1.28975 ,2.87562 ,28.21562 
148 ,29.7557 ,1.29170 ,2.85167 ,27.98057 
149 ,29.9314 ,1.29355 ,2.85509 ,28.01415 
150 ,30.1239 ,1.29540 ,2.82429 ,27.71194 
151 ,30.3320 ,1.29741 ,2.81402 ,27.61121 
152 ,30.5239 ,1.29940 ,2.77980 ,27.27542 
153 ,30.7322 ,1.30145 ,2.78322 ,27.30900 
154 ,30.9404 ,1.30354 ,2.74216 ,26.90606 
155 ,31.1323 ,1.30545 ,2.75585 ,27.04038 
156 ,31.3243 ,1.30738 ,2.72505 ,26.73817 
157 ,31.5164 ,1.30929 ,2.71478 ,26.63744 
158 ,31.7086 ,1.31125 ,2.71136 ,26.60386 
159 ,31.9007 ,1.31316 ,2.67372 ,26.23450 
160 ,32.0926 ,1.31509 ,2.67372 ,26.23450 
161 ,32.3008 ,1.31705 ,2.64292 ,25.93229 
162 ,32.5085 ,1.31920 ,2.64292 ,25.93229 
163 ,32.7010 ,1.32113 ,2.61212 ,25.63009 
164 ,32.9089 ,1.32317 ,2.60527 ,25.56293 
165 ,33.1332 ,1.32550 ,2.59843 ,25.49577 
166 ,33.3414 ,1.32748 ,2.56763 ,25.19357 
167 ,33.5494 ,1.32966 ,2.55736 ,25.09283 
168 ,33.7572 ,1.33168 ,2.52998 ,24.82421 
169 ,33.9497 ,1.33365 ,2.53683 ,24.89136 
170 ,34.1416 ,1.33551 ,2.49576 ,24.48842 
171 ,34.3172 ,1.33741 ,2.51287 ,24.65632 
172 ,34.5098 ,1.33919 ,2.49576 ,24.48842 
173 ,34.7178 ,1.34132 ,2.45812 ,24.11906 
174 ,34.9258 ,1.34337 ,2.43759 ,23.91759 
175 ,35.1179 ,1.34525 ,2.43416 ,23.88402 
176 ,35.3102 ,1.34720 ,2.42732 ,23.81686 
177 ,35.5179 ,1.34926 ,2.40336 ,23.58181 
178 ,35.7260 ,1.35134 ,2.37599 ,23.31318 
179 ,35.9180 ,1.35324 ,2.37941 ,23.34676 
180 ,36.1103 ,1.35522 ,2.37256 ,23.27961 
181 ,36.3023 ,1.35714 ,2.33834 ,22.94382 
182 ,36.4942 ,1.35904 ,2.34177 ,22.97740 
183 ,36.6865 ,1.36095 ,2.31097 ,22.67520 
184 ,36.8948 ,1.36306 ,2.30754 ,22.64162 
185 ,37.0865 ,1.36497 ,2.27332 ,22.30584 
186 ,37.2788 ,1.36691 ,2.26990 ,22.27226 
187 ,37.4707 ,1.36881 ,2.25963 ,22.17152 
188 ,37.6630 ,1.37069 ,2.23910 ,21.97005 
189 ,37.8549 ,1.37262 ,2.24252 ,22.00363 
190 ,38.0471 ,1.37453 ,2.20146 ,21.60069 
191 ,38.2553 ,1.37665 ,2.20146 ,21.60069 
192 ,38.4471 ,1.37859 ,2.17750 ,21.36564 
193 ,38.6390 ,1.38048 ,2.16381 ,21.23133 
194 ,38.8315 ,1.38245 ,2.16039 ,21.19775 
195 ,39.0716 ,1.38463 ,2.13644 ,20.96270 
196 ,39.2637 ,1.38672 ,2.10906 ,20.69408 
197 ,39.4718 ,1.38883 ,2.10564 ,20.66050 
198 ,39.6794 ,1.39089 ,2.08852 ,20.49261 
199 ,39.8719 ,1.39280 ,2.08510 ,20.45903 
200 ,40.0641 ,1.39472 ,2.05773 ,20.19040 
201 ,40.2721 ,1.39682 ,2.06115 ,20.22398 
202 ,40.4802 ,1.39885 ,2.03719 ,19.98893 
203 ,40.6723 ,1.40083 ,2.01666 ,19.78746 
204 ,40.8639 ,1.40271 ,2.00639 ,19.68673 
205 ,41.0563 ,1.40463 ,1.99613 ,19.58599 
206 ,41.2647 ,1.40659 ,1.96875 ,19.31737 
207 ,41.4565 ,1.40865 ,1.96533 ,19.28379 
208 ,41.6487 ,1.41059 ,1.95164 ,19.14948 
209 ,41.8568 ,1.41263 ,1.95164 ,19.14948 
210 ,42.0649 ,1.41463 ,1.91742 ,18.81369 
211 ,42.2726 ,1.41680 ,1.90373 ,18.67938 
212 ,42.4649 ,1.41876 ,1.89004 ,18.54507 
213 ,42.6569 ,1.42067 ,1.87635 ,18.41075 
214 ,42.8807 ,1.42291 ,1.85924 ,18.24286 
215 ,43.0729 ,1.42478 ,1.84897 ,18.14213 
216 ,43.2812 ,1.42689 ,1.83528 ,18.00781 
217 ,43.4893 ,1.42887 ,1.83186 ,17.97423 
218 ,43.6817 ,1.43091 ,1.80449 ,17.70561 
219 ,43.9055 ,1.43308 ,1.78395 ,17.50414 
220 ,44.1133 ,1.43520 ,1.78395 ,17.50414 
221 ,44.3218 ,1.43721 ,1.74289 ,17.10120 
222 ,44.5298 ,1.43935 ,1.73946 ,17.06762 
223 ,44.7220 ,1.44129 ,1.74973 ,17.16836 
224 ,44.9300 ,1.44336 ,1.71551 ,16.83257 
225 ,45.1221 ,1.44530 ,1.70866 ,16.76542 
226 ,45.3140 ,1.44724 ,1.67444 ,16.42963 
227 ,45.5218 ,1.44928 ,1.67786 ,16.46321 
228 ,45.7143 ,1.45120 ,1.66760 ,16.36248 
229 ,45.9065 ,1.45314 ,1.64022 ,16.09385 
230 ,46.0984 ,1.45503 ,1.64364 ,16.12743 
231 ,46.3221 ,1.45716 ,1.61627 ,15.85880 
232 ,46.5146 ,1.45920 ,1.60600 ,15.75807 
233 ,46.7066 ,1.46111 ,1.59231 ,15.62375 
234 ,46.8986 ,1.46304 ,1.58204 ,15.52302 
235 ,47.1065 ,1.46509 ,1.54782 ,15.18724 
236 ,47.2989 ,1.46702 ,1.55467 ,15.25439 
237 ,47.5068 ,1.46917 ,1.51702 ,14.88503 
238 ,47.7151 ,1.47120 ,1.52045 ,14.91861 
239 ,47.9070 ,1.47312 ,1.49307 ,14.64998 
240 ,48.1474 ,1.47554 ,1.47938 ,14.51567 
241 ,48.3554 ,1.47761 ,1.48622 ,14.58283 
242 ,48.5314 ,1.47948 ,1.45885 ,14.31420 
243 ,48.7235 ,1.48130 ,1.45542 ,14.28062 
244 ,48.9316 ,1.48331 ,1.43147 ,14.04557 
245 ,49.1236 ,1.48528 ,1.44174 ,14.14631 
246 ,49.3156 ,1.48722 ,1.40409 ,13.77695 
247 ,49.5077 ,1.48911 ,1.38698 ,13.60906 
248 ,49.7160 ,1.49121 ,1.38356 ,13.57548 
249 ,49.9241 ,1.49331 ,1.37671 ,13.50832 
250 ,50.1322 ,1.49541 ,1.33907 ,13.13896 
251 ,50.3241 ,1.49732 ,1.34591 ,13.20612 
252 ,50.5162 ,1.49923 ,1.32538 ,13.00465 
253 ,50.6922 ,1.50111 ,1.30827 ,12.83675 
254 ,50.8845 ,1.50289 ,1.31169 ,12.87033 
255 ,51.0766 ,1.50481 ,1.27747 ,12.53455 
256 ,51.2846 ,1.50687 ,1.28432 ,12.60171 
257 ,51.4927 ,1.50898 ,1.25009 ,12.26592 
258 ,51.6844 ,1.51089 ,1.26378 ,12.40024 
259 ,51.8768 ,1.51281 ,1.23298 ,12.09803 
260 ,52.0849 ,1.51490 ,1.23298 ,12.09803 
261 ,52.2769 ,1.51681 ,1.20903 ,11.86298 
262 ,52.4689 ,1.51873 ,1.18850 ,11.66151 
263 ,52.6771 ,1.52078 ,1.17138 ,11.49362 
264 ,52.8691 ,1.52271 ,1.17138 ,11.49362 
265 ,53.0770 ,1.52473 ,1.16112 ,11.39289 
266 ,53.2850 ,1.52688 ,1.15427 ,11.32573 
267 ,53.4774 ,1.52885 ,1.12690 ,11.05710 
268 ,53.6694 ,1.53073 ,1.12347 ,11.02353 
269 ,53.8615 ,1.53266 ,1.09952 ,10.78848 
270 ,54.0694 ,1.53469 ,1.09610 ,10.75490 
271 ,54.2776 ,1.53679 ,1.08583 ,10.65416 
272 ,54.4697 ,1.53873 ,1.05845 ,10.38554 
273 ,54.6779 ,1.54083 ,1.04476 ,10.25123 
274 ,54.8701 ,1.54269 ,1.04134 ,10.21765 
275 ,55.0620 ,1.54478 ,1.02081 ,10.01618 
276 ,55.2544 ,1.54658 ,1.00712 ,9.88186 
277 ,55.4782 ,1.54870 ,1.01396 ,9.94902 
278 ,55.6704 ,1.55072 ,0.99343 ,9.74755 
279 ,55.8785 ,1.55281 ,0.97632 ,9.57966 
280 ,56.0701 ,1.55473 ,0.97290 ,9.54608 
281 ,56.2629 ,1.55664 ,0.93868 ,9.21030 
282 ,56.4707 ,1.55872 ,0.94210 ,9.24388 
283 ,56.6623 ,1.56065 ,0.92841 ,9.10956 
284 ,56.8551 ,1.56257 ,0.90446 ,8.87451 
285 ,57.0791 ,1.56476 ,0.90446 ,8.87451 
286 ,57.3029 ,1.56695 ,0.89077 ,8.74020 
287 ,57.5112 ,1.56910 ,0.87366 ,8.57231 
288 ,57.7193 ,1.57120 ,0.85654 ,8.40442 
289 ,57.9113 ,1.57314 ,0.85997 ,8.43800 
290 ,58.1190 ,1.57524 ,0.83259 ,8.16937 
291 ,58.3113 ,1.57710 ,0.82232 ,8.06864 
292 ,58.5194 ,1.57904 ,0.81890 ,8.03506 
293 ,58.7115 ,1.58116 ,0.80863 ,7.93432 
294 ,58.9037 ,1.58315 ,0.77099 ,7.56496 
295 ,59.0957 ,1.58500 ,0.76415 ,7.49780 
296 ,59.2875 ,1.58690 ,0.77099 ,7.56496 
297 ,59.4800 ,1.58887 ,0.74361 ,7.29633 
298 ,59.6881 ,1.59092 ,0.75388 ,7.39707 
299 ,59.8962 ,1.59296 ,0.71966 ,7.06129 
300 ,60.1038 ,1.59493 ,0.72308 ,7.09486 
301 ,60.2964 ,1.59696 ,0.68544 ,6.72550 
302 ,60.4724 ,1.59887 ,0.70255 ,6.89340 
303 ,60.6645 ,1.60063 ,0.68886 ,6.75908 
304 ,60.8563 ,1.60257 ,0.65464 ,6.42330 
305 ,61.0484 ,1.60449 ,0.66148 ,6.49046 
306 ,61.2407 ,1.60639 ,0.63068 ,6.18825 
307 ,61.4646 ,1.60862 ,0.62384 ,6.12109 
308 ,61.6730 ,1.61073 ,0.61699 ,6.05394 
309 ,61.8808 ,1.61280 ,0.59988 ,5.88605 
310 ,62.1210 ,1.61506 ,0.59988 ,5.88605 
311 ,62.3292 ,1.61730 ,0.59304 ,5.81889 
312 ,62.5372 ,1.61936 ,0.55539 ,5.44953 
313 ,62.7616 ,1.62149 ,0.55197 ,5.41595 
314 ,62.9532 ,1.62366 ,0.54171 ,5.31522 
315 ,63.1617 ,1.62548 ,0.52802 ,5.18090 
316 ,63.3535 ,1.62765 ,0.53144 ,5.21448 
317 ,63.5457 ,1.62943 ,0.50748 ,4.97943 
318 ,63.7215 ,1.63133 ,0.49037 ,4.81154 
319 ,63.9138 ,1.63312 ,0.48695 ,4.77796 
320 ,64.1056 ,1.63497 ,0.47668 ,4.67723 
321 ,64.3138 ,1.63714 ,0.47668 ,4.67723 
322 ,64.5058 ,1.63899 ,0.45957 ,4.50934 
323 ,64.6981 ,1.64093 ,0.43904 ,4.30787 
324 ,64.8900 ,1.64294 ,0.43904 ,4.30787 
325 ,65.0983 ,1.64498 ,0.41509 ,4.07282 
326 ,65.2905 ,1.64695 ,0.41851 ,4.10640 
327 ,65.4984 ,1.64901 ,0.39455 ,3.87135 
328 ,65.6907 ,1.65089 ,0.40482 ,3.97208 
329 ,65.8823 ,1.65293 ,0.36718 ,3.60272 
330 ,66.0908 ,1.65479 ,0.37402 ,3.66988 
331 ,66.2988 ,1.65699 ,0.35006 ,3.43483 
332 ,66.4909 ,1.65892 ,0.34664 ,3.40125 
333 ,66.6829 ,1.66077 ,0.32269 ,3.16620 
334 ,66.8751 ,1.66271 ,0.32269 ,3.16620 
335 ,67.0831 ,1.66481 ,0.31242 ,3.06547 
336 ,67.2913 ,1.66688 ,0.30558 ,2.99831 
337 ,67.4833 ,1.66883 ,0.27478 ,2.69611 
338 ,67.6910 ,1.67087 ,0.28162 ,2.76326 
339 ,67.8831 ,1.67278 ,0.25767 ,2.52822 
340 ,68.0753 ,1.67469 ,0.26109 ,2.56179 
341 ,68.2675 ,1.67664 ,0.25424 ,2.49464 
342 ,68.4758 ,1.67864 ,0.24055 ,2.36032 
343 ,68.6838 ,1.68085 ,0.20976 ,2.05812 
344 ,68.8920 ,1.68287 ,0.22344 ,2.19243 
345 ,69.0837 ,1.68483 ,0.19607 ,1.92381 
346 ,69.2919 ,1.68692 ,0.20291 ,1.99096 
347 ,69.4999 ,1.68899 ,0.16527 ,1.62160 
348 ,69.6923 ,1.69093 ,0.16869 ,1.65518 
349 ,69.9001 ,1.69301 ,0.14131 ,1.38655 
350 ,70.1082 ,1.69501 ,0.13789 ,1.35298 
351 ,70.3006 ,1.69696 ,0.12078 ,1.18508 
352 ,70.5404 ,1.69938 ,0.12420 ,1.21866 
353 ,70.7327 ,1.70129 ,0.12420 ,1.21866 
354 ,70.9408 ,1.70334 ,0.10709 ,1.05077 
355 ,71.1329 ,1.70528 ,0.10025 ,0.98361 
356 ,71.3244 ,1.70721 ,0.07287 ,0.71499 
357 ,71.5168 ,1.70912 ,0.07971 ,0.78214 
358 ,71.7251 ,1.71123 ,0.04891 ,0.47994 
359 ,71.9329 ,1.71331 ,0.05234 ,0.51352 
360 ,72.1410 ,1.71532 ,0.03522 ,0.34563 
361 ,72.3334 ,1.71726 ,0.04207 ,0.41278 
362 ,72.5255 ,1.71919 ,0.00785 ,0.07700 
363 ,72.7335 ,1.72132 ,0.01127 ,0.11058 
364 ,72.9255 ,1.72322 ,-0.00584 ,-0.05731 
365 ,73.1174 ,1.72513 ,-0.00584 ,-0.05731 
366 ,73.3095 ,1.72709 ,-0.02295 ,-0.22520 
367 ,73.5013 ,1.72897 ,-0.03664 ,-0.35952 
368 ,73.6939 ,1.73094 ,-0.04006 ,-0.39310 
369 ,73.9019 ,1.73299 ,-0.04348 ,-0.42667 
370 ,74.0940 ,1.73487 ,-0.05717 ,-0.56099 
371 ,74.3180 ,1.73701 ,-0.07771 ,-0.76246 
372 ,74.5100 ,1.73902 ,-0.09140 ,-0.89677 
373 ,74.7344 ,1.74128 ,-0.08455 ,-0.82961 
374 ,74.9458 ,1.74332 ,-0.10851 ,-1.06466 
375 ,75.1663 ,1.74558 ,-0.12219 ,-1.19898 
376 ,75.3425 ,1.74752 ,-0.11877 ,-1.16540 
377 ,75.5346 ,1.74929 ,-0.13588 ,-1.33329 
378 ,75.7261 ,1.75121 ,-0.15984 ,-1.56834 
379 ,75.9341 ,1.75324 ,-0.15642 ,-1.53476 
380 ,76.1262 ,1.75523 ,-0.16668 ,-1.63549 
381 ,76.3344 ,1.75721 ,-0.16668 ,-1.63549 
382 ,76.5266 ,1.75917 ,-0.19748 ,-1.93770 
383 ,76.7026 ,1.76109 ,-0.19406 ,-1.90412 
384 ,76.9108 ,1.76297 ,-0.19748 ,-1.93770 
385 ,77.1028 ,1.76498 ,-0.22144 ,-2.17275 
386 ,77.2949 ,1.76688 ,-0.21459 ,-2.10559 
387 ,77.4870 ,1.76883 ,-0.24881 ,-2.44137 
388 ,77.6790 ,1.77073 ,-0.24197 ,-2.37422 
389 ,77.8710 ,1.77264 ,-0.25908 ,-2.54211 
390 ,78.0631 ,1.77455 ,-0.26250 ,-2.57569 
391 ,78.2552 ,1.77644 ,-0.27277 ,-2.67642 
392 ,78.4313 ,1.77838 ,-0.29673 ,-2.91147 
393 ,78.6234 ,1.78016 ,-0.29330 ,-2.87789 
394 ,78.8154 ,1.78205 ,-0.28988 ,-2.84431 
395 ,79.0074 ,1.78396 ,-0.31384 ,-3.07936 
396 ,79.1996 ,1.78593 ,-0.31726 ,-3.11294 
397 ,79.3917 ,1.78785 ,-0.33095 ,-3.24725 
398 ,79.5838 ,1.78973 ,-0.34806 ,-3.41514 
399 ,79.7757 ,1.79170 ,-0.33779 ,-3.31441 
400 ,79.9519 ,1.79357 ,-0.36517 ,-3.58303 
401 ,80.1279 ,1.79532 ,-0.37201 ,-3.65019 
402 ,80.3202 ,1.79715 ,-0.35490 ,-3.48230 
403 ,80.5285 ,1.79922 ,-0.38228 ,-3.75093 
404 ,80.7204 ,1.80116 ,-0.39597 ,-3.88524 
405 ,80.9287 ,1.80317 ,-0.40966 ,-4.01955 
406 ,81.1203 ,1.80512 ,-0.40281 ,-3.95240 
407 ,81.3128 ,1.80706 ,-0.43019 ,-4.22102 
408 ,81.5207 ,1.80913 ,-0.43019 ,-4.22102 
409 ,81.7128 ,1.81104 ,-0.44046 ,-4.32176 
410 ,81.9052 ,1.81295 ,-0.45757 ,-4.48965 
411 ,82.1131 ,1.81509 ,-0.47126 ,-4.62396 
412 ,82.3051 ,1.81693 ,-0.47810 ,-4.69112 
413 ,82.4973 ,1.81890 ,-0.46783 ,-4.59038 
414 ,82.7054 ,1.82097 ,-0.50206 ,-4.92617 
415 ,82.8976 ,1.82286 ,-0.48494 ,-4.75828 
416 ,83.1054 ,1.82498 ,-0.50548 ,-4.95975 
417 ,83.2972 ,1.82686 ,-0.50206 ,-4.92617 
418 ,83.5217 ,1.82894 ,-0.52943 ,-5.19479 
419 ,83.7299 ,1.83122 ,-0.54312 ,-5.32911 
420 ,83.9219 ,1.83315 ,-0.54312 ,-5.32911 
421 ,84.1140 ,1.83509 ,-0.57050 ,-5.59773 
422 ,84.3061 ,1.83696 ,-0.57734 ,-5.66489 
423 ,84.4980 ,1.83893 ,-0.56365 ,-5.53058 
424 ,84.6902 ,1.84092 ,-0.59103 ,-5.79920 
425 ,84.8823 ,1.84276 ,-0.58761 ,-5.76562 
426 ,85.0743 ,1.84464 ,-0.60130 ,-5.89994 
427 ,85.2663 ,1.84653 ,-0.62183 ,-6.10141 
428 ,85.4582 ,1.84849 ,-0.61499 ,-6.03425 
429 ,85.6826 ,1.85057 ,-0.63552 ,-6.23572 
430 ,85.8748 ,1.85267 ,-0.64579 ,-6.33646 
431 ,86.0987 ,1.85478 ,-0.65605 ,-6.43719 
432 ,86.2910 ,1.85681 ,-0.66974 ,-6.57150 
433 ,86.4828 ,1.85873 ,-0.66290 ,-6.50435 
434 ,86.6911 ,1.86085 ,-0.68685 ,-6.73940 
435 ,86.8994 ,1.86293 ,-0.69370 ,-6.80655 
436 ,87.1234 ,1.86499 ,-0.71081 ,-6.97444 
437 ,87.3315 ,1.86720 ,-0.71423 ,-7.00802 
438 ,87.5395 ,1.86927 ,-0.71081 ,-6.97444 
439 ,87.7474 ,1.87131 ,-0.72450 ,-7.10876 
440 ,87.9556 ,1.87350 ,-0.73818 ,-7.24307 
441 ,88.1478 ,1.87535 ,-0.74161 ,-7.27665 
442 ,88.3555 ,1.87749 ,-0.75872 ,-7.44454 
443 ,88.5640 ,1.87940 ,-0.77583 ,-7.61243 
444 ,88.7555 ,1.88147 ,-0.76898 ,-7.54527 
445 ,88.9478 ,1.88335 ,-0.78610 ,-7.71317 
446 ,89.1401 ,1.88528 ,-0.77925 ,-7.64601 
447 ,89.3323 ,1.88726 ,-0.81347 ,-7.98179 
448 ,89.5403 ,1.88918 ,-0.79294 ,-7.78032 
449 ,89.7482 ,1.89135 ,-0.82032 ,-8.04895 
450 ,89.9241 ,1.89325 ,-0.81689 ,-8.01537 
451 ,90.1326 ,1.89513 ,-0.84427 ,-8.28400 
452 ,90.3562 ,1.89737 ,-0.84427 ,-8.28400 
453 ,90.5649 ,1.89943 ,-0.86823 ,-8.51904 
454 ,90.7728 ,1.90163 ,-0.87507 ,-8.58620 
455 ,90.9647 ,1.90351 ,-0.86138 ,-8.45189 
456 ,91.1729 ,1.90559 ,-0.89560 ,-8.78767 
457 ,91.3646 ,1.90752 ,-0.87849 ,-8.61978 
458 ,91.5571 ,1.90941 ,-0.89560 ,-8.78767 
459 ,91.7651 ,1.91153 ,-0.89903 ,-8.82125 
460 ,91.9571 ,1.91345 ,-0.91272 ,-8.95556 
461 ,92.1493 ,1.91537 ,-0.92640 ,-9.08988 
462 ,92.3414 ,1.91728 ,-0.91956 ,-9.02272 
463 ,92.5495 ,1.91937 ,-0.95720 ,-9.39208 
