Data stamp = , 02-05-2022 10:11:48 153

Calibration Values: 
Slope = , 26.54 , g/V 
Offset Voltage at no contact = , -0.501760 , V 

No , Time , Stage Position ,   Mass , Force 
   ,  (s) ,      (mm)      ,   (g)  , (mN)  

1 ,0.0000 ,0.99945 ,5.37381 ,52.72778 
2 ,0.2115 ,0.99952 ,5.35327 ,52.52631 
3 ,0.7721 ,1.00175 ,5.36696 ,52.66062 
4 ,0.9803 ,1.00396 ,5.35669 ,52.55988 
5 ,1.2043 ,1.00609 ,5.34985 ,52.49273 
6 ,1.3961 ,1.00807 ,5.36354 ,52.62704 
7 ,1.6686 ,1.01067 ,5.32932 ,52.29126 
8 ,1.8766 ,1.01291 ,5.31563 ,52.15694 
9 ,2.0688 ,1.01491 ,5.28141 ,51.82116 
10 ,2.2607 ,1.01691 ,5.27456 ,51.75401 
11 ,2.4688 ,1.01890 ,5.23692 ,51.38464 
12 ,2.6610 ,1.02077 ,5.23007 ,51.31749 
13 ,2.8850 ,1.02299 ,5.19585 ,50.98170 
14 ,3.0771 ,1.02492 ,5.19243 ,50.94813 
15 ,3.2692 ,1.02688 ,5.15821 ,50.61234 
16 ,3.4612 ,1.02877 ,5.15136 ,50.54519 
17 ,3.6529 ,1.03070 ,5.13768 ,50.41087 
18 ,3.8452 ,1.03262 ,5.10003 ,50.04151 
19 ,4.0535 ,1.03472 ,5.10345 ,50.07509 
20 ,4.2455 ,1.03661 ,5.06239 ,49.67215 
21 ,4.4856 ,1.03873 ,5.06239 ,49.67215 
22 ,4.6778 ,1.04096 ,5.04185 ,49.47068 
23 ,4.8694 ,1.04297 ,5.00763 ,49.13490 
24 ,5.0619 ,1.04478 ,4.98368 ,48.89985 
25 ,5.2540 ,1.04667 ,4.97683 ,48.83269 
26 ,5.4620 ,1.04878 ,4.95630 ,48.63122 
27 ,5.6541 ,1.05069 ,4.94946 ,48.56407 
28 ,5.8458 ,1.05263 ,4.91181 ,48.19471 
29 ,6.0383 ,1.05459 ,4.91523 ,48.22828 
30 ,6.2464 ,1.05667 ,4.87759 ,47.85892 
31 ,6.4545 ,1.05867 ,4.86732 ,47.75819 
32 ,6.6622 ,1.06085 ,4.83652 ,47.45598 
33 ,6.8544 ,1.06269 ,4.83310 ,47.42240 
34 ,7.0788 ,1.06482 ,4.78861 ,46.98589 
35 ,7.2867 ,1.06703 ,4.78177 ,46.91873 
36 ,7.4786 ,1.06896 ,4.77835 ,46.88515 
37 ,7.6870 ,1.07092 ,4.75782 ,46.68368 
38 ,7.8790 ,1.07295 ,4.74070 ,46.51579 
39 ,8.0870 ,1.07501 ,4.70648 ,46.18001 
40 ,8.2952 ,1.07705 ,4.70990 ,46.21359 
41 ,8.5030 ,1.07917 ,4.66884 ,45.81065 
42 ,8.6951 ,1.08107 ,4.66199 ,45.74349 
43 ,8.9032 ,1.08310 ,4.63804 ,45.50844 
44 ,9.0952 ,1.08512 ,4.62435 ,45.37413 
45 ,9.3035 ,1.08715 ,4.58671 ,45.00477 
46 ,9.5118 ,1.08929 ,4.58671 ,45.00477 
47 ,9.7195 ,1.09136 ,4.57302 ,44.87045 
48 ,9.9117 ,1.09327 ,4.54564 ,44.60183 
49 ,10.1036 ,1.09515 ,4.52853 ,44.43394 
50 ,10.2799 ,1.09706 ,4.51484 ,44.29962 
51 ,10.4717 ,1.09884 ,4.50457 ,44.19889 
52 ,10.6801 ,1.10080 ,4.47378 ,43.89668 
53 ,10.8722 ,1.10289 ,4.45324 ,43.69521 
54 ,11.0803 ,1.10496 ,4.43613 ,43.52732 
55 ,11.2723 ,1.10688 ,4.41902 ,43.35943 
56 ,11.4805 ,1.10894 ,4.41218 ,43.29227 
57 ,11.6882 ,1.11102 ,4.38480 ,43.02365 
58 ,11.8801 ,1.11298 ,4.37453 ,42.92291 
59 ,12.0723 ,1.11483 ,4.36769 ,42.85576 
60 ,12.2965 ,1.11711 ,4.34031 ,42.58713 
61 ,12.4888 ,1.11916 ,4.30267 ,42.21777 
62 ,12.6810 ,1.12093 ,4.29240 ,42.11703 
63 ,12.8729 ,1.12284 ,4.28556 ,42.04988 
64 ,13.0812 ,1.12493 ,4.26845 ,41.88198 
65 ,13.2730 ,1.12684 ,4.25476 ,41.74767 
66 ,13.4649 ,1.12878 ,4.22396 ,41.44547 
67 ,13.6569 ,1.13076 ,4.22053 ,41.41189 
68 ,13.8489 ,1.13271 ,4.18289 ,41.04253 
69 ,14.0570 ,1.13472 ,4.18289 ,41.04253 
70 ,14.2650 ,1.13675 ,4.15894 ,40.80748 
71 ,14.4735 ,1.13889 ,4.14867 ,40.70674 
72 ,14.6976 ,1.14112 ,4.11787 ,40.40454 
73 ,14.9058 ,1.14319 ,4.09734 ,40.20307 
74 ,15.0979 ,1.14510 ,4.09049 ,40.13591 
75 ,15.2899 ,1.14711 ,4.06312 ,39.86729 
76 ,15.4820 ,1.14899 ,4.05285 ,39.76655 
77 ,15.6739 ,1.15083 ,4.04258 ,39.66582 
78 ,15.8980 ,1.15301 ,4.00152 ,39.26288 
79 ,16.1221 ,1.15526 ,3.99467 ,39.19572 
80 ,16.3143 ,1.15723 ,3.99125 ,39.16214 
81 ,16.5223 ,1.15937 ,3.96387 ,38.89352 
82 ,16.7147 ,1.16128 ,3.94676 ,38.72562 
83 ,16.9226 ,1.16330 ,3.91596 ,38.42342 
84 ,17.1148 ,1.16529 ,3.91596 ,38.42342 
85 ,17.3229 ,1.16734 ,3.89543 ,38.22195 
86 ,17.5150 ,1.16928 ,3.88174 ,38.08764 
87 ,17.7070 ,1.17118 ,3.84752 ,37.75185 
88 ,17.8987 ,1.17311 ,3.84410 ,37.71828 
89 ,18.1072 ,1.17517 ,3.82014 ,37.48323 
90 ,18.3153 ,1.17724 ,3.80987 ,37.38249 
91 ,18.5233 ,1.17938 ,3.77908 ,37.08029 
92 ,18.7155 ,1.18129 ,3.78592 ,37.14744 
93 ,18.9395 ,1.18340 ,3.74143 ,36.71093 
94 ,19.1317 ,1.18544 ,3.73459 ,36.64377 
95 ,19.3557 ,1.18760 ,3.72432 ,36.54303 
96 ,19.5636 ,1.18966 ,3.69352 ,36.24083 
97 ,19.7715 ,1.19179 ,3.68325 ,36.14010 
98 ,19.9636 ,1.19372 ,3.65588 ,35.87147 
99 ,20.1716 ,1.19579 ,3.65588 ,35.87147 
100 ,20.3639 ,1.19775 ,3.62166 ,35.53569 
101 ,20.5559 ,1.19967 ,3.63192 ,35.63642 
102 ,20.7642 ,1.20177 ,3.58401 ,35.16632 
103 ,20.9723 ,1.20380 ,3.58743 ,35.19990 
104 ,21.1800 ,1.20594 ,3.56348 ,34.96485 
105 ,21.3886 ,1.20799 ,3.53268 ,34.66265 
106 ,21.5966 ,1.21005 ,3.53268 ,34.66265 
107 ,21.7885 ,1.21200 ,3.49846 ,34.32687 
108 ,21.9807 ,1.21393 ,3.48819 ,34.22613 
109 ,22.1727 ,1.21585 ,3.47792 ,34.12540 
110 ,22.3643 ,1.21776 ,3.45739 ,33.92393 
111 ,22.5569 ,1.21962 ,3.44028 ,33.75604 
112 ,22.7966 ,1.22190 ,3.40948 ,33.45383 
113 ,22.9893 ,1.22397 ,3.41975 ,33.55457 
114 ,23.1971 ,1.22608 ,3.38553 ,33.21878 
115 ,23.3889 ,1.22808 ,3.37184 ,33.08447 
116 ,23.5813 ,1.22997 ,3.34788 ,32.84942 
117 ,23.7895 ,1.23198 ,3.35473 ,32.91658 
118 ,23.9814 ,1.23395 ,3.32051 ,32.58080 
119 ,24.1735 ,1.23585 ,3.32051 ,32.58080 
120 ,24.3651 ,1.23774 ,3.28971 ,32.27859 
121 ,24.5731 ,1.23981 ,3.27602 ,32.14428 
122 ,24.7652 ,1.24176 ,3.26233 ,32.00996 
123 ,24.9577 ,1.24375 ,3.25548 ,31.94281 
124 ,25.1978 ,1.24608 ,3.22468 ,31.64060 
125 ,25.4061 ,1.24809 ,3.20757 ,31.47271 
126 ,25.6298 ,1.25034 ,3.19388 ,31.33840 
127 ,25.8383 ,1.25246 ,3.16993 ,31.10335 
128 ,26.0463 ,1.25452 ,3.14255 ,30.83472 
129 ,26.2379 ,1.25646 ,3.13229 ,30.73399 
130 ,26.4307 ,1.25840 ,3.13913 ,30.80115 
131 ,26.6227 ,1.26030 ,3.10149 ,30.43178 
132 ,26.8307 ,1.26236 ,3.10833 ,30.49894 
133 ,27.0229 ,1.26430 ,3.07753 ,30.19674 
134 ,27.2308 ,1.26638 ,3.07753 ,30.19674 
135 ,27.4228 ,1.26829 ,3.04331 ,29.86095 
136 ,27.6471 ,1.27043 ,3.04331 ,29.86095 
137 ,27.8388 ,1.27249 ,3.02278 ,29.65948 
138 ,28.0472 ,1.27449 ,2.99540 ,29.39086 
139 ,28.2550 ,1.27663 ,2.98171 ,29.25654 
140 ,28.4473 ,1.27855 ,2.96802 ,29.12223 
141 ,28.6552 ,1.28062 ,2.95433 ,28.98792 
142 ,28.8475 ,1.28253 ,2.92696 ,28.71929 
143 ,29.0392 ,1.28459 ,2.90642 ,28.51782 
144 ,29.2317 ,1.28637 ,2.90985 ,28.55140 
145 ,29.4399 ,1.28846 ,2.85851 ,28.04772 
146 ,29.6478 ,1.29043 ,2.87562 ,28.21562 
147 ,29.8559 ,1.29259 ,2.85851 ,28.04772 
148 ,30.0476 ,1.29453 ,2.83798 ,27.84625 
149 ,30.2401 ,1.29650 ,2.80718 ,27.54405 
150 ,30.4641 ,1.29862 ,2.80376 ,27.51047 
151 ,30.6722 ,1.30084 ,2.80034 ,27.47689 
152 ,30.8643 ,1.30272 ,2.76611 ,27.14111 
153 ,31.0721 ,1.30476 ,2.75927 ,27.07395 
154 ,31.2641 ,1.30664 ,2.72505 ,26.73817 
155 ,31.4726 ,1.30877 ,2.73874 ,26.87248 
156 ,31.6967 ,1.31106 ,2.70452 ,26.53670 
157 ,31.8727 ,1.31291 ,2.68398 ,26.33523 
158 ,32.0648 ,1.31469 ,2.67714 ,26.26807 
159 ,32.2724 ,1.31670 ,2.66687 ,26.16734 
160 ,32.4648 ,1.31871 ,2.64634 ,25.96587 
161 ,32.6731 ,1.32081 ,2.62923 ,25.79798 
162 ,32.8652 ,1.32275 ,2.60185 ,25.52935 
163 ,33.0412 ,1.32458 ,2.60869 ,25.59651 
164 ,33.2330 ,1.32642 ,2.59158 ,25.42862 
165 ,33.4415 ,1.32849 ,2.56078 ,25.12641 
166 ,33.6494 ,1.33059 ,2.55394 ,25.05926 
167 ,33.8416 ,1.33250 ,2.51972 ,24.72347 
168 ,34.0493 ,1.33455 ,2.51972 ,24.72347 
169 ,34.2418 ,1.33646 ,2.50261 ,24.55558 
170 ,34.4493 ,1.33855 ,2.50261 ,24.55558 
171 ,34.6579 ,1.34054 ,2.47523 ,24.28696 
172 ,34.8658 ,1.34276 ,2.46154 ,24.15264 
173 ,35.0581 ,1.34467 ,2.44101 ,23.95117 
174 ,35.2662 ,1.34669 ,2.43074 ,23.85044 
175 ,35.4583 ,1.34863 ,2.41363 ,23.68255 
176 ,35.6664 ,1.35072 ,2.39994 ,23.54823 
177 ,35.8741 ,1.35276 ,2.38625 ,23.41392 
178 ,36.0662 ,1.35468 ,2.35888 ,23.14529 
179 ,36.2907 ,1.35684 ,2.35888 ,23.14529 
180 ,36.4827 ,1.35888 ,2.33150 ,22.87667 
181 ,36.6745 ,1.36089 ,2.32465 ,22.80951 
182 ,36.8669 ,1.36271 ,2.31781 ,22.74235 
183 ,37.0590 ,1.36461 ,2.30754 ,22.64162 
184 ,37.2669 ,1.36672 ,2.27674 ,22.33941 
185 ,37.4591 ,1.36867 ,2.27332 ,22.30584 
186 ,37.6668 ,1.37071 ,2.26306 ,22.20510 
187 ,37.8593 ,1.37267 ,2.23568 ,21.93647 
188 ,38.0674 ,1.37474 ,2.21857 ,21.76858 
189 ,38.2590 ,1.37668 ,2.19461 ,21.53353 
190 ,38.4515 ,1.37853 ,2.20146 ,21.60069 
191 ,38.6595 ,1.38067 ,2.17066 ,21.29849 
192 ,38.8515 ,1.38256 ,2.16381 ,21.23133 
193 ,39.0595 ,1.38466 ,2.13986 ,20.99628 
194 ,39.2519 ,1.38657 ,2.13301 ,20.92912 
195 ,39.4437 ,1.38848 ,2.11590 ,20.76123 
196 ,39.6359 ,1.39038 ,2.10906 ,20.69408 
197 ,39.8276 ,1.39232 ,2.10564 ,20.66050 
198 ,40.0201 ,1.39427 ,2.06115 ,20.22398 
199 ,40.2283 ,1.39634 ,2.07141 ,20.32472 
200 ,40.4363 ,1.39838 ,2.02693 ,19.88820 
201 ,40.6603 ,1.40051 ,2.04061 ,20.02251 
202 ,40.8682 ,1.40268 ,2.02350 ,19.85462 
203 ,41.0605 ,1.40465 ,1.98928 ,19.51884 
204 ,41.2682 ,1.40666 ,1.99613 ,19.58599 
205 ,41.4603 ,1.40864 ,1.96533 ,19.28379 
206 ,41.6528 ,1.41058 ,1.96875 ,19.31737 
207 ,41.8605 ,1.41262 ,1.93453 ,18.98158 
208 ,42.0525 ,1.41451 ,1.93453 ,18.98158 
209 ,42.2608 ,1.41660 ,1.90715 ,18.71296 
210 ,42.4690 ,1.41874 ,1.90715 ,18.71296 
211 ,42.6611 ,1.42064 ,1.87977 ,18.44433 
212 ,42.8692 ,1.42269 ,1.87293 ,18.37717 
213 ,43.0773 ,1.42476 ,1.85582 ,18.20928 
214 ,43.2693 ,1.42674 ,1.83871 ,18.04139 
215 ,43.4775 ,1.42883 ,1.82844 ,17.94066 
216 ,43.6695 ,1.43074 ,1.82502 ,17.90708 
217 ,43.8617 ,1.43263 ,1.79080 ,17.57129 
218 ,44.0697 ,1.43463 ,1.79422 ,17.60487 
219 ,44.2774 ,1.43680 ,1.78053 ,17.47056 
220 ,44.5020 ,1.43887 ,1.76342 ,17.30267 
221 ,44.7101 ,1.44111 ,1.74631 ,17.13478 
222 ,44.9181 ,1.44317 ,1.71551 ,16.83257 
223 ,45.1262 ,1.44527 ,1.70182 ,16.69826 
224 ,45.3183 ,1.44721 ,1.69155 ,16.59752 
225 ,45.5264 ,1.44932 ,1.68129 ,16.49679 
226 ,45.7345 ,1.45133 ,1.67102 ,16.39605 
227 ,45.9586 ,1.45346 ,1.65049 ,16.19458 
228 ,46.1667 ,1.45562 ,1.63338 ,16.02669 
229 ,46.3905 ,1.45782 ,1.63338 ,16.02669 
230 ,46.5825 ,1.45987 ,1.59916 ,15.69091 
231 ,46.7905 ,1.46187 ,1.60258 ,15.72449 
232 ,46.9989 ,1.46382 ,1.57862 ,15.48944 
233 ,47.2069 ,1.46605 ,1.57520 ,15.45586 
234 ,47.3989 ,1.46802 ,1.53756 ,15.08650 
235 ,47.5908 ,1.46990 ,1.55809 ,15.28797 
236 ,47.7833 ,1.47180 ,1.53413 ,15.05292 
237 ,47.9753 ,1.47376 ,1.51360 ,14.85145 
238 ,48.1833 ,1.47589 ,1.48280 ,14.54925 
239 ,48.3755 ,1.47770 ,1.48965 ,14.61640 
240 ,48.5675 ,1.47971 ,1.46911 ,14.41493 
241 ,48.7596 ,1.48161 ,1.45542 ,14.28062 
242 ,48.9677 ,1.48372 ,1.45885 ,14.31420 
243 ,49.1598 ,1.48557 ,1.43489 ,14.07915 
244 ,49.3519 ,1.48747 ,1.43147 ,14.04557 
245 ,49.5757 ,1.48959 ,1.40409 ,13.77695 
246 ,49.7676 ,1.49163 ,1.40067 ,13.74337 
247 ,49.9762 ,1.49365 ,1.38014 ,13.54190 
248 ,50.1683 ,1.49571 ,1.37671 ,13.50832 
249 ,50.3763 ,1.49777 ,1.34249 ,13.17254 
250 ,50.5683 ,1.49969 ,1.34591 ,13.20612 
251 ,50.7605 ,1.50159 ,1.32538 ,13.00465 
252 ,50.9686 ,1.50364 ,1.32538 ,13.00465 
253 ,51.1925 ,1.50586 ,1.30143 ,12.76960 
254 ,51.4005 ,1.50800 ,1.27405 ,12.50097 
255 ,51.5928 ,1.50994 ,1.28089 ,12.56813 
256 ,51.7844 ,1.51186 ,1.26036 ,12.36666 
257 ,51.9770 ,1.51373 ,1.23983 ,12.16519 
258 ,52.1848 ,1.51587 ,1.22956 ,12.06445 
259 ,52.3607 ,1.51775 ,1.22614 ,12.03088 
260 ,52.5690 ,1.51963 ,1.21929 ,11.96372 
261 ,52.7616 ,1.52160 ,1.18850 ,11.66151 
262 ,52.9531 ,1.52351 ,1.18850 ,11.66151 
263 ,53.1775 ,1.52574 ,1.16454 ,11.42647 
264 ,53.3856 ,1.52782 ,1.17138 ,11.49362 
265 ,53.5933 ,1.52985 ,1.14743 ,11.25857 
266 ,53.7857 ,1.53186 ,1.13032 ,11.09068 
267 ,54.0098 ,1.53406 ,1.12690 ,11.05710 
268 ,54.2178 ,1.53613 ,1.09952 ,10.78848 
269 ,54.4100 ,1.53806 ,1.09952 ,10.78848 
270 ,54.6019 ,1.54010 ,1.05161 ,10.31838 
271 ,54.7940 ,1.54192 ,1.06187 ,10.41912 
272 ,55.0019 ,1.54400 ,1.04819 ,10.28480 
273 ,55.1938 ,1.54587 ,1.02765 ,10.08333 
274 ,55.3863 ,1.54785 ,1.02765 ,10.08333 
275 ,55.5944 ,1.54991 ,1.00712 ,9.88186 
276 ,55.7863 ,1.55187 ,1.00028 ,9.81471 
277 ,55.9786 ,1.55374 ,0.96948 ,9.51250 
278 ,56.1867 ,1.55577 ,0.98659 ,9.68039 
279 ,56.3945 ,1.55786 ,0.95237 ,9.34461 
280 ,56.6026 ,1.55993 ,0.93183 ,9.14314 
281 ,56.7952 ,1.56190 ,0.93525 ,9.17672 
282 ,56.9870 ,1.56381 ,0.92157 ,9.04241 
283 ,57.2109 ,1.56603 ,0.90446 ,8.87451 
284 ,57.4026 ,1.56798 ,0.88734 ,8.70662 
285 ,57.5952 ,1.56995 ,0.87366 ,8.57231 
286 ,57.8031 ,1.57199 ,0.86681 ,8.50515 
287 ,57.9954 ,1.57391 ,0.85654 ,8.40442 
288 ,58.2195 ,1.57608 ,0.82575 ,8.10221 
289 ,58.3955 ,1.57802 ,0.83259 ,8.16937 
290 ,58.5874 ,1.57983 ,0.82575 ,8.10221 
291 ,58.7797 ,1.58174 ,0.79495 ,7.80001 
292 ,58.9717 ,1.58366 ,0.79837 ,7.83359 
293 ,59.1799 ,1.58575 ,0.77441 ,7.59854 
294 ,59.3720 ,1.58769 ,0.77784 ,7.63212 
295 ,59.5635 ,1.58970 ,0.74704 ,7.32991 
296 ,59.7561 ,1.59151 ,0.74704 ,7.32991 
297 ,59.9638 ,1.59359 ,0.72308 ,7.09486 
298 ,60.1562 ,1.59553 ,0.71281 ,6.99413 
299 ,60.3641 ,1.59757 ,0.69570 ,6.82624 
300 ,60.5562 ,1.59954 ,0.68886 ,6.75908 
301 ,60.7642 ,1.60156 ,0.67175 ,6.59119 
302 ,60.9727 ,1.60365 ,0.68201 ,6.69193 
303 ,61.1646 ,1.60559 ,0.65121 ,6.38972 
304 ,61.3567 ,1.60751 ,0.64779 ,6.35614 
305 ,61.5484 ,1.60940 ,0.64095 ,6.28899 
306 ,61.7405 ,1.61133 ,0.62042 ,6.08752 
307 ,61.9809 ,1.61375 ,0.61015 ,5.98678 
308 ,62.1890 ,1.61585 ,0.60330 ,5.91962 
309 ,62.3812 ,1.61779 ,0.57935 ,5.68458 
310 ,62.5730 ,1.61968 ,0.58619 ,5.75173 
311 ,62.7814 ,1.62175 ,0.55882 ,5.48311 
312 ,62.9891 ,1.62383 ,0.54855 ,5.38237 
313 ,63.1973 ,1.62590 ,0.53144 ,5.21448 
314 ,63.4055 ,1.62796 ,0.52802 ,5.18090 
315 ,63.5976 ,1.62993 ,0.50064 ,4.91228 
316 ,63.8057 ,1.63197 ,0.51091 ,5.01301 
317 ,63.9973 ,1.63402 ,0.48695 ,4.77796 
318 ,64.1899 ,1.63584 ,0.47668 ,4.67723 
319 ,64.3977 ,1.63791 ,0.45273 ,4.44218 
320 ,64.5899 ,1.63982 ,0.46642 ,4.57649 
321 ,64.7822 ,1.64176 ,0.43562 ,4.27429 
322 ,64.9742 ,1.64366 ,0.44246 ,4.34144 
323 ,65.1822 ,1.64568 ,0.42535 ,4.17355 
324 ,65.3905 ,1.64784 ,0.41166 ,4.03924 
325 ,65.5825 ,1.64978 ,0.39797 ,3.90493 
326 ,65.7903 ,1.65186 ,0.39797 ,3.90493 
327 ,65.9826 ,1.65374 ,0.37744 ,3.70346 
328 ,66.1582 ,1.65561 ,0.36375 ,3.56914 
329 ,66.3508 ,1.65745 ,0.36033 ,3.53557 
330 ,66.5429 ,1.65934 ,0.33295 ,3.26694 
331 ,66.7670 ,1.66150 ,0.33638 ,3.30052 
332 ,66.9589 ,1.66349 ,0.30900 ,3.03189 
333 ,67.1510 ,1.66543 ,0.32269 ,3.16620 
334 ,67.3428 ,1.66734 ,0.29873 ,2.93116 
335 ,67.5828 ,1.66962 ,0.29189 ,2.86400 
336 ,67.7753 ,1.67170 ,0.27478 ,2.69611 
337 ,67.9674 ,1.67361 ,0.26451 ,2.59537 
338 ,68.1755 ,1.67569 ,0.24740 ,2.42748 
339 ,68.3674 ,1.67765 ,0.23713 ,2.32675 
340 ,68.5756 ,1.67967 ,0.20633 ,2.02454 
341 ,68.7676 ,1.68161 ,0.22344 ,2.19243 
342 ,68.9597 ,1.68352 ,0.20291 ,1.99096 
343 ,69.1517 ,1.68543 ,0.20976 ,2.05812 
344 ,69.3596 ,1.68753 ,0.18238 ,1.78949 
345 ,69.5680 ,1.68956 ,0.19264 ,1.89023 
346 ,69.7761 ,1.69168 ,0.16869 ,1.65518 
347 ,69.9842 ,1.69371 ,0.14473 ,1.42013 
348 ,70.1763 ,1.69565 ,0.13105 ,1.28582 
349 ,70.3684 ,1.69760 ,0.13789 ,1.35298 
350 ,70.5922 ,1.69966 ,0.11393 ,1.11793 
351 ,70.7845 ,1.70177 ,0.12420 ,1.21866 
352 ,70.9925 ,1.70384 ,0.09682 ,0.95004 
353 ,71.1843 ,1.70576 ,0.07971 ,0.78214 
354 ,71.3767 ,1.70770 ,0.06945 ,0.68141 
355 ,71.5844 ,1.70974 ,0.07971 ,0.78214 
356 ,71.7607 ,1.71162 ,0.04891 ,0.47994 
357 ,71.9526 ,1.71339 ,0.05234 ,0.51352 
358 ,72.1288 ,1.71530 ,0.02838 ,0.27847 
359 ,72.3212 ,1.71709 ,0.01469 ,0.14416 
360 ,72.5131 ,1.71906 ,0.04207 ,0.41278 
361 ,72.7051 ,1.72092 ,0.00785 ,0.07700 
362 ,72.9134 ,1.72302 ,0.00443 ,0.04342 
363 ,73.1055 ,1.72493 ,-0.00242 ,-0.02373 
364 ,73.2977 ,1.72687 ,-0.02637 ,-0.25878 
365 ,73.4897 ,1.72882 ,-0.02295 ,-0.22520 
366 ,73.6977 ,1.73089 ,-0.05375 ,-0.52741 
367 ,73.8898 ,1.73282 ,-0.04006 ,-0.39310 
368 ,74.0979 ,1.73489 ,-0.07771 ,-0.76246 
369 ,74.2898 ,1.73681 ,-0.06744 ,-0.66172 
370 ,74.4981 ,1.73873 ,-0.10166 ,-0.99751 
371 ,74.6902 ,1.74079 ,-0.08455 ,-0.82961 
372 ,74.8822 ,1.74268 ,-0.11193 ,-1.09824 
373 ,75.0903 ,1.74477 ,-0.10508 ,-1.03108 
374 ,75.2823 ,1.74669 ,-0.13931 ,-1.36687 
375 ,75.5065 ,1.74885 ,-0.13246 ,-1.29971 
376 ,75.7467 ,1.75128 ,-0.13931 ,-1.36687 
377 ,75.9382 ,1.75326 ,-0.16326 ,-1.60191 
378 ,76.1308 ,1.75519 ,-0.16326 ,-1.60191 
379 ,76.3228 ,1.75711 ,-0.19064 ,-1.87054 
380 ,76.5309 ,1.75923 ,-0.19748 ,-1.93770 
381 ,76.7229 ,1.76111 ,-0.21117 ,-2.07201 
382 ,76.9311 ,1.76321 ,-0.20090 ,-1.97128 
383 ,77.1552 ,1.76538 ,-0.22486 ,-2.20632 
384 ,77.3631 ,1.76752 ,-0.24539 ,-2.40779 
385 ,77.5714 ,1.76959 ,-0.22486 ,-2.20632 
386 ,77.7630 ,1.77159 ,-0.25908 ,-2.54211 
387 ,77.9551 ,1.77351 ,-0.25224 ,-2.47495 
388 ,78.1472 ,1.77533 ,-0.27961 ,-2.74358 
389 ,78.3393 ,1.77729 ,-0.28646 ,-2.81073 
390 ,78.5313 ,1.77921 ,-0.27619 ,-2.71000 
391 ,78.7234 ,1.78115 ,-0.31384 ,-3.07936 
392 ,78.9155 ,1.78304 ,-0.30357 ,-2.97863 
393 ,79.1077 ,1.78495 ,-0.32410 ,-3.18010 
394 ,79.2997 ,1.78688 ,-0.34806 ,-3.41514 
395 ,79.4918 ,1.78880 ,-0.32752 ,-3.21367 
396 ,79.7158 ,1.79086 ,-0.35490 ,-3.48230 
397 ,79.9080 ,1.79295 ,-0.35490 ,-3.48230 
398 ,80.1000 ,1.79483 ,-0.37544 ,-3.68377 
399 ,80.2921 ,1.79680 ,-0.37201 ,-3.65019 
400 ,80.4841 ,1.79876 ,-0.38912 ,-3.81808 
401 ,80.6763 ,1.80062 ,-0.38570 ,-3.78450 
402 ,80.8683 ,1.80252 ,-0.40281 ,-3.95240 
403 ,81.0603 ,1.80445 ,-0.41992 ,-4.12029 
404 ,81.2524 ,1.80636 ,-0.40623 ,-3.98597 
405 ,81.4606 ,1.80836 ,-0.43703 ,-4.28818 
406 ,81.6527 ,1.81039 ,-0.42677 ,-4.18744 
407 ,81.8448 ,1.81235 ,-0.47126 ,-4.62396 
408 ,82.0368 ,1.81423 ,-0.46441 ,-4.55681 
409 ,82.2290 ,1.81617 ,-0.46783 ,-4.59038 
410 ,82.4370 ,1.81823 ,-0.48152 ,-4.72470 
411 ,82.6450 ,1.82028 ,-0.49521 ,-4.85901 
412 ,82.8374 ,1.82227 ,-0.48494 ,-4.75828 
413 ,83.0295 ,1.82418 ,-0.49863 ,-4.89259 
414 ,83.2217 ,1.82606 ,-0.53285 ,-5.22837 
415 ,83.4297 ,1.82817 ,-0.53285 ,-5.22837 
416 ,83.6056 ,1.83001 ,-0.55339 ,-5.42984 
417 ,83.7977 ,1.83181 ,-0.53970 ,-5.29553 
418 ,83.9899 ,1.83375 ,-0.53970 ,-5.29553 
419 ,84.1819 ,1.83563 ,-0.58077 ,-5.69847 
420 ,84.3741 ,1.83760 ,-0.56023 ,-5.49700 
421 ,84.5981 ,1.83973 ,-0.59445 ,-5.83278 
422 ,84.8064 ,1.84197 ,-0.60130 ,-5.89994 
423 ,85.0140 ,1.84394 ,-0.60130 ,-5.89994 
424 ,85.1899 ,1.84589 ,-0.61841 ,-6.06783 
425 ,85.3985 ,1.84780 ,-0.62183 ,-6.10141 
426 ,85.6065 ,1.85000 ,-0.64579 ,-6.33646 
427 ,85.7982 ,1.85184 ,-0.64921 ,-6.37003 
428 ,86.0066 ,1.85379 ,-0.64921 ,-6.37003 
429 ,86.2309 ,1.85601 ,-0.66290 ,-6.50435 
430 ,86.4550 ,1.85830 ,-0.67316 ,-6.60508 
431 ,86.6471 ,1.86035 ,-0.68685 ,-6.73940 
432 ,86.8546 ,1.86241 ,-0.68001 ,-6.67224 
433 ,87.0472 ,1.86430 ,-0.70739 ,-6.94086 
434 ,87.2551 ,1.86633 ,-0.70739 ,-6.94086 
435 ,87.4474 ,1.86828 ,-0.72450 ,-7.10876 
436 ,87.6554 ,1.87042 ,-0.71765 ,-7.04160 
437 ,87.8473 ,1.87235 ,-0.74845 ,-7.34380 
438 ,88.0396 ,1.87421 ,-0.74161 ,-7.27665 
439 ,88.2477 ,1.87633 ,-0.75187 ,-7.37738 
440 ,88.4396 ,1.87824 ,-0.75872 ,-7.44454 
441 ,88.6318 ,1.88016 ,-0.76214 ,-7.47812 
442 ,88.8237 ,1.88204 ,-0.78610 ,-7.71317 
443 ,88.9996 ,1.88395 ,-0.78952 ,-7.74674 
444 ,89.1921 ,1.88577 ,-0.78952 ,-7.74674 
445 ,89.4002 ,1.88784 ,-0.79294 ,-7.78032 
446 ,89.6081 ,1.88990 ,-0.79978 ,-7.84748 
447 ,89.8001 ,1.89179 ,-0.82716 ,-8.11611 
448 ,90.0080 ,1.89385 ,-0.83401 ,-8.18326 
449 ,90.2003 ,1.89587 ,-0.83743 ,-8.21684 
450 ,90.4084 ,1.89787 ,-0.86138 ,-8.45189 
451 ,90.6007 ,1.89987 ,-0.84769 ,-8.31758 
452 ,90.8089 ,1.90195 ,-0.87507 ,-8.58620 
453 ,91.0169 ,1.90398 ,-0.87849 ,-8.61978 
454 ,91.2085 ,1.90590 ,-0.89218 ,-8.75409 
455 ,91.4327 ,1.90800 ,-0.87849 ,-8.61978 
456 ,91.6251 ,1.91007 ,-0.91272 ,-8.95556 
457 ,91.8171 ,1.91195 ,-0.89560 ,-8.78767 
458 ,92.0093 ,1.91390 ,-0.92983 ,-9.12345 
459 ,92.2174 ,1.91597 ,-0.91272 ,-8.95556 
460 ,92.4094 ,1.91790 ,-0.94351 ,-9.25777 
461 ,92.6172 ,1.92002 ,-0.94351 ,-9.25777 
462 ,92.7936 ,1.92192 ,-0.96747 ,-9.49282 
463 ,92.9856 ,1.92370 ,-0.96747 ,-9.49282 
