Data stamp = , 29-04-2022 16:23:32 216

Calibration Values: 
Slope = , 26.54 , g/V 
Offset Voltage at no contact = , -0.501760 , V 

No , Time , Stage Position ,   Mass , Force 
   ,  (s) ,      (mm)      ,   (g)  , (mN)  

1 ,0.0000 ,0.99948 ,5.44567 ,53.43292 
2 ,0.2125 ,0.99956 ,5.44909 ,53.46650 
3 ,0.8532 ,1.00204 ,5.43883 ,53.36576 
4 ,1.0770 ,1.00487 ,5.42856 ,53.26503 
5 ,1.2851 ,1.00697 ,5.41145 ,53.09714 
6 ,1.4773 ,1.00893 ,5.42856 ,53.26503 
7 ,1.6851 ,1.01099 ,5.38749 ,52.86209 
8 ,1.8934 ,1.01313 ,5.38749 ,52.86209 
9 ,2.1015 ,1.01520 ,5.37381 ,52.72778 
10 ,2.2937 ,1.01714 ,5.33958 ,52.39199 
11 ,2.4859 ,1.01905 ,5.31563 ,52.15694 
12 ,2.6938 ,1.02115 ,5.30194 ,52.02263 
13 ,2.8860 ,1.02304 ,5.26772 ,51.68685 
14 ,3.0780 ,1.02494 ,5.26430 ,51.65327 
15 ,3.2701 ,1.02688 ,5.25061 ,51.51896 
16 ,3.4622 ,1.02882 ,5.21639 ,51.18317 
17 ,3.6379 ,1.03070 ,5.21296 ,51.14960 
18 ,3.8303 ,1.03252 ,5.18216 ,50.84739 
19 ,4.0545 ,1.03462 ,5.16163 ,50.64592 
20 ,4.2622 ,1.03682 ,5.13768 ,50.41087 
21 ,4.4546 ,1.03867 ,5.13768 ,50.41087 
22 ,4.6467 ,1.04067 ,5.10345 ,50.07509 
23 ,4.8548 ,1.04275 ,5.09319 ,49.97436 
24 ,5.0468 ,1.04466 ,5.07265 ,49.77289 
25 ,5.2387 ,1.04657 ,5.06923 ,49.73931 
26 ,5.4309 ,1.04842 ,5.02817 ,49.33637 
27 ,5.6391 ,1.05053 ,5.01790 ,49.23563 
28 ,5.8309 ,1.05247 ,4.99394 ,49.00058 
29 ,6.0549 ,1.05460 ,4.99394 ,49.00058 
30 ,6.2472 ,1.05673 ,4.94603 ,48.53049 
31 ,6.4555 ,1.05877 ,4.94261 ,48.49691 
32 ,6.6471 ,1.06074 ,4.90839 ,48.16113 
33 ,6.8396 ,1.06253 ,4.91181 ,48.19471 
34 ,7.0474 ,1.06472 ,4.87759 ,47.85892 
35 ,7.2558 ,1.06679 ,4.86732 ,47.75819 
36 ,7.4639 ,1.06878 ,4.84337 ,47.52314 
37 ,7.6556 ,1.07074 ,4.83310 ,47.42240 
38 ,7.8480 ,1.07267 ,4.79546 ,47.05304 
39 ,8.0400 ,1.07457 ,4.79546 ,47.05304 
40 ,8.2317 ,1.07645 ,4.76466 ,46.75084 
41 ,8.4082 ,1.07840 ,4.73728 ,46.48221 
42 ,8.6003 ,1.08017 ,4.73386 ,46.44863 
43 ,8.7924 ,1.08203 ,4.70648 ,46.18001 
44 ,8.9684 ,1.08396 ,4.69622 ,46.07927 
45 ,9.1606 ,1.08578 ,4.68253 ,45.94496 
46 ,9.3682 ,1.08792 ,4.66542 ,45.77707 
47 ,9.5608 ,1.08980 ,4.65173 ,45.64275 
48 ,9.7688 ,1.09183 ,4.61408 ,45.27339 
49 ,9.9769 ,1.09397 ,4.61066 ,45.23981 
50 ,10.1848 ,1.09602 ,4.59013 ,45.03835 
51 ,10.3770 ,1.09795 ,4.56960 ,44.83688 
52 ,10.5848 ,1.09994 ,4.53880 ,44.53467 
53 ,10.7772 ,1.10194 ,4.54222 ,44.56825 
54 ,10.9849 ,1.10403 ,4.50115 ,44.16531 
55 ,11.1773 ,1.10589 ,4.50115 ,44.16531 
56 ,11.3694 ,1.10779 ,4.47720 ,43.93026 
57 ,11.5610 ,1.10975 ,4.45324 ,43.69521 
58 ,11.7536 ,1.11166 ,4.43613 ,43.52732 
59 ,11.9456 ,1.11359 ,4.41218 ,43.29227 
60 ,12.1377 ,1.11558 ,4.41902 ,43.35943 
61 ,12.3456 ,1.11758 ,4.38480 ,43.02365 
62 ,12.5378 ,1.11946 ,4.37111 ,42.88933 
63 ,12.7298 ,1.12147 ,4.34373 ,42.62071 
64 ,12.9376 ,1.12351 ,4.33347 ,42.51997 
65 ,13.1300 ,1.12544 ,4.29924 ,42.18419 
66 ,13.3383 ,1.12749 ,4.29582 ,42.15061 
67 ,13.5302 ,1.12946 ,4.27187 ,41.91556 
68 ,13.7219 ,1.13149 ,4.26160 ,41.81483 
69 ,13.9143 ,1.13326 ,4.24107 ,41.61336 
70 ,14.1065 ,1.13525 ,4.21369 ,41.34473 
71 ,14.3146 ,1.13730 ,4.19658 ,41.17684 
72 ,14.5065 ,1.13918 ,4.18974 ,41.10968 
73 ,14.7146 ,1.14124 ,4.17605 ,40.97537 
74 ,14.9225 ,1.14348 ,4.16920 ,40.90821 
75 ,15.1145 ,1.14525 ,4.13498 ,40.57243 
76 ,15.3069 ,1.14720 ,4.12471 ,40.47170 
77 ,15.5151 ,1.14928 ,4.10760 ,40.30380 
78 ,15.7231 ,1.15125 ,4.08023 ,40.03518 
79 ,15.8988 ,1.15328 ,4.06996 ,39.93444 
80 ,16.0915 ,1.15505 ,4.04600 ,39.69940 
81 ,16.2994 ,1.15714 ,4.04600 ,39.69940 
82 ,16.5075 ,1.15921 ,4.00494 ,39.29646 
83 ,16.6995 ,1.16113 ,4.00152 ,39.26288 
84 ,16.9076 ,1.16316 ,3.97072 ,38.96067 
85 ,17.0996 ,1.16511 ,3.98098 ,39.06141 
86 ,17.3078 ,1.16715 ,3.93992 ,38.65847 
87 ,17.4998 ,1.16913 ,3.93650 ,38.62489 
88 ,17.6920 ,1.17104 ,3.89885 ,38.25553 
89 ,17.9001 ,1.17313 ,3.90570 ,38.32268 
90 ,18.0918 ,1.17514 ,3.86805 ,37.95332 
91 ,18.2844 ,1.17696 ,3.86805 ,37.95332 
92 ,18.4921 ,1.17903 ,3.83041 ,37.58396 
93 ,18.6843 ,1.18097 ,3.81672 ,37.44965 
94 ,18.8926 ,1.18311 ,3.79961 ,37.28176 
95 ,19.0848 ,1.18495 ,3.78934 ,37.18102 
96 ,19.2762 ,1.18689 ,3.78592 ,37.14744 
97 ,19.4683 ,1.18886 ,3.75854 ,36.87882 
98 ,19.6604 ,1.19074 ,3.74485 ,36.74450 
99 ,19.8529 ,1.19270 ,3.71405 ,36.44230 
100 ,20.1090 ,1.19512 ,3.69694 ,36.27441 
101 ,20.3009 ,1.19722 ,3.67983 ,36.10652 
102 ,20.4933 ,1.19906 ,3.67983 ,36.10652 
103 ,20.6852 ,1.20095 ,3.65930 ,35.90505 
104 ,20.8773 ,1.20285 ,3.64219 ,35.73716 
105 ,21.0856 ,1.20499 ,3.62508 ,35.56926 
106 ,21.2774 ,1.20694 ,3.60797 ,35.40137 
107 ,21.4697 ,1.20884 ,3.57717 ,35.09917 
108 ,21.6773 ,1.21089 ,3.57717 ,35.09917 
109 ,21.8699 ,1.21280 ,3.54637 ,34.79696 
110 ,22.0615 ,1.21484 ,3.53268 ,34.66265 
111 ,22.2540 ,1.21667 ,3.51899 ,34.52834 
112 ,22.4616 ,1.21876 ,3.51557 ,34.49476 
113 ,22.6702 ,1.22083 ,3.47792 ,34.12540 
114 ,22.8783 ,1.22285 ,3.47108 ,34.05824 
115 ,23.0862 ,1.22490 ,3.43686 ,33.72246 
116 ,23.2623 ,1.22684 ,3.44028 ,33.75604 
117 ,23.4705 ,1.22866 ,3.40948 ,33.45383 
118 ,23.6624 ,1.23072 ,3.40606 ,33.42025 
119 ,23.8547 ,1.23261 ,3.37184 ,33.08447 
120 ,24.0464 ,1.23456 ,3.36499 ,33.01731 
121 ,24.2548 ,1.23672 ,3.34446 ,32.81584 
122 ,24.4464 ,1.23851 ,3.34104 ,32.78227 
123 ,24.6387 ,1.24045 ,3.32051 ,32.58080 
124 ,24.8466 ,1.24258 ,3.28971 ,32.27859 
125 ,25.0231 ,1.24442 ,3.28628 ,32.24501 
126 ,25.2150 ,1.24627 ,3.26233 ,32.00996 
127 ,25.4073 ,1.24815 ,3.25891 ,31.97639 
128 ,25.5994 ,1.25013 ,3.23837 ,31.77492 
129 ,25.7911 ,1.25206 ,3.21784 ,31.57345 
130 ,25.9833 ,1.25396 ,3.22468 ,31.64060 
131 ,26.1755 ,1.25583 ,3.18362 ,31.23766 
132 ,26.3678 ,1.25774 ,3.18020 ,31.20409 
133 ,26.5919 ,1.25990 ,3.15282 ,30.93546 
134 ,26.8000 ,1.26213 ,3.13913 ,30.80115 
135 ,26.9921 ,1.26408 ,3.10491 ,30.46536 
136 ,27.2158 ,1.26631 ,3.10491 ,30.46536 
137 ,27.4082 ,1.26820 ,3.09806 ,30.39821 
138 ,27.6159 ,1.27020 ,3.06726 ,30.09600 
139 ,27.7919 ,1.27213 ,3.04331 ,29.86095 
140 ,27.9840 ,1.27389 ,3.05015 ,29.92811 
141 ,28.1764 ,1.27583 ,3.02278 ,29.65948 
142 ,28.3685 ,1.27774 ,3.00909 ,29.52517 
143 ,28.5765 ,1.27984 ,2.99540 ,29.39086 
144 ,28.7687 ,1.28175 ,2.97144 ,29.15581 
145 ,28.9768 ,1.28382 ,2.96118 ,29.05507 
146 ,29.1688 ,1.28575 ,2.93380 ,28.78645 
147 ,29.3769 ,1.28784 ,2.90985 ,28.55140 
148 ,29.5687 ,1.28978 ,2.89958 ,28.45066 
149 ,29.7611 ,1.29167 ,2.90300 ,28.48424 
150 ,29.9691 ,1.29381 ,2.87220 ,28.18204 
151 ,30.1609 ,1.29568 ,2.85851 ,28.04772 
152 ,30.3534 ,1.29768 ,2.83456 ,27.81268 
153 ,30.5613 ,1.29969 ,2.84482 ,27.91341 
154 ,30.7374 ,1.30157 ,2.79691 ,27.44332 
155 ,30.9294 ,1.30336 ,2.80034 ,27.47689 
156 ,31.1217 ,1.30527 ,2.79007 ,27.37616 
157 ,31.2972 ,1.30714 ,2.76269 ,27.10753 
158 ,31.5057 ,1.30902 ,2.75585 ,27.04038 
159 ,31.6975 ,1.31104 ,2.73531 ,26.83891 
160 ,31.8902 ,1.31297 ,2.70794 ,26.57028 
161 ,32.0820 ,1.31489 ,2.71478 ,26.63744 
162 ,32.2904 ,1.31696 ,2.68056 ,26.30165 
163 ,32.4819 ,1.31894 ,2.68398 ,26.33523 
164 ,32.6904 ,1.32095 ,2.66345 ,26.13376 
165 ,32.8821 ,1.32294 ,2.65318 ,26.03303 
166 ,33.0745 ,1.32474 ,2.62238 ,25.73082 
167 ,33.2664 ,1.32675 ,2.61554 ,25.66367 
168 ,33.4742 ,1.32882 ,2.60527 ,25.56293 
169 ,33.6661 ,1.33072 ,2.58816 ,25.39504 
170 ,33.8588 ,1.33267 ,2.56421 ,25.15999 
171 ,34.0669 ,1.33476 ,2.55394 ,25.05926 
172 ,34.2587 ,1.33670 ,2.54367 ,24.95852 
173 ,34.4510 ,1.33866 ,2.52314 ,24.75705 
174 ,34.6431 ,1.34046 ,2.52656 ,24.79063 
175 ,34.8511 ,1.34258 ,2.47523 ,24.28696 
176 ,35.0432 ,1.34445 ,2.49234 ,24.45485 
177 ,35.2352 ,1.34640 ,2.44785 ,24.01833 
178 ,35.4274 ,1.34840 ,2.43074 ,23.85044 
179 ,35.6032 ,1.35018 ,2.43759 ,23.91759 
180 ,35.7957 ,1.35200 ,2.42390 ,23.78328 
181 ,36.0037 ,1.35411 ,2.42048 ,23.74970 
182 ,36.1957 ,1.35596 ,2.37941 ,23.34676 
183 ,36.3879 ,1.35792 ,2.37941 ,23.34676 
184 ,36.5800 ,1.35990 ,2.36914 ,23.24603 
185 ,36.8038 ,1.36198 ,2.33492 ,22.91024 
186 ,36.9959 ,1.36400 ,2.32465 ,22.80951 
187 ,37.1882 ,1.36589 ,2.32123 ,22.77593 
188 ,37.4123 ,1.36809 ,2.29728 ,22.54088 
189 ,37.6043 ,1.37009 ,2.29728 ,22.54088 
190 ,37.7961 ,1.37197 ,2.25963 ,22.17152 
191 ,37.9885 ,1.37394 ,2.24594 ,22.03721 
192 ,38.1966 ,1.37598 ,2.22883 ,21.86932 
193 ,38.3888 ,1.37797 ,2.22199 ,21.80216 
194 ,38.5808 ,1.37988 ,2.21857 ,21.76858 
195 ,38.7728 ,1.38173 ,2.18092 ,21.39922 
196 ,38.9649 ,1.38364 ,2.19461 ,21.53353 
197 ,39.1570 ,1.38563 ,2.17408 ,21.33206 
198 ,39.3651 ,1.38759 ,2.13644 ,20.96270 
199 ,39.5732 ,1.38979 ,2.13644 ,20.96270 
200 ,39.7652 ,1.39167 ,2.13644 ,20.96270 
201 ,39.9572 ,1.39360 ,2.12275 ,20.82839 
202 ,40.1494 ,1.39551 ,2.09879 ,20.59334 
203 ,40.3575 ,1.39764 ,2.08510 ,20.45903 
204 ,40.5494 ,1.39955 ,2.06457 ,20.25756 
205 ,40.7577 ,1.40163 ,2.05088 ,20.12325 
206 ,40.9498 ,1.40354 ,2.04404 ,20.05609 
207 ,41.1414 ,1.40551 ,2.02693 ,19.88820 
208 ,41.3339 ,1.40739 ,1.99613 ,19.58599 
209 ,41.5420 ,1.40940 ,2.00639 ,19.68673 
210 ,41.7339 ,1.41140 ,1.97559 ,19.38452 
211 ,41.9422 ,1.41349 ,1.97217 ,19.35094 
212 ,42.1341 ,1.41539 ,1.95164 ,19.14948 
213 ,42.3423 ,1.41750 ,1.94137 ,19.04874 
214 ,42.5501 ,1.41957 ,1.92084 ,18.84727 
215 ,42.7585 ,1.42148 ,1.90715 ,18.71296 
216 ,42.9502 ,1.42354 ,1.88662 ,18.51149 
217 ,43.1427 ,1.42549 ,1.88319 ,18.47791 
218 ,43.3343 ,1.42738 ,1.86266 ,18.27644 
219 ,43.5265 ,1.42925 ,1.84213 ,18.07497 
220 ,43.7189 ,1.43119 ,1.83528 ,18.00781 
221 ,43.9111 ,1.43313 ,1.82160 ,17.87350 
222 ,44.1031 ,1.43512 ,1.81817 ,17.83992 
223 ,44.3112 ,1.43714 ,1.80106 ,17.67203 
224 ,44.5031 ,1.43902 ,1.78053 ,17.47056 
225 ,44.6952 ,1.44097 ,1.76684 ,17.33625 
226 ,44.8875 ,1.44288 ,1.76000 ,17.26909 
227 ,45.0954 ,1.44502 ,1.73604 ,17.03404 
228 ,45.3035 ,1.44705 ,1.74289 ,17.10120 
229 ,45.4952 ,1.44897 ,1.70866 ,16.76542 
230 ,45.7195 ,1.45103 ,1.70182 ,16.69826 
231 ,45.9118 ,1.45308 ,1.68129 ,16.49679 
232 ,46.1039 ,1.45505 ,1.67786 ,16.46321 
233 ,46.2957 ,1.45702 ,1.66075 ,16.29532 
234 ,46.4881 ,1.45884 ,1.64364 ,16.12743 
235 ,46.6800 ,1.46084 ,1.63338 ,16.02669 
236 ,46.8879 ,1.46285 ,1.62653 ,15.95954 
237 ,47.0803 ,1.46484 ,1.60942 ,15.79164 
238 ,47.2883 ,1.46690 ,1.59573 ,15.65733 
239 ,47.4804 ,1.46884 ,1.56151 ,15.32155 
240 ,47.6721 ,1.47075 ,1.54440 ,15.15366 
241 ,47.8646 ,1.47264 ,1.54098 ,15.12008 
242 ,48.0406 ,1.47454 ,1.51702 ,14.88503 
243 ,48.2326 ,1.47631 ,1.50676 ,14.78430 
244 ,48.4248 ,1.47824 ,1.51702 ,14.88503 
245 ,48.6168 ,1.48015 ,1.48280 ,14.54925 
246 ,48.8089 ,1.48206 ,1.47596 ,14.48209 
247 ,49.0009 ,1.48403 ,1.45542 ,14.28062 
248 ,49.1931 ,1.48592 ,1.43147 ,14.04557 
249 ,49.3853 ,1.48786 ,1.43831 ,14.11273 
250 ,49.5934 ,1.48994 ,1.41094 ,13.84410 
251 ,49.7854 ,1.49185 ,1.42120 ,13.94484 
252 ,49.9933 ,1.49395 ,1.38356 ,13.57548 
253 ,50.2014 ,1.49593 ,1.38014 ,13.54190 
254 ,50.3936 ,1.49794 ,1.35618 ,13.30685 
255 ,50.5857 ,1.49990 ,1.36303 ,13.37401 
256 ,50.7937 ,1.50194 ,1.31854 ,12.93749 
257 ,50.9852 ,1.50380 ,1.32880 ,13.03822 
258 ,51.1779 ,1.50579 ,1.30485 ,12.80318 
259 ,51.3695 ,1.50767 ,1.29116 ,12.66886 
260 ,51.5620 ,1.50958 ,1.29116 ,12.66886 
261 ,51.7539 ,1.51154 ,1.27405 ,12.50097 
262 ,51.9461 ,1.51344 ,1.27063 ,12.46739 
263 ,52.1381 ,1.51532 ,1.23298 ,12.09803 
264 ,52.3460 ,1.51743 ,1.25352 ,12.29950 
265 ,52.5384 ,1.51939 ,1.21587 ,11.93014 
266 ,52.7464 ,1.52146 ,1.21587 ,11.93014 
267 ,52.9383 ,1.52342 ,1.19192 ,11.69509 
268 ,53.1462 ,1.52541 ,1.18507 ,11.62794 
269 ,53.3388 ,1.52740 ,1.16112 ,11.39289 
270 ,53.5467 ,1.52950 ,1.15770 ,11.35931 
271 ,53.7547 ,1.53154 ,1.12690 ,11.05710 
272 ,53.9468 ,1.53344 ,1.12690 ,11.05710 
273 ,54.1391 ,1.53533 ,1.09952 ,10.78848 
274 ,54.3311 ,1.53730 ,1.09952 ,10.78848 
275 ,54.5232 ,1.53919 ,1.08241 ,10.62059 
276 ,54.6988 ,1.54112 ,1.06187 ,10.41912 
277 ,54.8915 ,1.54291 ,1.04819 ,10.28480 
278 ,55.0993 ,1.54501 ,1.04819 ,10.28480 
279 ,55.2911 ,1.54693 ,1.03792 ,10.18407 
280 ,55.4837 ,1.54881 ,1.01739 ,9.98260 
281 ,55.7078 ,1.55096 ,1.00370 ,9.84829 
282 ,55.9157 ,1.55311 ,0.98659 ,9.68039 
283 ,56.0919 ,1.55498 ,0.97974 ,9.61324 
284 ,56.2840 ,1.55680 ,0.97290 ,9.54608 
285 ,56.4759 ,1.55871 ,0.92841 ,9.10956 
286 ,56.6678 ,1.56065 ,0.95579 ,9.37819 
287 ,56.8601 ,1.56259 ,0.91814 ,9.00883 
288 ,57.0523 ,1.56447 ,0.90103 ,8.84094 
289 ,57.2442 ,1.56652 ,0.88734 ,8.70662 
290 ,57.4523 ,1.56834 ,0.89077 ,8.74020 
291 ,57.6606 ,1.57057 ,0.87023 ,8.53873 
292 ,57.8686 ,1.57267 ,0.87708 ,8.60589 
293 ,58.0443 ,1.57452 ,0.83943 ,8.23653 
294 ,58.2365 ,1.57630 ,0.82232 ,8.06864 
295 ,58.4288 ,1.57829 ,0.83259 ,8.16937 
296 ,58.6368 ,1.58028 ,0.80521 ,7.90074 
297 ,58.8290 ,1.58225 ,0.80521 ,7.90074 
298 ,59.0211 ,1.58417 ,0.78810 ,7.73285 
299 ,59.2288 ,1.58619 ,0.77784 ,7.63212 
300 ,59.4212 ,1.58817 ,0.75388 ,7.39707 
301 ,59.6292 ,1.59031 ,0.75388 ,7.39707 
302 ,59.8214 ,1.59215 ,0.73335 ,7.19560 
303 ,60.0294 ,1.59425 ,0.72650 ,7.12844 
304 ,60.2214 ,1.59615 ,0.70939 ,6.96055 
305 ,60.4137 ,1.59812 ,0.70255 ,6.89340 
306 ,60.6057 ,1.60003 ,0.68544 ,6.72550 
307 ,60.8138 ,1.60204 ,0.66490 ,6.52403 
308 ,61.0218 ,1.60422 ,0.64779 ,6.35614 
309 ,61.2138 ,1.60604 ,0.65464 ,6.42330 
310 ,61.4059 ,1.60799 ,0.63410 ,6.22183 
311 ,61.5982 ,1.60994 ,0.62726 ,6.15467 
312 ,61.7901 ,1.61187 ,0.61699 ,6.05394 
313 ,61.9823 ,1.61379 ,0.59646 ,5.85247 
314 ,62.1903 ,1.61586 ,0.58619 ,5.75173 
315 ,62.3825 ,1.61774 ,0.55539 ,5.44953 
316 ,62.5903 ,1.61984 ,0.55882 ,5.48311 
317 ,62.7826 ,1.62182 ,0.54855 ,5.38237 
318 ,62.9742 ,1.62366 ,0.52802 ,5.18090 
319 ,63.1667 ,1.62557 ,0.52459 ,5.14732 
320 ,63.3586 ,1.62749 ,0.49722 ,4.87870 
321 ,63.5669 ,1.62965 ,0.50064 ,4.91228 
322 ,63.7747 ,1.63159 ,0.47326 ,4.64365 
323 ,63.9830 ,1.63380 ,0.46300 ,4.54291 
324 ,64.1752 ,1.63570 ,0.47326 ,4.64365 
325 ,64.3831 ,1.63780 ,0.45615 ,4.47576 
326 ,64.5754 ,1.63968 ,0.43562 ,4.27429 
327 ,64.7836 ,1.64182 ,0.43220 ,4.24071 
328 ,64.9918 ,1.64380 ,0.41509 ,4.07282 
329 ,65.1835 ,1.64580 ,0.39113 ,3.83777 
330 ,65.4077 ,1.64788 ,0.39455 ,3.87135 
331 ,65.6158 ,1.65007 ,0.37744 ,3.70346 
332 ,65.8079 ,1.65204 ,0.37402 ,3.66988 
333 ,66.0000 ,1.65396 ,0.34322 ,3.36767 
334 ,66.1916 ,1.65589 ,0.34322 ,3.36767 
335 ,66.3842 ,1.65781 ,0.31926 ,3.13263 
336 ,66.5922 ,1.65986 ,0.32269 ,3.16620 
337 ,66.7680 ,1.66172 ,0.29873 ,2.93116 
338 ,66.9604 ,1.66351 ,0.27820 ,2.72969 
339 ,67.1524 ,1.66546 ,0.29531 ,2.89758 
340 ,67.3600 ,1.66753 ,0.27135 ,2.66253 
341 ,67.5525 ,1.66944 ,0.27135 ,2.66253 
342 ,67.7446 ,1.67135 ,0.24055 ,2.36032 
343 ,67.9527 ,1.67343 ,0.24398 ,2.39390 
344 ,68.1448 ,1.67534 ,0.21660 ,2.12528 
345 ,68.3528 ,1.67746 ,0.21660 ,2.12528 
346 ,68.5450 ,1.67937 ,0.20976 ,2.05812 
347 ,68.7687 ,1.68154 ,0.19607 ,1.92381 
348 ,68.9613 ,1.68351 ,0.18238 ,1.78949 
349 ,69.1530 ,1.68547 ,0.17896 ,1.75592 
350 ,69.3453 ,1.68737 ,0.14816 ,1.45371 
351 ,69.5369 ,1.68923 ,0.14131 ,1.38655 
352 ,69.7293 ,1.69122 ,0.14816 ,1.45371 
353 ,69.9213 ,1.69311 ,0.10367 ,1.01719 
354 ,70.1137 ,1.69517 ,0.09682 ,0.95004 
355 ,70.3055 ,1.69699 ,0.10367 ,1.01719 
356 ,70.4977 ,1.69891 ,0.09340 ,0.91646 
357 ,70.6896 ,1.70082 ,0.06945 ,0.68141 
358 ,70.8820 ,1.70275 ,0.07287 ,0.71499 
359 ,71.0899 ,1.70477 ,0.06260 ,0.61425 
360 ,71.2821 ,1.70671 ,0.03180 ,0.31205 
361 ,71.4903 ,1.70885 ,0.04207 ,0.41278 
362 ,71.6819 ,1.71068 ,0.01811 ,0.17773 
363 ,71.8744 ,1.71270 ,0.01469 ,0.14416 
364 ,72.0821 ,1.71479 ,-0.01269 ,-0.12447 
365 ,72.2744 ,1.71662 ,0.01469 ,0.14416 
366 ,72.4666 ,1.71860 ,-0.01953 ,-0.19163 
367 ,72.6587 ,1.72051 ,-0.03664 ,-0.35952 
368 ,72.8985 ,1.72287 ,-0.04006 ,-0.39310 
369 ,73.1067 ,1.72494 ,-0.06402 ,-0.62814 
370 ,73.2989 ,1.72693 ,-0.05033 ,-0.49383 
371 ,73.4909 ,1.72885 ,-0.07086 ,-0.69530 
372 ,73.6831 ,1.73072 ,-0.10166 ,-0.99751 
373 ,73.8908 ,1.73277 ,-0.09824 ,-0.96393 
374 ,74.0832 ,1.73472 ,-0.12904 ,-1.26613 
375 ,74.2750 ,1.73668 ,-0.10508 ,-1.03108 
376 ,74.4674 ,1.73853 ,-0.13588 ,-1.33329 
377 ,74.6593 ,1.74054 ,-0.14615 ,-1.43402 
378 ,74.8517 ,1.74249 ,-0.14957 ,-1.46760 
379 ,75.0435 ,1.74434 ,-0.17011 ,-1.66907 
380 ,75.2518 ,1.74641 ,-0.15984 ,-1.56834 
381 ,75.4439 ,1.74835 ,-0.18722 ,-1.83696 
382 ,75.6358 ,1.75025 ,-0.20090 ,-1.97128 
383 ,75.8440 ,1.75229 ,-0.20433 ,-2.00485 
384 ,76.0517 ,1.75439 ,-0.20775 ,-2.03843 
385 ,76.2442 ,1.75630 ,-0.23513 ,-2.30706 
386 ,76.4680 ,1.75845 ,-0.22144 ,-2.17275 
387 ,76.6602 ,1.76052 ,-0.24197 ,-2.37422 
388 ,76.8522 ,1.76239 ,-0.24881 ,-2.44137 
389 ,77.0445 ,1.76433 ,-0.28646 ,-2.81073 
390 ,77.2523 ,1.76646 ,-0.27619 ,-2.71000 
391 ,77.4607 ,1.76850 ,-0.28988 ,-2.84431 
392 ,77.6525 ,1.77052 ,-0.30357 ,-2.97863 
393 ,77.8608 ,1.77237 ,-0.31726 ,-3.11294 
394 ,78.0529 ,1.77443 ,-0.30699 ,-3.01220 
395 ,78.2446 ,1.77632 ,-0.33095 ,-3.24725 
396 ,78.4371 ,1.77820 ,-0.33779 ,-3.31441 
397 ,78.6291 ,1.78019 ,-0.34464 ,-3.38156 
398 ,78.8213 ,1.78208 ,-0.35832 ,-3.51588 
399 ,79.0293 ,1.78424 ,-0.36517 ,-3.58303 
400 ,79.2213 ,1.78612 ,-0.38228 ,-3.75093 
401 ,79.4133 ,1.78801 ,-0.37544 ,-3.68377 
402 ,79.6215 ,1.79000 ,-0.40966 ,-4.01955 
403 ,79.8132 ,1.79201 ,-0.39597 ,-3.88524 
404 ,80.0052 ,1.79396 ,-0.41992 ,-4.12029 
405 ,80.1973 ,1.79588 ,-0.43361 ,-4.25460 
406 ,80.3894 ,1.79784 ,-0.43703 ,-4.28818 
407 ,80.5980 ,1.79978 ,-0.45414 ,-4.45607 
408 ,80.8058 ,1.80195 ,-0.46783 ,-4.59038 
409 ,80.9982 ,1.80387 ,-0.46783 ,-4.59038 
410 ,81.1903 ,1.80581 ,-0.47126 ,-4.62396 
411 ,81.3820 ,1.80769 ,-0.48837 ,-4.79185 
412 ,81.5738 ,1.80960 ,-0.47810 ,-4.69112 
413 ,81.7658 ,1.81155 ,-0.50548 ,-4.95975 
414 ,81.9581 ,1.81348 ,-0.51232 ,-5.02690 
415 ,82.1503 ,1.81540 ,-0.52259 ,-5.12764 
416 ,82.3584 ,1.81744 ,-0.53970 ,-5.29553 
417 ,82.5506 ,1.81937 ,-0.53285 ,-5.22837 
418 ,82.7742 ,1.82154 ,-0.56365 ,-5.53058 
419 ,82.9826 ,1.82358 ,-0.56708 ,-5.56415 
420 ,83.1910 ,1.82579 ,-0.57050 ,-5.59773 
421 ,83.3988 ,1.82785 ,-0.58761 ,-5.76562 
422 ,83.5907 ,1.82977 ,-0.58419 ,-5.73205 
423 ,83.7988 ,1.83186 ,-0.61499 ,-6.03425 
424 ,84.0068 ,1.83388 ,-0.62868 ,-6.16856 
425 ,84.1992 ,1.83591 ,-0.62525 ,-6.13499 
426 ,84.4073 ,1.83796 ,-0.63894 ,-6.26930 
427 ,84.5996 ,1.83980 ,-0.64236 ,-6.30288 
428 ,84.8071 ,1.84193 ,-0.65605 ,-6.43719 
429 ,84.9997 ,1.84387 ,-0.66290 ,-6.50435 
430 ,85.2078 ,1.84592 ,-0.66632 ,-6.53793 
431 ,85.4158 ,1.84802 ,-0.66974 ,-6.57150 
432 ,85.6238 ,1.85010 ,-0.70054 ,-6.87371 
433 ,85.8159 ,1.85201 ,-0.68685 ,-6.73940 
434 ,86.0401 ,1.85420 ,-0.71081 ,-6.97444 
435 ,86.2481 ,1.85631 ,-0.71423 ,-7.00802 
436 ,86.4401 ,1.85825 ,-0.73134 ,-7.17591 
437 ,86.6320 ,1.86012 ,-0.74845 ,-7.34380 
438 ,86.8244 ,1.86210 ,-0.75530 ,-7.41096 
439 ,87.0160 ,1.86397 ,-0.74503 ,-7.31023 
440 ,87.2085 ,1.86592 ,-0.76556 ,-7.51170 
441 ,87.4167 ,1.86792 ,-0.78267 ,-7.67959 
442 ,87.6243 ,1.87009 ,-0.81005 ,-7.94821 
443 ,87.8323 ,1.87222 ,-0.79294 ,-7.78032 
444 ,88.0245 ,1.87410 ,-0.81005 ,-7.94821 
445 ,88.2166 ,1.87603 ,-0.83743 ,-8.21684 
446 ,88.4246 ,1.87806 ,-0.84085 ,-8.25042 
447 ,88.6331 ,1.88023 ,-0.82716 ,-8.11611 
448 ,88.8409 ,1.88221 ,-0.85454 ,-8.38473 
449 ,89.0332 ,1.88414 ,-0.85454 ,-8.38473 
450 ,89.2090 ,1.88603 ,-0.87165 ,-8.55262 
451 ,89.4016 ,1.88786 ,-0.88192 ,-8.65336 
452 ,89.6092 ,1.88995 ,-0.87849 ,-8.61978 
453 ,89.8013 ,1.89182 ,-0.87165 ,-8.55262 
454 ,90.0097 ,1.89396 ,-0.90245 ,-8.85483 
455 ,90.2019 ,1.89587 ,-0.90929 ,-8.92198 
456 ,90.4100 ,1.89799 ,-0.91956 ,-9.02272 
457 ,90.6180 ,1.90001 ,-0.91614 ,-8.98914 
458 ,90.8101 ,1.90196 ,-0.94009 ,-9.22419 
459 ,91.0022 ,1.90389 ,-0.94694 ,-9.29135 
460 ,91.1943 ,1.90580 ,-0.95720 ,-9.39208 
461 ,91.3860 ,1.90772 ,-0.96747 ,-9.49282 
462 ,91.5783 ,1.90960 ,-0.95720 ,-9.39208 
463 ,91.7704 ,1.91154 ,-0.98116 ,-9.62713 
