Data stamp = , 01-05-2022 12:41:23 543

Calibration Values: 
Slope = , 26.54 , g/V 
Offset Voltage at no contact = , -0.501760 , V 

No , Time , Stage Position ,   Mass , Force 
   ,  (s) ,      (mm)      ,   (g)  , (mN)  

1 ,0.0000 ,0.99945 ,5.40803 ,53.06356 
2 ,0.2013 ,0.99949 ,5.41487 ,53.13072 
3 ,0.7300 ,1.00147 ,5.40118 ,52.99640 
4 ,0.9542 ,1.00369 ,5.40460 ,53.02998 
5 ,1.1620 ,1.00571 ,5.42172 ,53.19787 
6 ,1.3542 ,1.00770 ,5.39434 ,52.92925 
7 ,1.5620 ,1.00978 ,5.39434 ,52.92925 
8 ,1.7546 ,1.01170 ,5.34985 ,52.49273 
9 ,1.9626 ,1.01385 ,5.35327 ,52.52631 
10 ,2.1546 ,1.01583 ,5.32247 ,52.22410 
11 ,2.3463 ,1.01768 ,5.30536 ,52.05621 
12 ,2.5709 ,1.01979 ,5.28483 ,51.85474 
13 ,2.7629 ,1.02192 ,5.26087 ,51.61969 
14 ,2.9550 ,1.02373 ,5.23692 ,51.38464 
15 ,3.1631 ,1.02583 ,5.23692 ,51.38464 
16 ,3.3711 ,1.02793 ,5.21639 ,51.18317 
17 ,3.5792 ,1.03000 ,5.18901 ,50.91455 
18 ,3.7871 ,1.03210 ,5.17190 ,50.74666 
19 ,3.9950 ,1.03415 ,5.12741 ,50.31014 
20 ,4.1872 ,1.03605 ,5.14110 ,50.44445 
21 ,4.3955 ,1.03813 ,5.10345 ,50.07509 
22 ,4.5712 ,1.04001 ,5.10003 ,50.04151 
23 ,4.7637 ,1.04185 ,5.08634 ,49.90720 
24 ,4.9718 ,1.04392 ,5.05212 ,49.57142 
25 ,5.1797 ,1.04590 ,5.04185 ,49.47068 
26 ,5.3725 ,1.04794 ,5.01448 ,49.20205 
27 ,5.5641 ,1.04986 ,5.00079 ,49.06774 
28 ,5.7560 ,1.05171 ,4.95972 ,48.66480 
29 ,5.9480 ,1.05365 ,4.96657 ,48.73196 
30 ,6.1402 ,1.05559 ,4.93577 ,48.42975 
31 ,6.3324 ,1.05752 ,4.92550 ,48.32902 
32 ,6.5724 ,1.05983 ,4.91181 ,48.19471 
33 ,6.7801 ,1.06202 ,4.87759 ,47.85892 
34 ,6.9725 ,1.06394 ,4.86048 ,47.69103 
35 ,7.1647 ,1.06581 ,4.84679 ,47.55672 
36 ,7.3564 ,1.06773 ,4.81599 ,47.25451 
37 ,7.5489 ,1.06969 ,4.82626 ,47.35525 
38 ,7.7408 ,1.07164 ,4.78177 ,46.91873 
39 ,7.9650 ,1.07377 ,4.77150 ,46.81800 
40 ,8.1728 ,1.07592 ,4.76808 ,46.78442 
41 ,8.3653 ,1.07782 ,4.73728 ,46.48221 
42 ,8.5733 ,1.07993 ,4.70990 ,46.21359 
43 ,8.7654 ,1.08180 ,4.70648 ,46.18001 
44 ,8.9570 ,1.08377 ,4.66884 ,45.81065 
45 ,9.1496 ,1.08573 ,4.67226 ,45.84422 
46 ,9.3575 ,1.08779 ,4.63462 ,45.47486 
47 ,9.5819 ,1.08999 ,4.62093 ,45.34055 
48 ,9.7899 ,1.09209 ,4.61066 ,45.23981 
49 ,9.9980 ,1.09411 ,4.56960 ,44.83688 
50 ,10.2220 ,1.09624 ,4.56960 ,44.83688 
51 ,10.4300 ,1.09850 ,4.54906 ,44.63541 
52 ,10.6382 ,1.10050 ,4.51484 ,44.29962 
53 ,10.8300 ,1.10248 ,4.51826 ,44.33320 
54 ,11.0221 ,1.10445 ,4.48404 ,43.99742 
55 ,11.2142 ,1.10631 ,4.47378 ,43.89668 
56 ,11.4225 ,1.10843 ,4.46009 ,43.76237 
57 ,11.6148 ,1.11035 ,4.42586 ,43.42659 
58 ,11.8226 ,1.11236 ,4.42586 ,43.42659 
59 ,12.0145 ,1.11426 ,4.38822 ,43.05723 
60 ,12.2065 ,1.11623 ,4.39849 ,43.15796 
61 ,12.4147 ,1.11824 ,4.35058 ,42.68786 
62 ,12.6068 ,1.12020 ,4.35400 ,42.72144 
63 ,12.7988 ,1.12214 ,4.31978 ,42.38566 
64 ,13.0227 ,1.12439 ,4.32320 ,42.41924 
65 ,13.2151 ,1.12628 ,4.29582 ,42.15061 
66 ,13.4071 ,1.12819 ,4.29240 ,42.11703 
67 ,13.5994 ,1.13015 ,4.25133 ,41.71409 
68 ,13.7915 ,1.13207 ,4.24107 ,41.61336 
69 ,13.9995 ,1.13415 ,4.22053 ,41.41189 
70 ,14.1916 ,1.13611 ,4.21027 ,41.31115 
71 ,14.3833 ,1.13800 ,4.20000 ,41.21042 
72 ,14.5758 ,1.13993 ,4.17262 ,40.94179 
73 ,14.7838 ,1.14201 ,4.16578 ,40.87464 
74 ,14.9760 ,1.14390 ,4.13156 ,40.53885 
75 ,15.1677 ,1.14581 ,4.13498 ,40.57243 
76 ,15.3601 ,1.14777 ,4.10076 ,40.23665 
77 ,15.5996 ,1.15013 ,4.08707 ,40.10233 
78 ,15.7918 ,1.15217 ,4.07680 ,40.00160 
79 ,15.9839 ,1.15405 ,4.04258 ,39.66582 
80 ,16.1762 ,1.15596 ,4.03916 ,39.63224 
81 ,16.4165 ,1.15836 ,4.02205 ,39.46435 
82 ,16.6243 ,1.16032 ,4.00836 ,39.33003 
83 ,16.8327 ,1.16242 ,3.99467 ,39.19572 
84 ,17.0245 ,1.16441 ,3.96387 ,38.89352 
85 ,17.2167 ,1.16629 ,3.93992 ,38.65847 
86 ,17.4087 ,1.16817 ,3.93650 ,38.62489 
87 ,17.6008 ,1.17018 ,3.90570 ,38.32268 
88 ,17.7766 ,1.17202 ,3.90227 ,38.28911 
89 ,17.9851 ,1.17386 ,3.89885 ,38.25553 
90 ,18.1933 ,1.17607 ,3.86463 ,37.91975 
91 ,18.3852 ,1.17801 ,3.84410 ,37.71828 
92 ,18.5773 ,1.17994 ,3.81672 ,37.44965 
93 ,18.7855 ,1.18190 ,3.81672 ,37.44965 
94 ,18.9934 ,1.18410 ,3.79276 ,37.21460 
95 ,19.2016 ,1.18614 ,3.77908 ,37.08029 
96 ,19.3937 ,1.18805 ,3.75170 ,36.81166 
97 ,19.5855 ,1.18998 ,3.75170 ,36.81166 
98 ,19.7939 ,1.19205 ,3.72090 ,36.50946 
99 ,19.9857 ,1.19400 ,3.70721 ,36.37514 
100 ,20.1781 ,1.19594 ,3.67983 ,36.10652 
101 ,20.3700 ,1.19791 ,3.69352 ,36.24083 
102 ,20.5622 ,1.19976 ,3.64219 ,35.73716 
103 ,20.7704 ,1.20181 ,3.64561 ,35.77073 
104 ,20.9624 ,1.20380 ,3.60797 ,35.40137 
105 ,21.1706 ,1.20592 ,3.61139 ,35.43495 
106 ,21.3781 ,1.20786 ,3.57375 ,35.06559 
107 ,21.5707 ,1.20982 ,3.57717 ,35.09917 
108 ,21.7788 ,1.21193 ,3.54637 ,34.79696 
109 ,21.9866 ,1.21398 ,3.54637 ,34.79696 
110 ,22.1948 ,1.21602 ,3.51215 ,34.46118 
111 ,22.3867 ,1.21798 ,3.50872 ,34.42760 
112 ,22.5792 ,1.21995 ,3.48135 ,34.15898 
113 ,22.7870 ,1.22199 ,3.47108 ,34.05824 
114 ,22.9794 ,1.22395 ,3.44370 ,33.78961 
115 ,23.1869 ,1.22599 ,3.45055 ,33.85677 
116 ,23.4112 ,1.22811 ,3.40606 ,33.42025 
117 ,23.6196 ,1.23031 ,3.38895 ,33.25236 
118 ,23.8277 ,1.23235 ,3.39237 ,33.28594 
119 ,24.0196 ,1.23430 ,3.36842 ,33.05089 
120 ,24.2275 ,1.23636 ,3.34788 ,32.84942 
121 ,24.4037 ,1.23830 ,3.32051 ,32.58080 
122 ,24.5959 ,1.24006 ,3.32393 ,32.61437 
123 ,24.7880 ,1.24204 ,3.30682 ,32.44648 
124 ,24.9959 ,1.24405 ,3.26917 ,32.07712 
125 ,25.1880 ,1.24599 ,3.27259 ,32.11070 
126 ,25.3801 ,1.24794 ,3.23495 ,31.74134 
127 ,25.5883 ,1.24991 ,3.23837 ,31.77492 
128 ,25.7964 ,1.25208 ,3.22811 ,31.67418 
129 ,25.9885 ,1.25404 ,3.20757 ,31.47271 
130 ,26.1964 ,1.25611 ,3.17677 ,31.17051 
131 ,26.4043 ,1.25824 ,3.16651 ,31.06977 
132 ,26.5966 ,1.26004 ,3.14597 ,30.86830 
133 ,26.8048 ,1.26213 ,3.12202 ,30.63325 
134 ,26.9968 ,1.26409 ,3.11860 ,30.59968 
135 ,27.2050 ,1.26618 ,3.10491 ,30.46536 
136 ,27.4287 ,1.26832 ,3.08095 ,30.23031 
137 ,27.6207 ,1.27029 ,3.05358 ,29.96169 
138 ,27.8131 ,1.27223 ,3.05015 ,29.92811 
139 ,28.0053 ,1.27417 ,3.03304 ,29.76022 
140 ,28.1971 ,1.27612 ,3.02620 ,29.69306 
141 ,28.4055 ,1.27815 ,2.99882 ,29.42444 
142 ,28.5975 ,1.28011 ,2.97829 ,29.22297 
143 ,28.8056 ,1.28217 ,2.96460 ,29.08865 
144 ,29.0137 ,1.28425 ,2.95433 ,28.98792 
145 ,29.2217 ,1.28632 ,2.93380 ,28.78645 
146 ,29.4137 ,1.28829 ,2.92696 ,28.71929 
147 ,29.6055 ,1.29016 ,2.89958 ,28.45066 
148 ,29.7976 ,1.29202 ,2.88247 ,28.28277 
149 ,29.9899 ,1.29402 ,2.87562 ,28.21562 
150 ,30.1980 ,1.29606 ,2.85509 ,28.01415 
151 ,30.3899 ,1.29804 ,2.86193 ,28.08130 
152 ,30.6143 ,1.30026 ,2.82771 ,27.74552 
153 ,30.8223 ,1.30230 ,2.79691 ,27.44332 
154 ,31.0144 ,1.30424 ,2.79691 ,27.44332 
155 ,31.2065 ,1.30619 ,2.78322 ,27.30900 
156 ,31.4144 ,1.30826 ,2.76954 ,27.17469 
157 ,31.6064 ,1.31017 ,2.75243 ,27.00680 
158 ,31.7987 ,1.31206 ,2.73531 ,26.83891 
159 ,31.9904 ,1.31397 ,2.73189 ,26.80533 
160 ,32.1987 ,1.31600 ,2.69425 ,26.43597 
161 ,32.4065 ,1.31814 ,2.69083 ,26.40239 
162 ,32.5991 ,1.32002 ,2.66687 ,26.16734 
163 ,32.8068 ,1.32212 ,2.66345 ,26.13376 
164 ,32.9992 ,1.32410 ,2.62581 ,25.76440 
165 ,33.1910 ,1.32601 ,2.62581 ,25.76440 
166 ,33.3838 ,1.32796 ,2.60527 ,25.56293 
167 ,33.6072 ,1.33017 ,2.59843 ,25.49577 
168 ,33.7995 ,1.33206 ,2.57789 ,25.29430 
169 ,33.9917 ,1.33400 ,2.56763 ,25.19357 
170 ,34.1993 ,1.33605 ,2.53341 ,24.85779 
171 ,34.3919 ,1.33807 ,2.54025 ,24.92494 
172 ,34.6156 ,1.34015 ,2.50261 ,24.55558 
173 ,34.8080 ,1.34212 ,2.49918 ,24.52200 
174 ,35.0157 ,1.34425 ,2.49234 ,24.45485 
175 ,35.2081 ,1.34618 ,2.47865 ,24.32053 
176 ,35.4160 ,1.34824 ,2.44785 ,24.01833 
177 ,35.6243 ,1.35028 ,2.42390 ,23.78328 
178 ,35.8163 ,1.35235 ,2.43759 ,23.91759 
179 ,36.0082 ,1.35411 ,2.41363 ,23.68255 
180 ,36.2005 ,1.35604 ,2.38968 ,23.44750 
181 ,36.3922 ,1.35799 ,2.38625 ,23.41392 
182 ,36.6001 ,1.36009 ,2.36230 ,23.17887 
183 ,36.7923 ,1.36197 ,2.35545 ,23.11171 
184 ,37.0009 ,1.36400 ,2.33834 ,22.94382 
185 ,37.2088 ,1.36612 ,2.31439 ,22.70877 
186 ,37.4008 ,1.36809 ,2.29728 ,22.54088 
187 ,37.5931 ,1.37002 ,2.28017 ,22.37299 
188 ,37.8011 ,1.37207 ,2.25963 ,22.17152 
189 ,37.9932 ,1.37398 ,2.26990 ,22.27226 
190 ,38.1853 ,1.37592 ,2.23568 ,21.93647 
191 ,38.3770 ,1.37784 ,2.22199 ,21.80216 
192 ,38.5851 ,1.37981 ,2.22199 ,21.80216 
193 ,38.7776 ,1.38188 ,2.19119 ,21.49996 
194 ,38.9852 ,1.38388 ,2.18435 ,21.43280 
195 ,39.1777 ,1.38582 ,2.14670 ,21.06344 
196 ,39.3696 ,1.38774 ,2.15355 ,21.13059 
197 ,39.5780 ,1.38978 ,2.12617 ,20.86197 
198 ,39.7860 ,1.39194 ,2.12617 ,20.86197 
199 ,39.9941 ,1.39401 ,2.10906 ,20.69408 
200 ,40.1861 ,1.39592 ,2.09879 ,20.59334 
201 ,40.3942 ,1.39796 ,2.08168 ,20.42545 
202 ,40.5864 ,1.39991 ,2.06799 ,20.29114 
203 ,40.7939 ,1.40198 ,2.05088 ,20.12325 
204 ,41.2427 ,1.40514 ,2.03719 ,19.98893 
205 ,41.4509 ,1.40857 ,2.00297 ,19.65315 
206 ,41.6428 ,1.41051 ,1.96875 ,19.31737 
207 ,41.8184 ,1.41237 ,1.98244 ,19.45168 
208 ,42.0108 ,1.41416 ,1.96875 ,19.31737 
209 ,42.2190 ,1.41623 ,1.93453 ,18.98158 
210 ,42.4107 ,1.41822 ,1.93111 ,18.94801 
211 ,42.6032 ,1.42008 ,1.91742 ,18.81369 
212 ,42.7952 ,1.42199 ,1.90715 ,18.71296 
213 ,42.9709 ,1.42387 ,1.89688 ,18.61222 
214 ,43.1634 ,1.42566 ,1.86608 ,18.31002 
215 ,43.3716 ,1.42778 ,1.86951 ,18.34360 
216 ,43.5637 ,1.42970 ,1.84555 ,18.10855 
217 ,43.7718 ,1.43179 ,1.84213 ,18.07497 
218 ,43.9638 ,1.43372 ,1.81133 ,17.77276 
219 ,44.1559 ,1.43559 ,1.82160 ,17.87350 
220 ,44.3638 ,1.43766 ,1.79080 ,17.57129 
221 ,44.5559 ,1.43958 ,1.77369 ,17.40340 
222 ,44.7479 ,1.44148 ,1.77026 ,17.36983 
223 ,44.9241 ,1.44342 ,1.73946 ,17.06762 
224 ,45.1319 ,1.44524 ,1.72578 ,16.93331 
225 ,45.3403 ,1.44746 ,1.70866 ,16.76542 
226 ,45.5642 ,1.44971 ,1.69498 ,16.63110 
227 ,45.7726 ,1.45178 ,1.69498 ,16.63110 
228 ,45.9647 ,1.45371 ,1.67786 ,16.46321 
229 ,46.1565 ,1.45560 ,1.67786 ,16.46321 
230 ,46.3487 ,1.45751 ,1.65391 ,16.22816 
231 ,46.5568 ,1.45965 ,1.62653 ,15.95954 
232 ,46.7489 ,1.46156 ,1.64022 ,16.09385 
233 ,46.9569 ,1.46356 ,1.60942 ,15.79164 
234 ,47.1491 ,1.46550 ,1.61284 ,15.82522 
235 ,47.3566 ,1.46763 ,1.58204 ,15.52302 
236 ,47.5652 ,1.46962 ,1.57178 ,15.42228 
237 ,47.7570 ,1.47167 ,1.54782 ,15.18724 
238 ,47.9654 ,1.47360 ,1.55809 ,15.28797 
239 ,48.1573 ,1.47562 ,1.51702 ,14.88503 
240 ,48.3496 ,1.47750 ,1.52387 ,14.95219 
241 ,48.5736 ,1.47965 ,1.48622 ,14.58283 
242 ,48.7817 ,1.48184 ,1.47938 ,14.51567 
243 ,48.9738 ,1.48375 ,1.47596 ,14.48209 
244 ,49.1497 ,1.48566 ,1.45200 ,14.24704 
245 ,49.3420 ,1.48742 ,1.44174 ,14.14631 
246 ,49.5336 ,1.48937 ,1.43147 ,14.04557 
247 ,49.7421 ,1.49136 ,1.41778 ,13.91126 
248 ,49.9500 ,1.49351 ,1.40409 ,13.77695 
249 ,50.1422 ,1.49544 ,1.38014 ,13.54190 
250 ,50.3343 ,1.49733 ,1.39040 ,13.64263 
251 ,50.5423 ,1.49948 ,1.35618 ,13.30685 
252 ,50.7343 ,1.50131 ,1.34591 ,13.20612 
253 ,50.9263 ,1.50326 ,1.34249 ,13.17254 
254 ,51.1346 ,1.50532 ,1.32538 ,13.00465 
255 ,51.3266 ,1.50729 ,1.32196 ,12.97107 
256 ,51.5187 ,1.50921 ,1.29116 ,12.66886 
257 ,51.7107 ,1.51118 ,1.29116 ,12.66886 
258 ,51.9029 ,1.51307 ,1.27063 ,12.46739 
259 ,52.1109 ,1.51511 ,1.27063 ,12.46739 
260 ,52.3032 ,1.51707 ,1.23641 ,12.13161 
261 ,52.4951 ,1.51899 ,1.23298 ,12.09803 
262 ,52.7034 ,1.52106 ,1.20903 ,11.86298 
263 ,52.8951 ,1.52309 ,1.20903 ,11.86298 
264 ,53.0872 ,1.52487 ,1.20218 ,11.79583 
265 ,53.2793 ,1.52678 ,1.18165 ,11.59436 
266 ,53.4876 ,1.52877 ,1.16796 ,11.46004 
267 ,53.6957 ,1.53099 ,1.15427 ,11.32573 
268 ,53.9037 ,1.53306 ,1.14058 ,11.19142 
269 ,54.0959 ,1.53495 ,1.13374 ,11.12426 
270 ,54.3040 ,1.53701 ,1.10294 ,10.82206 
271 ,54.4960 ,1.53896 ,1.09267 ,10.72132 
272 ,54.7042 ,1.54106 ,1.07899 ,10.58701 
273 ,54.8958 ,1.54295 ,1.06187 ,10.41912 
274 ,55.0719 ,1.54483 ,1.07556 ,10.55343 
275 ,55.2644 ,1.54663 ,1.05161 ,10.31838 
276 ,55.4562 ,1.54851 ,1.04134 ,10.21765 
277 ,55.6647 ,1.55059 ,1.02423 ,10.04976 
278 ,55.8885 ,1.55278 ,1.01396 ,9.94902 
279 ,56.0966 ,1.55491 ,0.99685 ,9.78113 
280 ,56.2889 ,1.55686 ,0.99685 ,9.78113 
281 ,56.4968 ,1.55896 ,0.96948 ,9.51250 
282 ,56.6889 ,1.56084 ,0.96605 ,9.47892 
283 ,56.8810 ,1.56279 ,0.94552 ,9.27745 
284 ,57.0731 ,1.56472 ,0.94894 ,9.31103 
285 ,57.2648 ,1.56661 ,0.91472 ,8.97525 
286 ,57.4572 ,1.56853 ,0.90446 ,8.87451 
287 ,57.6653 ,1.57053 ,0.90103 ,8.84094 
288 ,57.8573 ,1.57253 ,0.88050 ,8.63947 
289 ,58.0495 ,1.57452 ,0.87366 ,8.57231 
290 ,58.2576 ,1.57657 ,0.85312 ,8.37084 
291 ,58.4497 ,1.57849 ,0.86339 ,8.47158 
292 ,58.6417 ,1.58041 ,0.82575 ,8.10221 
293 ,58.8339 ,1.58231 ,0.82917 ,8.13579 
294 ,59.0259 ,1.58423 ,0.79837 ,7.83359 
295 ,59.2500 ,1.58640 ,0.80521 ,7.90074 
296 ,59.4417 ,1.58842 ,0.77441 ,7.59854 
297 ,59.6342 ,1.59031 ,0.77441 ,7.59854 
298 ,59.8259 ,1.59222 ,0.75730 ,7.43065 
299 ,60.0183 ,1.59417 ,0.73677 ,7.22918 
300 ,60.2262 ,1.59621 ,0.72992 ,7.16202 
301 ,60.4341 ,1.59830 ,0.72650 ,7.12844 
302 ,60.6586 ,1.60047 ,0.69570 ,6.82624 
303 ,60.8664 ,1.60264 ,0.69228 ,6.79266 
304 ,61.0588 ,1.60459 ,0.66490 ,6.52403 
305 ,61.2666 ,1.60663 ,0.67175 ,6.59119 
306 ,61.4589 ,1.60860 ,0.65464 ,6.42330 
307 ,61.6509 ,1.61048 ,0.65464 ,6.42330 
308 ,61.8591 ,1.61254 ,0.63068 ,6.18825 
309 ,62.0512 ,1.61451 ,0.63068 ,6.18825 
310 ,62.2432 ,1.61644 ,0.60330 ,5.91962 
311 ,62.4514 ,1.61851 ,0.59646 ,5.85247 
312 ,62.6430 ,1.62041 ,0.58277 ,5.71815 
313 ,62.8516 ,1.62245 ,0.58277 ,5.71815 
314 ,63.0593 ,1.62458 ,0.55539 ,5.44953 
315 ,63.2517 ,1.62649 ,0.56566 ,5.55026 
316 ,63.4432 ,1.62840 ,0.52802 ,5.18090 
317 ,63.6518 ,1.63048 ,0.52802 ,5.18090 
318 ,63.8599 ,1.63258 ,0.50748 ,4.97943 
319 ,64.0678 ,1.63466 ,0.51091 ,5.01301 
320 ,64.2600 ,1.63653 ,0.47668 ,4.67723 
321 ,64.4678 ,1.63857 ,0.46984 ,4.61007 
322 ,64.6602 ,1.64054 ,0.47326 ,4.64365 
323 ,64.8519 ,1.64246 ,0.46300 ,4.54291 
324 ,65.0444 ,1.64441 ,0.42877 ,4.20713 
325 ,65.2525 ,1.64637 ,0.43220 ,4.24071 
326 ,65.4606 ,1.64861 ,0.41166 ,4.03924 
327 ,65.6527 ,1.65052 ,0.42193 ,4.13997 
328 ,65.8446 ,1.65239 ,0.39113 ,3.83777 
329 ,66.0364 ,1.65428 ,0.38086 ,3.73703 
330 ,66.2126 ,1.65622 ,0.37060 ,3.63630 
331 ,66.4207 ,1.65812 ,0.35691 ,3.50199 
332 ,66.6129 ,1.66008 ,0.36033 ,3.53557 
333 ,66.8211 ,1.66217 ,0.33295 ,3.26694 
334 ,67.0127 ,1.66419 ,0.33980 ,3.33410 
335 ,67.2052 ,1.66602 ,0.30558 ,2.99831 
336 ,67.4132 ,1.66806 ,0.31926 ,3.13263 
337 ,67.6215 ,1.67020 ,0.27478 ,2.69611 
338 ,67.8133 ,1.67211 ,0.29531 ,2.89758 
339 ,68.0056 ,1.67399 ,0.27135 ,2.66253 
340 ,68.2136 ,1.67606 ,0.27820 ,2.72969 
341 ,68.4054 ,1.67798 ,0.24398 ,2.39390 
342 ,68.5976 ,1.67992 ,0.25424 ,2.49464 
343 ,68.7895 ,1.68183 ,0.24055 ,2.36032 
344 ,68.9820 ,1.68377 ,0.22002 ,2.15885 
345 ,69.1738 ,1.68568 ,0.22344 ,2.19243 
346 ,69.3827 ,1.68772 ,0.18922 ,1.85665 
347 ,69.5743 ,1.68970 ,0.18922 ,1.85665 
348 ,69.7824 ,1.69180 ,0.15500 ,1.52087 
349 ,69.9744 ,1.69371 ,0.16527 ,1.62160 
350 ,70.1666 ,1.69557 ,0.15842 ,1.55445 
351 ,70.3586 ,1.69753 ,0.16527 ,1.62160 
352 ,70.5507 ,1.69947 ,0.13447 ,1.31940 
353 ,70.7427 ,1.70138 ,0.11736 ,1.15151 
354 ,70.9346 ,1.70327 ,0.12762 ,1.25224 
355 ,71.1265 ,1.70519 ,0.10025 ,0.98361 
356 ,71.3189 ,1.70709 ,0.10367 ,1.01719 
357 ,71.5270 ,1.70919 ,0.07971 ,0.78214 
358 ,71.7350 ,1.71126 ,0.07629 ,0.74857 
359 ,71.9271 ,1.71318 ,0.05918 ,0.58067 
360 ,72.1351 ,1.71525 ,0.05576 ,0.54710 
361 ,72.3271 ,1.71713 ,0.03522 ,0.34563 
362 ,72.5513 ,1.71933 ,0.02496 ,0.24489 
363 ,72.7434 ,1.72136 ,0.01811 ,0.17773 
364 ,72.9355 ,1.72333 ,0.02154 ,0.21131 
365 ,73.1274 ,1.72521 ,-0.00926 ,-0.09089 
366 ,73.3196 ,1.72715 ,-0.01611 ,-0.15805 
367 ,73.5116 ,1.72908 ,-0.01269 ,-0.12447 
368 ,73.7196 ,1.73115 ,-0.04006 ,-0.39310 
369 ,73.9279 ,1.73318 ,-0.05033 ,-0.49383 
370 ,74.1358 ,1.73528 ,-0.04006 ,-0.39310 
371 ,74.3281 ,1.73723 ,-0.07086 ,-0.69530 
372 ,74.5362 ,1.73927 ,-0.06744 ,-0.66172 
373 ,74.7282 ,1.74120 ,-0.09482 ,-0.93035 
374 ,74.9360 ,1.74325 ,-0.08797 ,-0.86319 
375 ,75.1284 ,1.74520 ,-0.11193 ,-1.09824 
376 ,75.3203 ,1.74710 ,-0.11877 ,-1.16540 
377 ,75.5124 ,1.74901 ,-0.12219 ,-1.19898 
378 ,75.7043 ,1.75095 ,-0.14957 ,-1.46760 
379 ,75.8968 ,1.75290 ,-0.13246 ,-1.29971 
380 ,76.1203 ,1.75501 ,-0.16326 ,-1.60191 
381 ,76.3284 ,1.75717 ,-0.16326 ,-1.60191 
382 ,76.5205 ,1.75912 ,-0.16668 ,-1.63549 
383 ,76.7131 ,1.76106 ,-0.17695 ,-1.73623 
384 ,76.9371 ,1.76323 ,-0.19064 ,-1.87054 
385 ,77.1291 ,1.76520 ,-0.19748 ,-1.93770 
386 ,77.3371 ,1.76727 ,-0.20775 ,-2.03843 
387 ,77.5294 ,1.76921 ,-0.21459 ,-2.10559 
388 ,77.7216 ,1.77115 ,-0.24197 ,-2.37422 
389 ,77.9132 ,1.77304 ,-0.23513 ,-2.30706 
390 ,78.1058 ,1.77497 ,-0.25908 ,-2.54211 
391 ,78.3134 ,1.77705 ,-0.25224 ,-2.47495 
392 ,78.5059 ,1.77892 ,-0.27961 ,-2.74358 
393 ,78.6978 ,1.78087 ,-0.28304 ,-2.77716 
394 ,78.8901 ,1.78278 ,-0.28304 ,-2.77716 
395 ,79.0821 ,1.78472 ,-0.30699 ,-3.01220 
396 ,79.2742 ,1.78664 ,-0.29673 ,-2.91147 
397 ,79.4660 ,1.78855 ,-0.32068 ,-3.14652 
398 ,79.6744 ,1.79067 ,-0.30699 ,-3.01220 
399 ,79.8664 ,1.79255 ,-0.33779 ,-3.31441 
400 ,80.0583 ,1.79450 ,-0.34121 ,-3.34799 
401 ,80.2665 ,1.79654 ,-0.36859 ,-3.61661 
402 ,80.4587 ,1.79843 ,-0.36517 ,-3.58303 
403 ,80.6508 ,1.80045 ,-0.36859 ,-3.61661 
404 ,80.8589 ,1.80247 ,-0.38912 ,-3.81808 
405 ,81.0507 ,1.80438 ,-0.38570 ,-3.78450 
406 ,81.2428 ,1.80641 ,-0.40623 ,-3.98597 
407 ,81.4349 ,1.80820 ,-0.40966 ,-4.01955 
408 ,81.6269 ,1.81014 ,-0.43019 ,-4.22102 
409 ,81.8190 ,1.81211 ,-0.44046 ,-4.32176 
410 ,82.0270 ,1.81406 ,-0.43019 ,-4.22102 
411 ,82.2356 ,1.81625 ,-0.44730 ,-4.38891 
412 ,82.4595 ,1.81836 ,-0.47126 ,-4.62396 
413 ,82.6676 ,1.82055 ,-0.46099 ,-4.52323 
414 ,82.8597 ,1.82250 ,-0.49863 ,-4.89259 
415 ,83.0839 ,1.82467 ,-0.48837 ,-4.79185 
416 ,83.2919 ,1.82681 ,-0.48837 ,-4.79185 
417 ,83.4838 ,1.82874 ,-0.51917 ,-5.09406 
418 ,83.6921 ,1.83085 ,-0.50890 ,-4.99332 
419 ,83.8841 ,1.83273 ,-0.53628 ,-5.26195 
420 ,84.0762 ,1.83458 ,-0.53285 ,-5.22837 
421 ,84.2681 ,1.83659 ,-0.54312 ,-5.32911 
422 ,84.4599 ,1.83847 ,-0.56365 ,-5.53058 
423 ,84.6682 ,1.84050 ,-0.55339 ,-5.42984 
424 ,84.8764 ,1.84266 ,-0.57734 ,-5.66489 
425 ,85.0685 ,1.84455 ,-0.57734 ,-5.66489 
426 ,85.2607 ,1.84648 ,-0.59788 ,-5.86636 
427 ,85.4528 ,1.84846 ,-0.58761 ,-5.76562 
428 ,85.6605 ,1.85051 ,-0.62183 ,-6.10141 
429 ,85.8529 ,1.85244 ,-0.60814 ,-5.96709 
430 ,86.0449 ,1.85433 ,-0.63210 ,-6.20214 
431 ,86.2691 ,1.85646 ,-0.63210 ,-6.20214 
432 ,86.4770 ,1.85866 ,-0.64921 ,-6.37003 
433 ,86.6527 ,1.86057 ,-0.65263 ,-6.40361 
434 ,86.8450 ,1.86241 ,-0.66290 ,-6.50435 
435 ,87.0693 ,1.86442 ,-0.66974 ,-6.57150 
436 ,87.2613 ,1.86646 ,-0.69712 ,-6.84013 
437 ,87.4693 ,1.86844 ,-0.69370 ,-6.80655 
438 ,87.6616 ,1.87048 ,-0.70396 ,-6.90729 
439 ,87.8537 ,1.87243 ,-0.71423 ,-7.00802 
440 ,88.0776 ,1.87453 ,-0.74161 ,-7.27665 
441 ,88.2698 ,1.87660 ,-0.72792 ,-7.14233 
442 ,88.4778 ,1.87864 ,-0.74503 ,-7.31023 
443 ,88.6701 ,1.88058 ,-0.74845 ,-7.34380 
444 ,88.8621 ,1.88258 ,-0.75530 ,-7.41096 
445 ,89.0543 ,1.88440 ,-0.75530 ,-7.41096 
446 ,89.2623 ,1.88646 ,-0.77583 ,-7.61243 
447 ,89.4545 ,1.88841 ,-0.77241 ,-7.57885 
448 ,89.6624 ,1.89045 ,-0.79636 ,-7.81390 
449 ,89.8544 ,1.89239 ,-0.79636 ,-7.81390 
450 ,90.0627 ,1.89447 ,-0.83058 ,-8.14968 
451 ,90.2866 ,1.89662 ,-0.81347 ,-7.98179 
452 ,90.4786 ,1.89866 ,-0.83401 ,-8.18326 
453 ,90.7027 ,1.90093 ,-0.84085 ,-8.25042 
454 ,90.9110 ,1.90296 ,-0.84427 ,-8.28400 
455 ,91.1029 ,1.90492 ,-0.85796 ,-8.41831 
456 ,91.3109 ,1.90695 ,-0.86138 ,-8.45189 
457 ,91.5033 ,1.90890 ,-0.88534 ,-8.68694 
458 ,91.6953 ,1.91081 ,-0.86823 ,-8.51904 
459 ,91.8875 ,1.91272 ,-0.89218 ,-8.75409 
460 ,92.0791 ,1.91465 ,-0.90587 ,-8.88841 
461 ,92.2874 ,1.91666 ,-0.89903 ,-8.82125 
462 ,92.4955 ,1.91878 ,-0.91956 ,-9.02272 
463 ,92.6877 ,1.92075 ,-0.90929 ,-8.92198 
