Data stamp = , 29-04-2022 23:16:02 262

Calibration Values: 
Slope = , 26.54 , g/V 
Offset Voltage at no contact = , -0.501760 , V 

No , Time , Stage Position ,   Mass , Force 
   ,  (s) ,      (mm)      ,   (g)  , (mN)  

1 ,0.0000 ,1.04950 ,5.01106 ,49.16848 
2 ,0.2219 ,1.04959 ,4.98368 ,48.89985 
3 ,0.7663 ,1.05170 ,4.97683 ,48.83269 
4 ,0.9586 ,1.05383 ,4.99052 ,48.96701 
5 ,1.1827 ,1.05594 ,4.98026 ,48.86627 
6 ,1.3908 ,1.05798 ,4.98026 ,48.86627 
7 ,1.5828 ,1.06005 ,4.94261 ,48.49691 
8 ,1.7907 ,1.06206 ,4.92892 ,48.36260 
9 ,1.9827 ,1.06405 ,4.91181 ,48.19471 
10 ,2.1750 ,1.06590 ,4.90497 ,48.12755 
11 ,2.3672 ,1.06786 ,4.87759 ,47.85892 
12 ,2.5593 ,1.06979 ,4.87759 ,47.85892 
13 ,2.7671 ,1.07186 ,4.83652 ,47.45598 
14 ,2.9595 ,1.07380 ,4.82284 ,47.32167 
15 ,3.1676 ,1.07587 ,4.79546 ,47.05304 
16 ,3.3755 ,1.07792 ,4.79546 ,47.05304 
17 ,3.5677 ,1.07983 ,4.75782 ,46.68368 
18 ,3.7597 ,1.08183 ,4.75782 ,46.68368 
19 ,3.9515 ,1.08371 ,4.73386 ,46.44863 
20 ,4.1439 ,1.08560 ,4.71333 ,46.24716 
21 ,4.3519 ,1.08772 ,4.68937 ,46.01212 
22 ,4.5600 ,1.08984 ,4.67911 ,45.91138 
23 ,4.7520 ,1.09171 ,4.64488 ,45.57560 
24 ,4.9599 ,1.09375 ,4.65173 ,45.64275 
25 ,5.1521 ,1.09573 ,4.61751 ,45.30697 
26 ,5.3445 ,1.09766 ,4.61408 ,45.27339 
27 ,5.5523 ,1.09967 ,4.58671 ,45.00477 
28 ,5.7441 ,1.10172 ,4.56960 ,44.83688 
29 ,5.9364 ,1.10354 ,4.53880 ,44.53467 
30 ,6.1446 ,1.10561 ,4.50800 ,44.23247 
31 ,6.3366 ,1.10752 ,4.53195 ,44.46751 
32 ,6.5289 ,1.10948 ,4.48746 ,44.03100 
33 ,6.7367 ,1.11155 ,4.48062 ,43.96384 
34 ,6.9290 ,1.11343 ,4.44640 ,43.62806 
35 ,7.1368 ,1.11553 ,4.44640 ,43.62806 
36 ,7.3292 ,1.11748 ,4.40191 ,43.19154 
37 ,7.5372 ,1.11958 ,4.41560 ,43.32585 
38 ,7.7294 ,1.12153 ,4.37453 ,42.92291 
39 ,7.9214 ,1.12344 ,4.36769 ,42.85576 
40 ,8.1135 ,1.12534 ,4.34031 ,42.58713 
41 ,8.3052 ,1.12720 ,4.32320 ,42.41924 
42 ,8.4977 ,1.12915 ,4.31978 ,42.38566 
43 ,8.6898 ,1.13111 ,4.28898 ,42.08345 
44 ,8.8814 ,1.13303 ,4.28898 ,42.08345 
45 ,9.0739 ,1.13488 ,4.26160 ,41.81483 
46 ,9.2661 ,1.13685 ,4.25133 ,41.71409 
47 ,9.4743 ,1.13896 ,4.23422 ,41.54620 
48 ,9.6984 ,1.14106 ,4.22738 ,41.47905 
49 ,9.9063 ,1.14328 ,4.20000 ,41.21042 
50 ,10.0984 ,1.14511 ,4.16578 ,40.87464 
51 ,10.2903 ,1.14702 ,4.15209 ,40.74032 
52 ,10.4822 ,1.14898 ,4.15551 ,40.77390 
53 ,10.6745 ,1.15092 ,4.12129 ,40.43812 
54 ,10.8666 ,1.15284 ,4.09391 ,40.16949 
55 ,11.0588 ,1.15473 ,4.09391 ,40.16949 
56 ,11.2668 ,1.15685 ,4.07680 ,40.00160 
57 ,11.4750 ,1.15880 ,4.05627 ,39.80013 
58 ,11.6669 ,1.16087 ,4.02547 ,39.49793 
59 ,11.8909 ,1.16309 ,4.00494 ,39.29646 
60 ,12.0989 ,1.16520 ,4.00836 ,39.33003 
61 ,12.2911 ,1.16708 ,3.96729 ,38.92709 
62 ,12.4831 ,1.16897 ,3.97414 ,38.99425 
63 ,12.6749 ,1.17094 ,3.94676 ,38.72562 
64 ,12.8672 ,1.17282 ,3.93992 ,38.65847 
65 ,13.0591 ,1.17472 ,3.91938 ,38.45700 
66 ,13.2511 ,1.17667 ,3.88516 ,38.12122 
67 ,13.4433 ,1.17861 ,3.89201 ,38.18837 
68 ,13.6675 ,1.18082 ,3.85779 ,37.85259 
69 ,13.8597 ,1.18276 ,3.85094 ,37.78543 
70 ,14.0679 ,1.18483 ,3.84067 ,37.68470 
71 ,14.2599 ,1.18673 ,3.82014 ,37.48323 
72 ,14.4521 ,1.18867 ,3.78250 ,37.11387 
73 ,14.6441 ,1.19059 ,3.78934 ,37.18102 
74 ,14.8519 ,1.19267 ,3.74828 ,36.77808 
75 ,15.0441 ,1.19460 ,3.75854 ,36.87882 
76 ,15.2364 ,1.19655 ,3.72432 ,36.54303 
77 ,15.4445 ,1.19859 ,3.71063 ,36.40872 
78 ,15.6525 ,1.20069 ,3.68325 ,36.14010 
79 ,15.8446 ,1.20259 ,3.68668 ,36.17367 
80 ,16.0527 ,1.20474 ,3.64219 ,35.73716 
81 ,16.2764 ,1.20678 ,3.64561 ,35.77073 
82 ,16.4690 ,1.20887 ,3.62166 ,35.53569 
83 ,16.6766 ,1.21084 ,3.60112 ,35.33422 
84 ,16.8690 ,1.21280 ,3.59086 ,35.23348 
85 ,17.0608 ,1.21476 ,3.57032 ,35.03201 
86 ,17.2531 ,1.21665 ,3.54979 ,34.83054 
87 ,17.4449 ,1.21868 ,3.54637 ,34.79696 
88 ,17.6373 ,1.22051 ,3.51215 ,34.46118 
89 ,17.8612 ,1.22276 ,3.50530 ,34.39402 
90 ,18.0536 ,1.22467 ,3.48477 ,34.19255 
91 ,18.2616 ,1.22668 ,3.47450 ,34.09182 
92 ,18.4858 ,1.22891 ,3.44713 ,33.82319 
93 ,18.6938 ,1.23101 ,3.43344 ,33.68888 
94 ,18.9018 ,1.23314 ,3.40948 ,33.45383 
95 ,19.0938 ,1.23506 ,3.38895 ,33.25236 
96 ,19.2859 ,1.23701 ,3.39579 ,33.31952 
97 ,19.5099 ,1.23911 ,3.36499 ,33.01731 
98 ,19.7021 ,1.24118 ,3.35473 ,32.91658 
99 ,19.8943 ,1.24308 ,3.32393 ,32.61437 
100 ,20.0865 ,1.24496 ,3.32393 ,32.61437 
101 ,20.2781 ,1.24694 ,3.28286 ,32.21143 
102 ,20.4866 ,1.24892 ,3.28971 ,32.27859 
103 ,20.6943 ,1.25109 ,3.25548 ,31.94281 
104 ,20.8867 ,1.25300 ,3.25548 ,31.94281 
105 ,21.0948 ,1.25506 ,3.22126 ,31.60702 
106 ,21.2870 ,1.25697 ,3.23495 ,31.74134 
107 ,21.4789 ,1.25895 ,3.19046 ,31.30482 
108 ,21.6710 ,1.26082 ,3.18704 ,31.27124 
109 ,21.8794 ,1.26281 ,3.16651 ,31.06977 
110 ,22.0714 ,1.26484 ,3.15966 ,31.00262 
111 ,22.2790 ,1.26688 ,3.12202 ,30.63325 
112 ,22.4710 ,1.26882 ,3.12544 ,30.66683 
113 ,22.6632 ,1.27080 ,3.10491 ,30.46536 
114 ,22.8874 ,1.27306 ,3.09806 ,30.39821 
115 ,23.0793 ,1.27490 ,3.06042 ,30.02884 
116 ,23.2717 ,1.27682 ,3.05358 ,29.96169 
117 ,23.4798 ,1.27895 ,3.02278 ,29.65948 
118 ,23.6875 ,1.28097 ,3.03304 ,29.76022 
119 ,23.8959 ,1.28306 ,3.00224 ,29.45801 
120 ,24.1040 ,1.28513 ,2.97829 ,29.22297 
121 ,24.2961 ,1.28708 ,2.96118 ,29.05507 
122 ,24.4882 ,1.28896 ,2.96802 ,29.12223 
123 ,24.6799 ,1.29090 ,2.92696 ,28.71929 
124 ,24.8725 ,1.29281 ,2.93038 ,28.75287 
125 ,25.0805 ,1.29495 ,2.90300 ,28.48424 
126 ,25.2726 ,1.29685 ,2.90985 ,28.55140 
127 ,25.4647 ,1.29877 ,2.87905 ,28.24919 
128 ,25.6564 ,1.30066 ,2.85851 ,28.04772 
129 ,25.8647 ,1.30281 ,2.84482 ,27.91341 
130 ,26.0729 ,1.30482 ,2.83798 ,27.84625 
131 ,26.2650 ,1.30674 ,2.82087 ,27.67836 
132 ,26.4567 ,1.30868 ,2.79691 ,27.44332 
133 ,26.6491 ,1.31062 ,2.79691 ,27.44332 
134 ,26.8408 ,1.31251 ,2.75243 ,27.00680 
135 ,27.0333 ,1.31448 ,2.75927 ,27.07395 
136 ,27.2253 ,1.31645 ,2.74558 ,26.93964 
137 ,27.4013 ,1.31821 ,2.71820 ,26.67101 
138 ,27.5933 ,1.32004 ,2.72505 ,26.73817 
139 ,27.7856 ,1.32197 ,2.69767 ,26.46954 
140 ,27.9771 ,1.32391 ,2.67372 ,26.23450 
141 ,28.1698 ,1.32582 ,2.68740 ,26.36881 
142 ,28.3778 ,1.32788 ,2.64292 ,25.93229 
143 ,28.5697 ,1.32979 ,2.64292 ,25.93229 
144 ,28.7619 ,1.33170 ,2.61896 ,25.69724 
145 ,28.9539 ,1.33362 ,2.60869 ,25.59651 
146 ,29.1459 ,1.33554 ,2.58474 ,25.36146 
147 ,29.3541 ,1.33760 ,2.58816 ,25.39504 
148 ,29.5460 ,1.33954 ,2.55052 ,25.02568 
149 ,29.7383 ,1.34149 ,2.53683 ,24.89136 
150 ,29.9304 ,1.34341 ,2.51630 ,24.68989 
151 ,30.1220 ,1.34543 ,2.51630 ,24.68989 
152 ,30.3147 ,1.34726 ,2.50945 ,24.62274 
153 ,30.5226 ,1.34935 ,2.47523 ,24.28696 
154 ,30.7148 ,1.35124 ,2.48550 ,24.38769 
155 ,30.9068 ,1.35317 ,2.44443 ,23.98475 
156 ,31.1148 ,1.35521 ,2.45127 ,24.05191 
157 ,31.3067 ,1.35713 ,2.42048 ,23.74970 
158 ,31.4989 ,1.35905 ,2.39994 ,23.54823 
159 ,31.6911 ,1.36099 ,2.40336 ,23.58181 
160 ,31.8833 ,1.36292 ,2.37256 ,23.27961 
161 ,32.0913 ,1.36500 ,2.36230 ,23.17887 
162 ,32.2830 ,1.36691 ,2.34861 ,23.04456 
163 ,32.4757 ,1.36886 ,2.34519 ,23.01098 
164 ,32.6835 ,1.37093 ,2.32465 ,22.80951 
165 ,32.8757 ,1.37286 ,2.30412 ,22.60804 
166 ,33.0676 ,1.37475 ,2.29043 ,22.47373 
167 ,33.2598 ,1.37663 ,2.27332 ,22.30584 
168 ,33.4519 ,1.37864 ,2.25963 ,22.17152 
169 ,33.6439 ,1.38051 ,2.23568 ,21.93647 
170 ,33.8361 ,1.38245 ,2.23568 ,21.93647 
171 ,34.0281 ,1.38433 ,2.21857 ,21.76858 
172 ,34.2361 ,1.38630 ,2.21515 ,21.73500 
173 ,34.4440 ,1.38841 ,2.17066 ,21.29849 
174 ,34.6365 ,1.39046 ,2.18092 ,21.39922 
175 ,34.8285 ,1.39236 ,2.15012 ,21.09702 
176 ,35.0366 ,1.39431 ,2.14670 ,21.06344 
177 ,35.2286 ,1.39637 ,2.11590 ,20.76123 
178 ,35.4206 ,1.39822 ,2.12275 ,20.82839 
179 ,35.6287 ,1.40033 ,2.08510 ,20.45903 
180 ,35.8208 ,1.40227 ,2.09195 ,20.52619 
181 ,36.0129 ,1.40419 ,2.07826 ,20.39187 
182 ,36.2370 ,1.40634 ,2.05773 ,20.19040 
183 ,36.4450 ,1.40847 ,2.02693 ,19.88820 
184 ,36.6368 ,1.41037 ,2.02693 ,19.88820 
185 ,36.8293 ,1.41239 ,2.00297 ,19.65315 
186 ,37.0373 ,1.41447 ,2.00982 ,19.72031 
187 ,37.2294 ,1.41637 ,1.97559 ,19.38452 
188 ,37.4375 ,1.41848 ,1.98586 ,19.48526 
189 ,37.6296 ,1.42036 ,1.94137 ,19.04874 
190 ,37.8696 ,1.42273 ,1.92426 ,18.88085 
191 ,38.0617 ,1.42469 ,1.92426 ,18.88085 
192 ,38.2538 ,1.42657 ,1.89346 ,18.57864 
193 ,38.4619 ,1.42868 ,1.90031 ,18.64580 
194 ,38.6700 ,1.43068 ,1.86608 ,18.31002 
195 ,38.8616 ,1.43265 ,1.86608 ,18.31002 
196 ,39.0701 ,1.43467 ,1.85582 ,18.20928 
197 ,39.2784 ,1.43689 ,1.84555 ,18.10855 
198 ,39.4704 ,1.43880 ,1.81475 ,17.80634 
199 ,39.6624 ,1.44071 ,1.81475 ,17.80634 
200 ,39.8545 ,1.44257 ,1.78737 ,17.53772 
201 ,40.0462 ,1.44455 ,1.78053 ,17.47056 
202 ,40.2386 ,1.44643 ,1.78737 ,17.53772 
203 ,40.4466 ,1.44852 ,1.77026 ,17.36983 
204 ,40.6388 ,1.45041 ,1.77711 ,17.43698 
205 ,40.8629 ,1.45270 ,1.76684 ,17.33625 
206 ,41.0706 ,1.45476 ,1.73262 ,17.00046 
207 ,41.2793 ,1.45671 ,1.74289 ,17.10120 
208 ,41.4871 ,1.45891 ,1.71551 ,16.83257 
209 ,41.6794 ,1.46088 ,1.72578 ,16.93331 
210 ,41.8716 ,1.46279 ,1.70182 ,16.69826 
211 ,42.0790 ,1.46486 ,1.70866 ,16.76542 
212 ,42.2715 ,1.46680 ,1.67444 ,16.42963 
213 ,42.4797 ,1.46887 ,1.67444 ,16.42963 
214 ,42.6877 ,1.47095 ,1.64707 ,16.16101 
215 ,42.8959 ,1.47299 ,1.64707 ,16.16101 
216 ,43.0879 ,1.47492 ,1.61969 ,15.89238 
217 ,43.2800 ,1.47693 ,1.63680 ,16.06027 
218 ,43.4879 ,1.47888 ,1.62311 ,15.92596 
219 ,43.8879 ,1.48196 ,1.59231 ,15.62375 
220 ,44.0804 ,1.48484 ,1.57862 ,15.48944 
221 ,44.2880 ,1.48687 ,1.57178 ,15.42228 
222 ,44.4805 ,1.48885 ,1.55124 ,15.22081 
223 ,44.6884 ,1.49090 ,1.52729 ,14.98577 
224 ,44.8804 ,1.49286 ,1.51018 ,14.81787 
225 ,45.0728 ,1.49481 ,1.49649 ,14.68356 
226 ,45.2805 ,1.49685 ,1.49307 ,14.64998 
227 ,45.4729 ,1.49878 ,1.46227 ,14.34778 
228 ,45.6647 ,1.50071 ,1.47596 ,14.48209 
229 ,45.8571 ,1.50257 ,1.43831 ,14.11273 
230 ,46.0490 ,1.50450 ,1.42462 ,13.97842 
231 ,46.2572 ,1.50657 ,1.41094 ,13.84410 
232 ,46.4489 ,1.50853 ,1.41094 ,13.84410 
233 ,46.6574 ,1.51057 ,1.38356 ,13.57548 
234 ,46.8972 ,1.51299 ,1.37329 ,13.47474 
235 ,47.0896 ,1.51491 ,1.35618 ,13.30685 
236 ,47.2976 ,1.51702 ,1.33907 ,13.13896 
237 ,47.4896 ,1.51889 ,1.32538 ,13.00465 
238 ,47.6819 ,1.52081 ,1.32880 ,13.03822 
239 ,47.8898 ,1.52291 ,1.30485 ,12.80318 
240 ,48.0820 ,1.52482 ,1.28774 ,12.63528 
241 ,48.2901 ,1.52694 ,1.28432 ,12.60171 
242 ,48.4822 ,1.52889 ,1.27747 ,12.53455 
243 ,48.6739 ,1.53077 ,1.24325 ,12.19877 
244 ,48.8664 ,1.53269 ,1.24325 ,12.19877 
245 ,49.0746 ,1.53468 ,1.21587 ,11.93014 
246 ,49.2826 ,1.53683 ,1.21929 ,11.96372 
247 ,49.4744 ,1.53877 ,1.18507 ,11.62794 
248 ,49.6667 ,1.54068 ,1.18507 ,11.62794 
249 ,49.8907 ,1.54275 ,1.16796 ,11.46004 
250 ,50.0985 ,1.54502 ,1.14401 ,11.22500 
251 ,50.2907 ,1.54692 ,1.14401 ,11.22500 
252 ,50.4989 ,1.54896 ,1.11321 ,10.92279 
253 ,50.6909 ,1.55093 ,1.11321 ,10.92279 
254 ,50.8991 ,1.55300 ,1.08925 ,10.68774 
255 ,51.0909 ,1.55488 ,1.09610 ,10.75490 
256 ,51.2993 ,1.55690 ,1.08925 ,10.68774 
257 ,51.5072 ,1.55912 ,1.06187 ,10.41912 
258 ,51.6995 ,1.56103 ,1.04134 ,10.21765 
259 ,51.8911 ,1.56294 ,1.04134 ,10.21765 
260 ,52.0836 ,1.56486 ,1.02765 ,10.08333 
261 ,52.2917 ,1.56693 ,1.00712 ,9.88186 
262 ,52.4998 ,1.56897 ,0.98659 ,9.68039 
263 ,52.6916 ,1.57095 ,0.98317 ,9.64682 
264 ,52.8839 ,1.57283 ,0.96263 ,9.44535 
265 ,53.0759 ,1.57476 ,0.94210 ,9.24388 
266 ,53.2679 ,1.57668 ,0.95237 ,9.34461 
267 ,53.4441 ,1.57856 ,0.92157 ,9.04241 
268 ,53.6363 ,1.58031 ,0.91130 ,8.94167 
269 ,53.8283 ,1.58231 ,0.91472 ,8.97525 
270 ,54.0204 ,1.58422 ,0.89419 ,8.77378 
271 ,54.2124 ,1.58610 ,0.88392 ,8.67305 
272 ,54.4206 ,1.58811 ,0.88050 ,8.63947 
273 ,54.6127 ,1.59012 ,0.86339 ,8.47158 
274 ,54.8207 ,1.59222 ,0.84286 ,8.27011 
275 ,55.0128 ,1.59413 ,0.83943 ,8.23653 
276 ,55.2045 ,1.59599 ,0.82917 ,8.13579 
277 ,55.3969 ,1.59798 ,0.79837 ,7.83359 
278 ,55.6051 ,1.60003 ,0.79495 ,7.80001 
279 ,55.7970 ,1.60197 ,0.76415 ,7.49780 
280 ,55.9891 ,1.60389 ,0.78468 ,7.69927 
281 ,56.1973 ,1.60595 ,0.74361 ,7.29633 
282 ,56.3892 ,1.60798 ,0.75388 ,7.39707 
283 ,56.5812 ,1.60981 ,0.72650 ,7.12844 
284 ,56.7734 ,1.61169 ,0.72308 ,7.09486 
285 ,56.9657 ,1.61369 ,0.70939 ,6.96055 
286 ,57.1738 ,1.61572 ,0.69228 ,6.79266 
287 ,57.3654 ,1.61765 ,0.68201 ,6.69193 
288 ,57.5575 ,1.61962 ,0.65806 ,6.45688 
289 ,57.7653 ,1.62163 ,0.66490 ,6.52403 
290 ,57.9575 ,1.62353 ,0.63410 ,6.22183 
291 ,58.1497 ,1.62544 ,0.65464 ,6.42330 
292 ,58.3581 ,1.62759 ,0.62042 ,6.08752 
293 ,58.5658 ,1.62968 ,0.62042 ,6.08752 
294 ,58.7582 ,1.63154 ,0.58277 ,5.71815 
295 ,58.9504 ,1.63345 ,0.59646 ,5.85247 
296 ,59.1424 ,1.63539 ,0.56224 ,5.51668 
297 ,59.3505 ,1.63751 ,0.57935 ,5.68458 
298 ,59.5422 ,1.63940 ,0.55539 ,5.44953 
299 ,59.7348 ,1.64132 ,0.53144 ,5.21448 
300 ,59.9426 ,1.64335 ,0.52117 ,5.11375 
301 ,60.1348 ,1.64532 ,0.51091 ,5.01301 
302 ,60.3426 ,1.64743 ,0.50064 ,4.91228 
303 ,60.5510 ,1.64938 ,0.48353 ,4.74438 
304 ,60.7427 ,1.65153 ,0.45615 ,4.47576 
305 ,60.9351 ,1.65331 ,0.46642 ,4.57649 
306 ,61.1432 ,1.65529 ,0.47326 ,4.64365 
307 ,61.3514 ,1.65747 ,0.45273 ,4.44218 
308 ,61.5431 ,1.65938 ,0.43220 ,4.24071 
309 ,61.7351 ,1.66134 ,0.42535 ,4.17355 
310 ,61.9275 ,1.66330 ,0.42193 ,4.13997 
311 ,62.1356 ,1.66536 ,0.40140 ,3.93850 
312 ,62.3276 ,1.66721 ,0.38771 ,3.80419 
313 ,62.5359 ,1.66937 ,0.37744 ,3.70346 
314 ,62.7278 ,1.67123 ,0.37060 ,3.63630 
315 ,62.9195 ,1.67322 ,0.35006 ,3.43483 
316 ,63.1120 ,1.67514 ,0.36033 ,3.53557 
317 ,63.3041 ,1.67701 ,0.32269 ,3.16620 
318 ,63.4959 ,1.67894 ,0.32269 ,3.16620 
319 ,63.6883 ,1.68084 ,0.31242 ,3.06547 
320 ,63.8962 ,1.68286 ,0.30900 ,3.03189 
321 ,64.0884 ,1.68482 ,0.30900 ,3.03189 
322 ,64.2805 ,1.68674 ,0.26451 ,2.59537 
323 ,64.4727 ,1.68867 ,0.27820 ,2.72969 
324 ,64.6646 ,1.69059 ,0.24740 ,2.42748 
325 ,64.8567 ,1.69256 ,0.25082 ,2.46106 
326 ,65.0644 ,1.69463 ,0.23029 ,2.25959 
327 ,65.2566 ,1.69654 ,0.22687 ,2.22601 
328 ,65.4648 ,1.69859 ,0.20633 ,2.02454 
329 ,65.6568 ,1.70053 ,0.20291 ,1.99096 
330 ,65.8488 ,1.70244 ,0.20633 ,2.02454 
331 ,66.0411 ,1.70438 ,0.18238 ,1.78949 
332 ,66.2332 ,1.70629 ,0.18580 ,1.82307 
333 ,66.4414 ,1.70837 ,0.15158 ,1.48729 
334 ,66.6335 ,1.71028 ,0.16527 ,1.62160 
335 ,66.8415 ,1.71238 ,0.12078 ,1.18508 
336 ,67.0337 ,1.71426 ,0.13789 ,1.35298 
337 ,67.2413 ,1.71640 ,0.11736 ,1.15151 
338 ,67.4338 ,1.71830 ,0.13105 ,1.28582 
339 ,67.6259 ,1.72022 ,0.08998 ,0.88288 
340 ,67.8500 ,1.72239 ,0.08998 ,0.88288 
341 ,68.0578 ,1.72451 ,0.07971 ,0.78214 
342 ,68.2499 ,1.72649 ,0.06945 ,0.68141 
343 ,68.4419 ,1.72838 ,0.03522 ,0.34563 
344 ,68.6503 ,1.73037 ,0.05234 ,0.51352 
345 ,68.8582 ,1.73249 ,0.04207 ,0.41278 
346 ,69.0505 ,1.73443 ,0.01811 ,0.17773 
347 ,69.2584 ,1.73649 ,0.01469 ,0.14416 
348 ,69.4502 ,1.73844 ,0.00100 ,0.00984 
349 ,69.6427 ,1.74039 ,-0.01611 ,-0.15805 
350 ,69.8508 ,1.74246 ,-0.01953 ,-0.19163 
351 ,70.0427 ,1.74436 ,-0.03664 ,-0.35952 
352 ,70.2345 ,1.74625 ,-0.03664 ,-0.35952 
353 ,70.4269 ,1.74824 ,-0.06060 ,-0.59457 
354 ,70.6350 ,1.75025 ,-0.05717 ,-0.56099 
355 ,70.8267 ,1.75222 ,-0.06402 ,-0.62814 
356 ,71.0192 ,1.75415 ,-0.06744 ,-0.66172 
357 ,71.2273 ,1.75622 ,-0.10166 ,-0.99751 
358 ,71.4353 ,1.75819 ,-0.10851 ,-1.06466 
359 ,71.6271 ,1.76023 ,-0.12219 ,-1.19898 
360 ,71.8196 ,1.76216 ,-0.13588 ,-1.33329 
361 ,72.0275 ,1.76418 ,-0.13931 ,-1.36687 
362 ,72.2195 ,1.76616 ,-0.14273 ,-1.40045 
363 ,72.4114 ,1.76815 ,-0.15642 ,-1.53476 
364 ,72.5874 ,1.76995 ,-0.18037 ,-1.76981 
365 ,72.7799 ,1.77176 ,-0.17353 ,-1.70265 
366 ,72.9879 ,1.77376 ,-0.19064 ,-1.87054 
367 ,73.1962 ,1.77589 ,-0.17353 ,-1.70265 
368 ,73.3882 ,1.77780 ,-0.20775 ,-2.03843 
369 ,73.5959 ,1.77985 ,-0.20775 ,-2.03843 
370 ,73.7879 ,1.78180 ,-0.23513 ,-2.30706 
371 ,73.9964 ,1.78386 ,-0.23170 ,-2.27348 
372 ,74.2685 ,1.78654 ,-0.25224 ,-2.47495 
373 ,74.4768 ,1.78868 ,-0.25908 ,-2.54211 
374 ,74.6687 ,1.79061 ,-0.27619 ,-2.71000 
375 ,74.8608 ,1.79253 ,-0.26935 ,-2.64284 
376 ,75.0529 ,1.79447 ,-0.27961 ,-2.74358 
377 ,75.2611 ,1.79653 ,-0.28304 ,-2.77716 
378 ,75.4533 ,1.79846 ,-0.30015 ,-2.94505 
379 ,75.6610 ,1.80055 ,-0.30357 ,-2.97863 
380 ,75.8534 ,1.80244 ,-0.31384 ,-3.07936 
381 ,76.0455 ,1.80438 ,-0.33437 ,-3.28083 
382 ,76.2373 ,1.80628 ,-0.33437 ,-3.28083 
383 ,76.4295 ,1.80819 ,-0.34464 ,-3.38156 
384 ,76.6216 ,1.81015 ,-0.35490 ,-3.48230 
385 ,76.7976 ,1.81205 ,-0.36859 ,-3.61661 
386 ,76.9894 ,1.81383 ,-0.38228 ,-3.75093 
387 ,77.1818 ,1.81571 ,-0.39939 ,-3.91882 
388 ,77.3739 ,1.81763 ,-0.39597 ,-3.88524 
389 ,77.5657 ,1.81958 ,-0.41308 ,-4.05313 
390 ,77.7580 ,1.82149 ,-0.40966 ,-4.01955 
391 ,77.9500 ,1.82342 ,-0.44046 ,-4.32176 
392 ,78.1418 ,1.82537 ,-0.43019 ,-4.22102 
393 ,78.3503 ,1.82732 ,-0.43361 ,-4.25460 
394 ,78.5582 ,1.82951 ,-0.44046 ,-4.32176 
395 ,78.7505 ,1.83139 ,-0.47468 ,-4.65754 
396 ,78.9425 ,1.83336 ,-0.47126 ,-4.62396 
397 ,79.1346 ,1.83524 ,-0.48152 ,-4.72470 
398 ,79.3268 ,1.83715 ,-0.49863 ,-4.89259 
399 ,79.5188 ,1.83909 ,-0.47810 ,-4.69112 
400 ,79.7265 ,1.84120 ,-0.52259 ,-5.12764 
401 ,79.9189 ,1.84306 ,-0.51574 ,-5.06048 
402 ,80.1270 ,1.84516 ,-0.52601 ,-5.16121 
403 ,80.3187 ,1.84709 ,-0.52259 ,-5.12764 
404 ,80.5273 ,1.84916 ,-0.55339 ,-5.42984 
405 ,80.7354 ,1.85131 ,-0.55339 ,-5.42984 
406 ,80.9114 ,1.85314 ,-0.57050 ,-5.59773 
407 ,81.1030 ,1.85493 ,-0.57050 ,-5.59773 
408 ,81.2954 ,1.85682 ,-0.58761 ,-5.76562 
409 ,81.4872 ,1.85872 ,-0.59788 ,-5.86636 
410 ,81.6798 ,1.86070 ,-0.59103 ,-5.79920 
411 ,81.8878 ,1.86280 ,-0.61499 ,-6.03425 
412 ,82.0800 ,1.86470 ,-0.60130 ,-5.89994 
413 ,82.2720 ,1.86660 ,-0.63552 ,-6.23572 
414 ,82.4641 ,1.86850 ,-0.63894 ,-6.26930 
415 ,82.6560 ,1.87045 ,-0.65263 ,-6.40361 
416 ,82.8803 ,1.87257 ,-0.64921 ,-6.37003 
417 ,83.0723 ,1.87458 ,-0.66974 ,-6.57150 
418 ,83.2644 ,1.87652 ,-0.65947 ,-6.47077 
419 ,83.4564 ,1.87847 ,-0.69027 ,-6.77297 
420 ,83.6480 ,1.88038 ,-0.69370 ,-6.80655 
421 ,83.8405 ,1.88230 ,-0.68685 ,-6.73940 
422 ,84.0325 ,1.88431 ,-0.69712 ,-6.84013 
423 ,84.2407 ,1.88615 ,-0.71081 ,-6.97444 
424 ,84.4327 ,1.88821 ,-0.73476 ,-7.20949 
425 ,84.6248 ,1.89013 ,-0.73476 ,-7.20949 
426 ,84.8009 ,1.89200 ,-0.74503 ,-7.31023 
427 ,84.9929 ,1.89379 ,-0.76898 ,-7.54527 
428 ,85.1851 ,1.89573 ,-0.75187 ,-7.37738 
429 ,85.3773 ,1.89764 ,-0.77241 ,-7.57885 
430 ,85.5690 ,1.89956 ,-0.77925 ,-7.64601 
431 ,85.7611 ,1.90150 ,-0.78267 ,-7.67959 
432 ,85.9852 ,1.90373 ,-0.79978 ,-7.84748 
433 ,86.1933 ,1.90581 ,-0.82032 ,-8.04895 
434 ,86.3854 ,1.90771 ,-0.81005 ,-7.94821 
435 ,86.5934 ,1.90982 ,-0.82374 ,-8.08253 
436 ,86.8018 ,1.91186 ,-0.82374 ,-8.08253 
437 ,86.9937 ,1.91379 ,-0.85112 ,-8.35115 
438 ,87.1860 ,1.91571 ,-0.84427 ,-8.28400 
439 ,87.3779 ,1.91765 ,-0.86138 ,-8.45189 
440 ,87.5699 ,1.91962 ,-0.87165 ,-8.55262 
441 ,87.7620 ,1.92150 ,-0.85796 ,-8.41831 
442 ,87.9541 ,1.92342 ,-0.88876 ,-8.72051 
443 ,88.1462 ,1.92536 ,-0.89218 ,-8.75409 
444 ,88.3544 ,1.92738 ,-0.91272 ,-8.95556 
445 ,88.5622 ,1.92935 ,-0.89903 ,-8.82125 
446 ,88.7546 ,1.93144 ,-0.93325 ,-9.15703 
447 ,88.9786 ,1.93362 ,-0.93325 ,-9.15703 
448 ,89.1707 ,1.93556 ,-0.94009 ,-9.22419 
449 ,89.3626 ,1.93747 ,-0.94009 ,-9.22419 
450 ,89.5548 ,1.93941 ,-0.96405 ,-9.45924 
451 ,89.7467 ,1.94133 ,-0.96405 ,-9.45924 
452 ,89.9550 ,1.94333 ,-0.97089 ,-9.52639 
453 ,90.1627 ,1.94546 ,-0.99143 ,-9.72786 
454 ,90.3551 ,1.94746 ,-1.00169 ,-9.82860 
455 ,90.5632 ,1.94952 ,-0.99485 ,-9.76144 
456 ,90.7554 ,1.95143 ,-1.01538 ,-9.96291 
457 ,90.9472 ,1.95334 ,-0.99827 ,-9.79502 
458 ,91.1555 ,1.95538 ,-1.03249 ,-10.13080 
459 ,91.3472 ,1.95731 ,-1.02907 ,-10.09723 
460 ,91.5396 ,1.95920 ,-1.03591 ,-10.16438 
461 ,91.7316 ,1.96117 ,-1.06671 ,-10.46659 
462 ,91.9236 ,1.96309 ,-1.05302 ,-10.33227 
