Data stamp = , 02-05-2022 03:19:16 642

Calibration Values: 
Slope = , 26.54 , g/V 
Offset Voltage at no contact = , -0.501760 , V 

No , Time , Stage Position ,   Mass , Force 
   ,  (s) ,      (mm)      ,   (g)  , (mN)  

1 ,0.0000 ,0.99948 ,5.36354 ,52.62704 
2 ,0.2299 ,0.99956 ,5.34985 ,52.49273 
3 ,0.8542 ,1.00217 ,5.37381 ,52.72778 
4 ,1.0779 ,1.00490 ,5.35669 ,52.55988 
5 ,1.4786 ,1.00888 ,5.33958 ,52.39199 
6 ,1.6706 ,1.01086 ,5.32247 ,52.22410 
7 ,1.8629 ,1.01280 ,5.31563 ,52.15694 
8 ,2.0549 ,1.01477 ,5.27114 ,51.72043 
9 ,2.2467 ,1.01665 ,5.27456 ,51.75401 
10 ,2.4392 ,1.01860 ,5.24718 ,51.48538 
11 ,2.6472 ,1.02068 ,5.24376 ,51.45180 
12 ,2.8394 ,1.02259 ,5.19585 ,50.98170 
13 ,3.0474 ,1.02469 ,5.18901 ,50.91455 
14 ,3.2398 ,1.02663 ,5.16505 ,50.67950 
15 ,3.4475 ,1.02870 ,5.15821 ,50.61234 
16 ,3.6398 ,1.03064 ,5.12056 ,50.24298 
17 ,3.8477 ,1.03266 ,5.11372 ,50.17583 
18 ,4.0553 ,1.03473 ,5.07950 ,49.84004 
19 ,4.2478 ,1.03670 ,5.07608 ,49.80646 
20 ,4.4559 ,1.03868 ,5.03843 ,49.43710 
21 ,4.6478 ,1.04067 ,5.04185 ,49.47068 
22 ,4.8559 ,1.04268 ,5.00421 ,49.10132 
23 ,5.0962 ,1.04517 ,4.98710 ,48.93343 
24 ,5.3040 ,1.04724 ,4.98026 ,48.86627 
25 ,5.4964 ,1.04912 ,4.94261 ,48.49691 
26 ,5.7044 ,1.05122 ,4.94261 ,48.49691 
27 ,5.8965 ,1.05317 ,4.90497 ,48.12755 
28 ,6.1045 ,1.05526 ,4.88786 ,47.95966 
29 ,6.2806 ,1.05712 ,4.86390 ,47.72461 
30 ,6.4724 ,1.05890 ,4.85364 ,47.62387 
31 ,6.6649 ,1.06085 ,4.85021 ,47.59030 
32 ,6.8730 ,1.06292 ,4.80915 ,47.18736 
33 ,7.0647 ,1.06486 ,4.81257 ,47.22093 
34 ,7.2571 ,1.06679 ,4.77493 ,46.85157 
35 ,7.4653 ,1.06880 ,4.77493 ,46.85157 
36 ,7.6573 ,1.07079 ,4.74755 ,46.58295 
37 ,7.8493 ,1.07270 ,4.73044 ,46.41506 
38 ,8.0414 ,1.07458 ,4.70306 ,46.14643 
39 ,8.2330 ,1.07646 ,4.69279 ,46.04569 
40 ,8.4256 ,1.07845 ,4.68937 ,46.01212 
41 ,8.6335 ,1.08053 ,4.65857 ,45.70991 
42 ,8.8257 ,1.08238 ,4.64831 ,45.60918 
43 ,9.0337 ,1.08449 ,4.61408 ,45.27339 
44 ,9.2258 ,1.08643 ,4.61408 ,45.27339 
45 ,9.4180 ,1.08837 ,4.58328 ,44.97119 
46 ,9.6578 ,1.09062 ,4.57302 ,44.87045 
47 ,9.8502 ,1.09273 ,4.56617 ,44.80330 
48 ,10.0421 ,1.09457 ,4.52511 ,44.40036 
49 ,10.2664 ,1.09687 ,4.52169 ,44.36678 
50 ,10.4743 ,1.09887 ,4.48404 ,43.99742 
51 ,10.6985 ,1.10104 ,4.47378 ,43.89668 
52 ,10.8906 ,1.10311 ,4.46009 ,43.76237 
53 ,11.0826 ,1.10502 ,4.43271 ,43.49374 
54 ,11.2906 ,1.10709 ,4.42244 ,43.39301 
55 ,11.4823 ,1.10897 ,4.39507 ,43.12438 
56 ,11.6909 ,1.11102 ,4.38822 ,43.05723 
57 ,11.8989 ,1.11315 ,4.35058 ,42.68786 
58 ,12.0910 ,1.11507 ,4.35058 ,42.68786 
59 ,12.2988 ,1.11720 ,4.31978 ,42.38566 
60 ,12.5071 ,1.11923 ,4.31636 ,42.35208 
61 ,12.7151 ,1.12136 ,4.28213 ,42.01630 
62 ,12.9233 ,1.12337 ,4.27187 ,41.91556 
63 ,13.1153 ,1.12534 ,4.25133 ,41.71409 
64 ,13.3072 ,1.12723 ,4.24791 ,41.68051 
65 ,13.4995 ,1.12918 ,4.20342 ,41.24400 
66 ,13.7073 ,1.13125 ,4.21027 ,41.31115 
67 ,13.8996 ,1.13319 ,4.16236 ,40.84106 
68 ,14.0918 ,1.13507 ,4.17605 ,40.97537 
69 ,14.2837 ,1.13704 ,4.15209 ,40.74032 
70 ,14.4915 ,1.13907 ,4.13840 ,40.60601 
71 ,14.6838 ,1.14099 ,4.12471 ,40.47170 
72 ,14.8760 ,1.14294 ,4.09391 ,40.16949 
73 ,15.0680 ,1.14487 ,4.09049 ,40.13591 
74 ,15.2603 ,1.14675 ,4.05969 ,39.83371 
75 ,15.4681 ,1.14887 ,4.04943 ,39.73297 
76 ,15.6764 ,1.15090 ,4.02205 ,39.46435 
77 ,15.8680 ,1.15294 ,4.01520 ,39.39719 
78 ,16.0764 ,1.15491 ,3.99467 ,39.19572 
79 ,16.3164 ,1.15734 ,3.97756 ,39.02783 
80 ,16.5248 ,1.15934 ,3.96729 ,38.92709 
81 ,16.7327 ,1.16150 ,3.95361 ,38.79278 
82 ,16.9250 ,1.16335 ,3.92965 ,38.55773 
83 ,17.1330 ,1.16549 ,3.91254 ,38.38984 
84 ,17.3409 ,1.16755 ,3.87490 ,38.02048 
85 ,17.5330 ,1.16954 ,3.88858 ,38.15479 
86 ,17.7253 ,1.17142 ,3.86121 ,37.88617 
87 ,17.9334 ,1.17352 ,3.85094 ,37.78543 
88 ,18.1090 ,1.17536 ,3.82699 ,37.55038 
89 ,18.3015 ,1.17721 ,3.79961 ,37.28176 
90 ,18.5095 ,1.17922 ,3.79619 ,37.24818 
91 ,18.7017 ,1.18116 ,3.76196 ,36.91240 
92 ,18.8935 ,1.18307 ,3.75512 ,36.84524 
93 ,19.0857 ,1.18501 ,3.73117 ,36.61019 
94 ,19.2936 ,1.18708 ,3.72090 ,36.50946 
95 ,19.5020 ,1.18922 ,3.69010 ,36.20725 
96 ,19.7098 ,1.19122 ,3.68668 ,36.17367 
97 ,19.9019 ,1.19318 ,3.64903 ,35.80431 
98 ,20.0939 ,1.19509 ,3.65246 ,35.83789 
99 ,20.2860 ,1.19699 ,3.62850 ,35.60284 
100 ,20.4781 ,1.19899 ,3.61823 ,35.50211 
101 ,20.6865 ,1.20100 ,3.58743 ,35.19990 
102 ,20.9106 ,1.20307 ,3.57717 ,35.09917 
103 ,21.1345 ,1.20540 ,3.54979 ,34.83054 
104 ,21.3268 ,1.20737 ,3.54637 ,34.79696 
105 ,21.5187 ,1.20938 ,3.52926 ,34.62907 
106 ,21.7270 ,1.21140 ,3.51215 ,34.46118 
107 ,21.9190 ,1.21331 ,3.47792 ,34.12540 
108 ,22.1111 ,1.21524 ,3.48135 ,34.15898 
109 ,22.3032 ,1.21710 ,3.44713 ,33.82319 
110 ,22.5108 ,1.21917 ,3.45397 ,33.89035 
111 ,22.7193 ,1.22127 ,3.41975 ,33.55457 
112 ,22.9114 ,1.22327 ,3.41975 ,33.55457 
113 ,23.1195 ,1.22532 ,3.38210 ,33.18520 
114 ,23.2949 ,1.22717 ,3.38553 ,33.21878 
115 ,23.4877 ,1.22898 ,3.36157 ,32.98374 
116 ,23.6796 ,1.23089 ,3.33762 ,32.74869 
117 ,23.8713 ,1.23280 ,3.33419 ,32.71511 
118 ,24.0636 ,1.23472 ,3.30682 ,32.44648 
119 ,24.2720 ,1.23685 ,3.29997 ,32.37933 
120 ,24.4640 ,1.23875 ,3.27602 ,32.14428 
121 ,24.6717 ,1.24083 ,3.26575 ,32.04354 
122 ,24.8641 ,1.24279 ,3.24180 ,31.80849 
123 ,25.0723 ,1.24485 ,3.22811 ,31.67418 
124 ,25.2965 ,1.24710 ,3.21100 ,31.50629 
125 ,25.5040 ,1.24913 ,3.19046 ,31.30482 
126 ,25.6965 ,1.25102 ,3.17677 ,31.17051 
127 ,25.8883 ,1.25315 ,3.14255 ,30.83472 
128 ,26.0968 ,1.25496 ,3.13229 ,30.73399 
129 ,26.2886 ,1.25703 ,3.12544 ,30.66683 
130 ,26.4970 ,1.25901 ,3.10491 ,30.46536 
131 ,26.6889 ,1.26100 ,3.10833 ,30.49894 
132 ,26.8806 ,1.26290 ,3.07753 ,30.19674 
133 ,27.0889 ,1.26498 ,3.07069 ,30.12958 
134 ,27.2970 ,1.26700 ,3.03647 ,29.79380 
135 ,27.4733 ,1.26896 ,3.03989 ,29.82737 
136 ,27.6653 ,1.27073 ,3.01935 ,29.62590 
137 ,27.8574 ,1.27266 ,2.99540 ,29.39086 
138 ,28.0330 ,1.27453 ,3.00224 ,29.45801 
139 ,28.2254 ,1.27637 ,2.96802 ,29.12223 
140 ,28.4176 ,1.27829 ,2.96118 ,29.05507 
141 ,28.6097 ,1.28020 ,2.95091 ,28.95434 
142 ,28.8178 ,1.28227 ,2.91669 ,28.61856 
143 ,29.0099 ,1.28418 ,2.93038 ,28.75287 
144 ,29.2176 ,1.28616 ,2.88931 ,28.34993 
145 ,29.4100 ,1.28823 ,2.89616 ,28.41709 
146 ,29.6339 ,1.29032 ,2.86193 ,28.08130 
147 ,29.8101 ,1.29237 ,2.84140 ,27.87983 
148 ,30.0023 ,1.29413 ,2.83456 ,27.81268 
149 ,30.1939 ,1.29604 ,2.80376 ,27.51047 
150 ,30.3865 ,1.29801 ,2.80034 ,27.47689 
151 ,30.5942 ,1.30005 ,2.78665 ,27.34258 
152 ,30.7867 ,1.30198 ,2.77980 ,27.27542 
153 ,30.9788 ,1.30390 ,2.73874 ,26.87248 
154 ,31.1866 ,1.30594 ,2.74558 ,26.93964 
155 ,31.3787 ,1.30785 ,2.71820 ,26.67101 
156 ,31.5870 ,1.30986 ,2.72847 ,26.77175 
157 ,31.7950 ,1.31198 ,2.68398 ,26.33523 
158 ,32.0032 ,1.31413 ,2.67714 ,26.26807 
159 ,32.1948 ,1.31601 ,2.67714 ,26.26807 
160 ,32.3870 ,1.31797 ,2.64292 ,25.93229 
161 ,32.5950 ,1.32006 ,2.61896 ,25.69724 
162 ,32.8033 ,1.32208 ,2.60185 ,25.52935 
163 ,32.9955 ,1.32403 ,2.59158 ,25.42862 
164 ,33.2035 ,1.32611 ,2.57447 ,25.26073 
165 ,33.3956 ,1.32799 ,2.57105 ,25.22715 
166 ,33.5876 ,1.32996 ,2.55394 ,25.05926 
167 ,33.7798 ,1.33189 ,2.52656 ,24.79063 
168 ,33.9717 ,1.33382 ,2.53683 ,24.89136 
169 ,34.1800 ,1.33586 ,2.48207 ,24.35411 
170 ,34.3716 ,1.33777 ,2.49234 ,24.45485 
171 ,34.5642 ,1.33968 ,2.46154 ,24.15264 
172 ,34.7718 ,1.34175 ,2.44785 ,24.01833 
173 ,34.9637 ,1.34375 ,2.43759 ,23.91759 
174 ,35.1562 ,1.34564 ,2.44443 ,23.98475 
175 ,35.3965 ,1.34809 ,2.41021 ,23.64897 
176 ,35.6045 ,1.35013 ,2.40336 ,23.58181 
177 ,35.7966 ,1.35203 ,2.37256 ,23.27961 
178 ,35.9887 ,1.35394 ,2.37941 ,23.34676 
179 ,36.1809 ,1.35588 ,2.33492 ,22.91024 
180 ,36.3889 ,1.35800 ,2.33834 ,22.94382 
181 ,36.5810 ,1.35989 ,2.31439 ,22.70877 
182 ,36.7887 ,1.36187 ,2.31097 ,22.67520 
183 ,36.9971 ,1.36402 ,2.28359 ,22.40657 
184 ,37.2212 ,1.36615 ,2.25963 ,22.17152 
185 ,37.4292 ,1.36831 ,2.26306 ,22.20510 
186 ,37.6215 ,1.37023 ,2.22541 ,21.83574 
187 ,37.8133 ,1.37217 ,2.23910 ,21.97005 
188 ,37.9895 ,1.37408 ,2.20830 ,21.66785 
189 ,38.1816 ,1.37587 ,2.19803 ,21.56711 
190 ,38.3736 ,1.37780 ,2.19803 ,21.56711 
191 ,38.5817 ,1.37988 ,2.16039 ,21.19775 
192 ,38.7738 ,1.38178 ,2.15012 ,21.09702 
193 ,38.9660 ,1.38372 ,2.13986 ,20.99628 
194 ,39.1739 ,1.38573 ,2.13301 ,20.92912 
195 ,39.3820 ,1.38791 ,2.10564 ,20.66050 
196 ,39.5903 ,1.38995 ,2.10906 ,20.69408 
197 ,39.7819 ,1.39188 ,2.06457 ,20.25756 
198 ,39.9744 ,1.39374 ,2.07826 ,20.39187 
199 ,40.1824 ,1.39584 ,2.05088 ,20.12325 
200 ,40.3746 ,1.39784 ,2.03719 ,19.98893 
201 ,40.5826 ,1.39987 ,2.02350 ,19.85462 
202 ,40.7744 ,1.40182 ,2.00982 ,19.72031 
203 ,40.9668 ,1.40366 ,1.98928 ,19.51884 
204 ,41.1589 ,1.40564 ,1.97559 ,19.38452 
205 ,41.3670 ,1.40769 ,1.97902 ,19.41810 
206 ,41.5752 ,1.40978 ,1.94479 ,19.08232 
207 ,41.7670 ,1.41170 ,1.93795 ,19.01516 
208 ,41.9747 ,1.41377 ,1.93453 ,18.98158 
209 ,42.1673 ,1.41572 ,1.92084 ,18.84727 
210 ,42.3589 ,1.41759 ,1.88319 ,18.47791 
211 ,42.5515 ,1.41956 ,1.89346 ,18.57864 
212 ,42.7440 ,1.42150 ,1.86608 ,18.31002 
213 ,42.9356 ,1.42342 ,1.85924 ,18.24286 
214 ,43.1435 ,1.42546 ,1.84555 ,18.10855 
215 ,43.3352 ,1.42741 ,1.83871 ,18.04139 
216 ,43.5273 ,1.42938 ,1.81475 ,17.80634 
217 ,43.7195 ,1.43122 ,1.78737 ,17.53772 
218 ,43.9281 ,1.43320 ,1.79764 ,17.63845 
219 ,44.1200 ,1.43524 ,1.76342 ,17.30267 
220 ,44.3122 ,1.43714 ,1.76000 ,17.26909 
221 ,44.5038 ,1.43907 ,1.74631 ,17.13478 
222 ,44.7281 ,1.44120 ,1.73946 ,17.06762 
223 ,44.9365 ,1.44342 ,1.70524 ,16.73184 
224 ,45.1446 ,1.44547 ,1.69840 ,16.66468 
225 ,45.3366 ,1.44740 ,1.68813 ,16.56395 
226 ,45.5286 ,1.44936 ,1.67444 ,16.42963 
227 ,45.7365 ,1.45138 ,1.64707 ,16.16101 
228 ,45.9284 ,1.45330 ,1.66075 ,16.29532 
229 ,46.1209 ,1.45519 ,1.62311 ,15.92596 
230 ,46.3127 ,1.45712 ,1.61627 ,15.85880 
231 ,46.5050 ,1.45910 ,1.61627 ,15.85880 
232 ,46.7127 ,1.46114 ,1.60258 ,15.72449 
233 ,46.9052 ,1.46317 ,1.57520 ,15.45586 
234 ,47.1131 ,1.46516 ,1.55809 ,15.28797 
235 ,47.3055 ,1.46709 ,1.55809 ,15.28797 
236 ,47.4972 ,1.46904 ,1.52729 ,14.98577 
237 ,47.6896 ,1.47094 ,1.52387 ,14.95219 
238 ,47.8814 ,1.47282 ,1.49991 ,14.71714 
239 ,48.0737 ,1.47471 ,1.49307 ,14.64998 
240 ,48.2656 ,1.47669 ,1.49307 ,14.64998 
241 ,48.4578 ,1.47871 ,1.47253 ,14.44851 
242 ,48.6498 ,1.48051 ,1.47596 ,14.48209 
243 ,48.8578 ,1.48260 ,1.43489 ,14.07915 
244 ,49.0663 ,1.48468 ,1.42805 ,14.01199 
245 ,49.2903 ,1.48684 ,1.41436 ,13.87768 
246 ,49.4984 ,1.48901 ,1.38698 ,13.60906 
247 ,49.6903 ,1.49093 ,1.40067 ,13.74337 
248 ,49.8826 ,1.49283 ,1.36645 ,13.40759 
249 ,50.0743 ,1.49474 ,1.35960 ,13.34043 
250 ,50.2667 ,1.49671 ,1.35960 ,13.34043 
251 ,50.4588 ,1.49863 ,1.32196 ,12.97107 
252 ,50.6509 ,1.50051 ,1.32880 ,13.03822 
253 ,50.8748 ,1.50264 ,1.30143 ,12.76960 
254 ,51.0668 ,1.50469 ,1.30485 ,12.80318 
255 ,51.2751 ,1.50672 ,1.28432 ,12.60171 
256 ,51.4830 ,1.50882 ,1.27747 ,12.53455 
257 ,51.6753 ,1.51079 ,1.23641 ,12.13161 
258 ,51.8832 ,1.51284 ,1.23641 ,12.13161 
259 ,52.0753 ,1.51475 ,1.23298 ,12.09803 
260 ,52.2994 ,1.51683 ,1.22956 ,12.06445 
261 ,52.4915 ,1.51895 ,1.21587 ,11.93014 
262 ,52.6836 ,1.52083 ,1.19876 ,11.76225 
263 ,52.8757 ,1.52280 ,1.16796 ,11.46004 
264 ,53.0674 ,1.52469 ,1.17481 ,11.52720 
265 ,53.2595 ,1.52659 ,1.14401 ,11.22500 
266 ,53.4521 ,1.52857 ,1.14058 ,11.19142 
267 ,53.6598 ,1.53061 ,1.11321 ,10.92279 
268 ,53.8683 ,1.53271 ,1.11663 ,10.95637 
269 ,54.0602 ,1.53462 ,1.08925 ,10.68774 
270 ,54.2524 ,1.53654 ,1.10294 ,10.82206 
271 ,54.4600 ,1.53858 ,1.06872 ,10.48627 
272 ,54.6524 ,1.54049 ,1.05845 ,10.38554 
273 ,54.8445 ,1.54247 ,1.05845 ,10.38554 
274 ,55.0365 ,1.54441 ,1.03108 ,10.11691 
275 ,55.2284 ,1.54628 ,1.02081 ,10.01618 
276 ,55.4209 ,1.54822 ,1.00028 ,9.81471 
277 ,55.6447 ,1.55033 ,1.00370 ,9.84829 
278 ,55.8530 ,1.55253 ,0.99343 ,9.74755 
279 ,56.0610 ,1.55460 ,0.97632 ,9.57966 
280 ,56.2531 ,1.55649 ,0.95237 ,9.34461 
281 ,56.5410 ,1.55893 ,0.94210 ,9.24388 
282 ,56.7332 ,1.56136 ,0.91814 ,9.00883 
283 ,56.9413 ,1.56345 ,0.91130 ,8.94167 
284 ,57.1332 ,1.56534 ,0.89761 ,8.80736 
285 ,57.3415 ,1.56741 ,0.88734 ,8.70662 
286 ,57.5333 ,1.56935 ,0.86339 ,8.47158 
287 ,57.7415 ,1.57141 ,0.86681 ,8.50515 
288 ,57.9336 ,1.57332 ,0.84286 ,8.27011 
289 ,58.1416 ,1.57538 ,0.83943 ,8.23653 
290 ,58.3337 ,1.57734 ,0.81890 ,8.03506 
291 ,58.5260 ,1.57928 ,0.83259 ,8.16937 
292 ,58.7338 ,1.58133 ,0.79152 ,7.76643 
293 ,58.9262 ,1.58327 ,0.79495 ,7.80001 
294 ,59.1342 ,1.58535 ,0.76415 ,7.49780 
295 ,59.3261 ,1.58721 ,0.77099 ,7.56496 
296 ,59.5184 ,1.58917 ,0.75046 ,7.36349 
297 ,59.7265 ,1.59127 ,0.74361 ,7.29633 
298 ,59.9021 ,1.59311 ,0.71281 ,6.99413 
299 ,60.0943 ,1.59495 ,0.69913 ,6.85982 
300 ,60.3027 ,1.59696 ,0.70255 ,6.89340 
301 ,60.4946 ,1.59890 ,0.69228 ,6.79266 
302 ,60.7029 ,1.60089 ,0.68544 ,6.72550 
303 ,60.8949 ,1.60293 ,0.66833 ,6.55761 
304 ,61.0870 ,1.60489 ,0.66490 ,6.52403 
305 ,61.3432 ,1.60741 ,0.65121 ,6.38972 
306 ,61.5512 ,1.60949 ,0.63753 ,6.25541 
307 ,61.7429 ,1.61144 ,0.61699 ,6.05394 
308 ,61.9355 ,1.61334 ,0.59304 ,5.81889 
309 ,62.1272 ,1.61525 ,0.61015 ,5.98678 
310 ,62.3194 ,1.61714 ,0.56908 ,5.58384 
311 ,62.5273 ,1.61924 ,0.56908 ,5.58384 
312 ,62.7197 ,1.62117 ,0.56224 ,5.51668 
313 ,62.9276 ,1.62322 ,0.54855 ,5.38237 
314 ,63.1197 ,1.62513 ,0.52802 ,5.18090 
315 ,63.3276 ,1.62719 ,0.52117 ,5.11375 
316 ,63.5360 ,1.62930 ,0.50406 ,4.94585 
317 ,63.7282 ,1.63127 ,0.50406 ,4.94585 
318 ,63.9203 ,1.63319 ,0.48353 ,4.74438 
319 ,64.1283 ,1.63525 ,0.47326 ,4.64365 
320 ,64.3523 ,1.63749 ,0.44931 ,4.40860 
321 ,64.5605 ,1.63956 ,0.44246 ,4.34144 
322 ,64.7523 ,1.64148 ,0.42877 ,4.20713 
323 ,64.9447 ,1.64341 ,0.43904 ,4.30787 
324 ,65.1526 ,1.64548 ,0.41166 ,4.03924 
325 ,65.3284 ,1.64739 ,0.41166 ,4.03924 
326 ,65.5368 ,1.64928 ,0.40140 ,3.93850 
327 ,65.7450 ,1.65143 ,0.38429 ,3.77061 
328 ,65.9371 ,1.65332 ,0.36033 ,3.53557 
329 ,66.1290 ,1.65527 ,0.35691 ,3.50199 
330 ,66.3213 ,1.65715 ,0.35349 ,3.46841 
331 ,66.5130 ,1.65905 ,0.33638 ,3.30052 
332 ,66.7053 ,1.66100 ,0.32611 ,3.19978 
333 ,66.8975 ,1.66294 ,0.31242 ,3.06547 
334 ,67.0896 ,1.66489 ,0.31584 ,3.09905 
335 ,67.2976 ,1.66689 ,0.29531 ,2.89758 
336 ,67.5054 ,1.66896 ,0.30215 ,2.96473 
337 ,67.6978 ,1.67094 ,0.27478 ,2.69611 
338 ,67.9059 ,1.67301 ,0.27135 ,2.66253 
339 ,68.0980 ,1.67495 ,0.25082 ,2.46106 
340 ,68.3061 ,1.67701 ,0.25767 ,2.52822 
341 ,68.5142 ,1.67910 ,0.22344 ,2.19243 
342 ,68.6902 ,1.68098 ,0.22344 ,2.19243 
343 ,68.8823 ,1.68273 ,0.21318 ,2.09170 
344 ,69.0744 ,1.68461 ,0.18238 ,1.78949 
345 ,69.3144 ,1.68706 ,0.17896 ,1.75592 
346 ,69.5227 ,1.68918 ,0.18238 ,1.78949 
347 ,69.7142 ,1.69110 ,0.15842 ,1.55445 
348 ,69.9225 ,1.69314 ,0.16185 ,1.58802 
349 ,70.1307 ,1.69523 ,0.13789 ,1.35298 
350 ,70.3229 ,1.69713 ,0.14131 ,1.38655 
351 ,70.5310 ,1.69923 ,0.10709 ,1.05077 
352 ,70.7228 ,1.70117 ,0.11393 ,1.11793 
353 ,70.9311 ,1.70323 ,0.09340 ,0.91646 
354 ,71.1391 ,1.70531 ,0.08998 ,0.88288 
355 ,71.3313 ,1.70722 ,0.07287 ,0.71499 
356 ,71.5235 ,1.70914 ,0.06945 ,0.68141 
357 ,71.7155 ,1.71107 ,0.04891 ,0.47994 
358 ,71.9232 ,1.71315 ,0.05918 ,0.58067 
359 ,72.1155 ,1.71512 ,0.02496 ,0.24489 
360 ,72.3077 ,1.71699 ,0.02838 ,0.27847 
361 ,72.5159 ,1.71898 ,0.02154 ,0.21131 
362 ,72.7079 ,1.72099 ,0.02154 ,0.21131 
363 ,72.9000 ,1.72295 ,-0.00926 ,-0.09089 
364 ,73.0919 ,1.72483 ,-0.02295 ,-0.22520 
365 ,73.3002 ,1.72687 ,-0.01953 ,-0.19163 
366 ,73.4922 ,1.72901 ,-0.02980 ,-0.29236 
367 ,73.7004 ,1.73091 ,-0.04348 ,-0.42667 
368 ,73.8924 ,1.73280 ,-0.06402 ,-0.62814 
369 ,74.0841 ,1.73475 ,-0.05717 ,-0.56099 
370 ,74.2766 ,1.73674 ,-0.06744 ,-0.66172 
371 ,74.4844 ,1.73881 ,-0.07086 ,-0.69530 
372 ,74.6768 ,1.74074 ,-0.10166 ,-0.99751 
373 ,74.8688 ,1.74264 ,-0.10851 ,-1.06466 
374 ,75.0770 ,1.74472 ,-0.11535 ,-1.13182 
375 ,75.2847 ,1.74672 ,-0.11877 ,-1.16540 
376 ,75.4771 ,1.74870 ,-0.14273 ,-1.40045 
377 ,75.6688 ,1.75057 ,-0.15984 ,-1.56834 
378 ,75.8613 ,1.75255 ,-0.15642 ,-1.53476 
379 ,76.0530 ,1.75445 ,-0.18037 ,-1.76981 
380 ,76.2456 ,1.75630 ,-0.17695 ,-1.73623 
381 ,76.4533 ,1.75837 ,-0.19748 ,-1.93770 
382 ,76.6616 ,1.76051 ,-0.18379 ,-1.80338 
383 ,76.8537 ,1.76246 ,-0.21117 ,-2.07201 
384 ,77.0457 ,1.76440 ,-0.21117 ,-2.07201 
385 ,77.2378 ,1.76630 ,-0.20775 ,-2.03843 
386 ,77.4134 ,1.76812 ,-0.23855 ,-2.34064 
387 ,77.6056 ,1.76997 ,-0.24881 ,-2.44137 
388 ,77.8301 ,1.77214 ,-0.25908 ,-2.54211 
389 ,78.0382 ,1.77431 ,-0.26593 ,-2.60926 
390 ,78.2302 ,1.77622 ,-0.27619 ,-2.71000 
391 ,78.4383 ,1.77819 ,-0.26593 ,-2.60926 
392 ,78.6465 ,1.78038 ,-0.29673 ,-2.91147 
393 ,78.8543 ,1.78245 ,-0.32068 ,-3.14652 
394 ,79.0466 ,1.78435 ,-0.31041 ,-3.04578 
395 ,79.2545 ,1.78641 ,-0.32752 ,-3.21367 
396 ,79.4627 ,1.78851 ,-0.32068 ,-3.14652 
397 ,79.6548 ,1.79043 ,-0.34464 ,-3.38156 
398 ,79.8467 ,1.79239 ,-0.36175 ,-3.54946 
399 ,80.0389 ,1.79430 ,-0.35490 ,-3.48230 
400 ,80.2310 ,1.79620 ,-0.37886 ,-3.71735 
401 ,80.4231 ,1.79810 ,-0.36859 ,-3.61661 
402 ,80.6312 ,1.80020 ,-0.40281 ,-3.95240 
403 ,80.8393 ,1.80227 ,-0.38912 ,-3.81808 
404 ,81.0472 ,1.80440 ,-0.41992 ,-4.12029 
405 ,81.2394 ,1.80629 ,-0.40966 ,-4.01955 
406 ,81.4314 ,1.80816 ,-0.43703 ,-4.28818 
407 ,81.6235 ,1.81008 ,-0.43019 ,-4.22102 
408 ,81.8315 ,1.81221 ,-0.45757 ,-4.48965 
409 ,82.0557 ,1.81432 ,-0.44730 ,-4.38891 
410 ,82.2798 ,1.81651 ,-0.47468 ,-4.65754 
411 ,82.4878 ,1.81875 ,-0.47810 ,-4.69112 
412 ,82.6799 ,1.82069 ,-0.48152 ,-4.72470 
413 ,82.8716 ,1.82256 ,-0.50890 ,-4.99332 
414 ,83.0640 ,1.82455 ,-0.49863 ,-4.89259 
415 ,83.2723 ,1.82661 ,-0.52259 ,-5.12764 
416 ,83.4642 ,1.82850 ,-0.51917 ,-5.09406 
417 ,83.6564 ,1.83041 ,-0.53970 ,-5.29553 
418 ,83.8644 ,1.83256 ,-0.54997 ,-5.39626 
419 ,84.0723 ,1.83455 ,-0.57050 ,-5.59773 
420 ,84.2645 ,1.83652 ,-0.56708 ,-5.56415 
421 ,84.4568 ,1.83847 ,-0.55681 ,-5.46342 
422 ,84.6644 ,1.84046 ,-0.59445 ,-5.83278 
423 ,84.8569 ,1.84247 ,-0.58761 ,-5.76562 
424 ,85.0646 ,1.84449 ,-0.59445 ,-5.83278 
425 ,85.2567 ,1.84648 ,-0.61499 ,-6.03425 
426 ,85.4490 ,1.84840 ,-0.63894 ,-6.26930 
427 ,85.6731 ,1.85054 ,-0.63552 ,-6.23572 
428 ,85.8652 ,1.85251 ,-0.63894 ,-6.26930 
429 ,86.0732 ,1.85461 ,-0.66290 ,-6.50435 
430 ,86.2653 ,1.85650 ,-0.64921 ,-6.37003 
431 ,86.4733 ,1.85857 ,-0.66974 ,-6.57150 
432 ,86.6815 ,1.86069 ,-0.66632 ,-6.53793 
433 ,86.8735 ,1.86258 ,-0.69027 ,-6.77297 
434 ,87.0656 ,1.86451 ,-0.69370 ,-6.80655 
435 ,87.2575 ,1.86642 ,-0.70739 ,-6.94086 
436 ,87.4980 ,1.86869 ,-0.70739 ,-6.94086 
437 ,87.7058 ,1.87092 ,-0.71765 ,-7.04160 
438 ,87.8981 ,1.87287 ,-0.73476 ,-7.20949 
439 ,88.1059 ,1.87488 ,-0.73476 ,-7.20949 
440 ,88.2982 ,1.87691 ,-0.75187 ,-7.37738 
441 ,88.4904 ,1.87876 ,-0.75872 ,-7.44454 
442 ,88.6984 ,1.88086 ,-0.75530 ,-7.41096 
443 ,88.8905 ,1.88280 ,-0.77925 ,-7.64601 
444 ,89.0824 ,1.88468 ,-0.78267 ,-7.67959 
445 ,89.2746 ,1.88656 ,-0.79978 ,-7.84748 
446 ,89.4822 ,1.88866 ,-0.80663 ,-7.91464 
447 ,89.6748 ,1.89060 ,-0.80663 ,-7.91464 
448 ,89.8668 ,1.89253 ,-0.83058 ,-8.14968 
449 ,90.0590 ,1.89447 ,-0.81689 ,-8.01537 
450 ,90.2508 ,1.89648 ,-0.83401 ,-8.18326 
451 ,90.4432 ,1.89825 ,-0.84427 ,-8.28400 
452 ,90.6507 ,1.90036 ,-0.87165 ,-8.55262 
453 ,90.8432 ,1.90223 ,-0.85112 ,-8.35115 
454 ,91.0354 ,1.90421 ,-0.87165 ,-8.55262 
455 ,91.2431 ,1.90626 ,-0.87507 ,-8.58620 
456 ,91.4357 ,1.90819 ,-0.89218 ,-8.75409 
457 ,91.6435 ,1.91027 ,-0.88534 ,-8.68694 
458 ,91.8515 ,1.91228 ,-0.91272 ,-8.95556 
459 ,92.0438 ,1.91434 ,-0.90587 ,-8.88841 
460 ,92.2358 ,1.91619 ,-0.93325 ,-9.15703 
461 ,92.4439 ,1.91826 ,-0.94694 ,-9.29135 
462 ,92.6520 ,1.92039 ,-0.96063 ,-9.42566 
