Data stamp = , 02-05-2022 08:31:37 635

Calibration Values: 
Slope = , 26.54 , g/V 
Offset Voltage at no contact = , -0.501760 , V 

No , Time , Stage Position ,   Mass , Force 
   ,  (s) ,      (mm)      ,   (g)  , (mN)  

1 ,0.0000 ,0.99948 ,5.33274 ,52.32484 
2 ,0.2301 ,0.99953 ,5.33274 ,52.32484 
3 ,0.9666 ,1.00273 ,5.33616 ,52.35841 
4 ,1.2227 ,1.00630 ,5.34301 ,52.42557 
5 ,1.4308 ,1.00854 ,5.33616 ,52.35841 
6 ,1.6229 ,1.01042 ,5.33274 ,52.32484 
7 ,1.8150 ,1.01239 ,5.29167 ,51.92190 
8 ,2.0071 ,1.01430 ,5.29167 ,51.92190 
9 ,2.2151 ,1.01635 ,5.26430 ,51.65327 
10 ,2.4072 ,1.01832 ,5.24376 ,51.45180 
11 ,2.6153 ,1.02038 ,5.21296 ,51.14960 
12 ,2.8074 ,1.02232 ,5.21639 ,51.18317 
13 ,2.9996 ,1.02427 ,5.18216 ,50.84739 
14 ,3.2075 ,1.02628 ,5.16505 ,50.67950 
15 ,3.3998 ,1.02823 ,5.16505 ,50.67950 
16 ,3.6076 ,1.03035 ,5.13425 ,50.37729 
17 ,3.7997 ,1.03223 ,5.10003 ,50.04151 
18 ,4.0079 ,1.03421 ,5.06581 ,49.70573 
19 ,4.1838 ,1.03619 ,5.06581 ,49.70573 
20 ,4.3924 ,1.03806 ,5.04185 ,49.47068 
21 ,4.6005 ,1.04026 ,5.03501 ,49.40352 
22 ,4.7925 ,1.04217 ,5.01106 ,49.16848 
23 ,4.9846 ,1.04408 ,4.99737 ,49.03416 
24 ,5.1926 ,1.04618 ,4.97341 ,48.79911 
25 ,5.4009 ,1.04817 ,4.94603 ,48.53049 
26 ,5.6087 ,1.05030 ,4.93919 ,48.46333 
27 ,5.7848 ,1.05221 ,4.90839 ,48.16113 
28 ,5.9770 ,1.05399 ,4.89128 ,47.99324 
29 ,6.1690 ,1.05594 ,4.87417 ,47.82534 
30 ,6.4090 ,1.05817 ,4.85706 ,47.65745 
31 ,6.6012 ,1.06023 ,4.84679 ,47.55672 
32 ,6.7933 ,1.06215 ,4.81257 ,47.22093 
33 ,6.9854 ,1.06407 ,4.81599 ,47.25451 
34 ,7.1774 ,1.06603 ,4.77150 ,46.81800 
35 ,7.3694 ,1.06791 ,4.77835 ,46.88515 
36 ,7.5936 ,1.07011 ,4.74413 ,46.54937 
37 ,7.8016 ,1.07224 ,4.72702 ,46.38148 
38 ,7.9940 ,1.07418 ,4.70990 ,46.21359 
39 ,8.2020 ,1.07622 ,4.69279 ,46.04569 
40 ,8.3943 ,1.07818 ,4.67226 ,45.84422 
41 ,8.6020 ,1.08018 ,4.63804 ,45.50844 
42 ,8.7943 ,1.08215 ,4.62777 ,45.40771 
43 ,9.0022 ,1.08426 ,4.61408 ,45.27339 
44 ,9.1943 ,1.08614 ,4.60382 ,45.17266 
45 ,9.4182 ,1.08820 ,4.59697 ,45.10550 
46 ,9.6260 ,1.09043 ,4.56960 ,44.83688 
47 ,9.8345 ,1.09257 ,4.53880 ,44.53467 
48 ,10.0426 ,1.09464 ,4.51826 ,44.33320 
49 ,10.2505 ,1.09672 ,4.50457 ,44.19889 
50 ,10.4425 ,1.09865 ,4.47720 ,43.93026 
51 ,10.6509 ,1.10069 ,4.47378 ,43.89668 
52 ,10.8428 ,1.10264 ,4.45324 ,43.69521 
53 ,11.0350 ,1.10457 ,4.42586 ,43.42659 
54 ,11.2271 ,1.10649 ,4.41902 ,43.35943 
55 ,11.4352 ,1.10859 ,4.38822 ,43.05723 
56 ,11.6273 ,1.11045 ,4.39164 ,43.09080 
57 ,11.8189 ,1.11233 ,4.35400 ,42.72144 
58 ,12.0116 ,1.11433 ,4.35400 ,42.72144 
59 ,12.2035 ,1.11637 ,4.33004 ,42.48639 
60 ,12.3956 ,1.11813 ,4.31636 ,42.35208 
61 ,12.5874 ,1.12009 ,4.30609 ,42.25135 
62 ,12.7796 ,1.12198 ,4.27529 ,41.94914 
63 ,12.9714 ,1.12391 ,4.25818 ,41.78125 
64 ,13.1639 ,1.12585 ,4.25133 ,41.71409 
65 ,13.3720 ,1.12793 ,4.22396 ,41.44547 
66 ,13.5641 ,1.12982 ,4.21027 ,41.31115 
67 ,13.7722 ,1.13188 ,4.19658 ,41.17684 
68 ,13.9799 ,1.13392 ,4.16920 ,40.90821 
69 ,14.1723 ,1.13595 ,4.16236 ,40.84106 
70 ,14.3804 ,1.13797 ,4.12814 ,40.50527 
71 ,14.5885 ,1.14001 ,4.12471 ,40.47170 
72 ,14.7965 ,1.14216 ,4.10076 ,40.23665 
73 ,14.9886 ,1.14405 ,4.10076 ,40.23665 
74 ,15.1967 ,1.14613 ,4.06654 ,39.90087 
75 ,15.4047 ,1.14810 ,4.05627 ,39.80013 
76 ,15.5969 ,1.15017 ,4.04600 ,39.69940 
77 ,15.7890 ,1.15210 ,4.02547 ,39.49793 
78 ,15.9968 ,1.15411 ,3.98783 ,39.12856 
79 ,16.1888 ,1.15612 ,4.00152 ,39.26288 
80 ,16.3812 ,1.15803 ,3.95361 ,38.79278 
81 ,16.5893 ,1.16010 ,3.95703 ,38.82636 
82 ,16.7974 ,1.16220 ,3.91254 ,38.38984 
83 ,16.9896 ,1.16412 ,3.92281 ,38.49058 
84 ,17.1977 ,1.16616 ,3.89885 ,38.25553 
85 ,17.3893 ,1.16809 ,3.89885 ,38.25553 
86 ,17.5977 ,1.17016 ,3.85779 ,37.85259 
87 ,17.8058 ,1.17228 ,3.82699 ,37.55038 
88 ,17.9977 ,1.17415 ,3.81672 ,37.44965 
89 ,18.1900 ,1.17609 ,3.80303 ,37.31534 
90 ,18.3976 ,1.17813 ,3.77223 ,37.01313 
91 ,18.6058 ,1.18023 ,3.77565 ,37.04671 
92 ,18.8139 ,1.18227 ,3.76196 ,36.91240 
93 ,19.0062 ,1.18424 ,3.74485 ,36.74450 
94 ,19.2462 ,1.18660 ,3.72774 ,36.57661 
95 ,19.4543 ,1.18861 ,3.68668 ,36.17367 
96 ,19.6623 ,1.19084 ,3.66614 ,35.97220 
97 ,19.8705 ,1.19282 ,3.67641 ,36.07294 
98 ,20.0625 ,1.19479 ,3.62850 ,35.60284 
99 ,20.2863 ,1.19697 ,3.62166 ,35.53569 
100 ,20.4783 ,1.19897 ,3.59770 ,35.30064 
101 ,20.6709 ,1.20087 ,3.60112 ,35.33422 
102 ,20.8790 ,1.20296 ,3.56006 ,34.93128 
103 ,21.0710 ,1.20493 ,3.56348 ,34.96485 
104 ,21.2630 ,1.20678 ,3.54637 ,34.79696 
105 ,21.4712 ,1.20885 ,3.53610 ,34.69623 
106 ,21.6630 ,1.21078 ,3.50188 ,34.36045 
107 ,21.8549 ,1.21273 ,3.48819 ,34.22613 
108 ,22.0633 ,1.21476 ,3.46081 ,33.95751 
109 ,22.2551 ,1.21669 ,3.45739 ,33.92393 
110 ,22.4311 ,1.21860 ,3.44028 ,33.75604 
111 ,22.6232 ,1.22037 ,3.41633 ,33.52099 
112 ,22.8152 ,1.22231 ,3.41975 ,33.55457 
113 ,23.0078 ,1.22426 ,3.40264 ,33.38667 
114 ,23.2158 ,1.22636 ,3.37184 ,33.08447 
115 ,23.4077 ,1.22822 ,3.36842 ,33.05089 
116 ,23.6161 ,1.23032 ,3.32735 ,32.64795 
117 ,23.8080 ,1.23225 ,3.33419 ,32.71511 
118 ,24.0004 ,1.23414 ,3.29313 ,32.31217 
119 ,24.2083 ,1.23624 ,3.29997 ,32.37933 
120 ,24.3841 ,1.23812 ,3.26233 ,32.00996 
121 ,24.5763 ,1.23987 ,3.25891 ,31.97639 
122 ,24.7685 ,1.24182 ,3.25548 ,31.94281 
123 ,24.9761 ,1.24389 ,3.22468 ,31.64060 
124 ,25.1687 ,1.24586 ,3.22468 ,31.64060 
125 ,25.3766 ,1.24797 ,3.19046 ,31.30482 
126 ,25.5847 ,1.25003 ,3.16651 ,31.06977 
127 ,25.7768 ,1.25187 ,3.16309 ,31.03619 
128 ,25.9686 ,1.25380 ,3.14940 ,30.90188 
129 ,26.1445 ,1.25570 ,3.13229 ,30.73399 
130 ,26.3371 ,1.25755 ,3.11175 ,30.53252 
131 ,26.5452 ,1.25961 ,3.09122 ,30.33105 
132 ,26.7370 ,1.26150 ,3.07753 ,30.19674 
133 ,26.9292 ,1.26339 ,3.06384 ,30.06242 
134 ,27.1214 ,1.26535 ,3.03304 ,29.76022 
135 ,27.3130 ,1.26742 ,3.02620 ,29.69306 
136 ,27.5055 ,1.26915 ,3.01935 ,29.62590 
137 ,27.6977 ,1.27109 ,2.99540 ,29.39086 
138 ,27.9057 ,1.27316 ,2.98171 ,29.25654 
139 ,28.0976 ,1.27508 ,2.96802 ,29.12223 
140 ,28.2894 ,1.27698 ,2.95776 ,29.02150 
141 ,28.4981 ,1.27911 ,2.94749 ,28.92076 
142 ,28.6898 ,1.28110 ,2.91669 ,28.61856 
143 ,28.8978 ,1.28310 ,2.89958 ,28.45066 
144 ,29.1062 ,1.28511 ,2.89616 ,28.41709 
145 ,29.3142 ,1.28727 ,2.87562 ,28.21562 
146 ,29.5225 ,1.28935 ,2.84140 ,27.87983 
147 ,29.7303 ,1.29144 ,2.83456 ,27.81268 
148 ,29.9226 ,1.29336 ,2.80718 ,27.54405 
149 ,30.1306 ,1.29543 ,2.81745 ,27.64479 
150 ,30.3866 ,1.29776 ,2.80034 ,27.47689 
151 ,30.5627 ,1.29989 ,2.76611 ,27.14111 
152 ,30.7548 ,1.30167 ,2.76954 ,27.17469 
153 ,30.9629 ,1.30374 ,2.74216 ,26.90606 
154 ,31.1710 ,1.30574 ,2.74216 ,26.90606 
155 ,31.3631 ,1.30776 ,2.69767 ,26.46954 
156 ,31.5551 ,1.30970 ,2.70794 ,26.57028 
157 ,31.7472 ,1.31163 ,2.67372 ,26.23450 
158 ,31.9393 ,1.31353 ,2.66687 ,26.16734 
159 ,32.1316 ,1.31549 ,2.64976 ,25.99945 
160 ,32.3076 ,1.31731 ,2.62238 ,25.73082 
161 ,32.4998 ,1.31912 ,2.62238 ,25.73082 
162 ,32.7074 ,1.32119 ,2.59843 ,25.49577 
163 ,32.9158 ,1.32320 ,2.59501 ,25.46220 
164 ,33.1239 ,1.32538 ,2.55736 ,25.09283 
165 ,33.3316 ,1.32745 ,2.55394 ,25.05926 
166 ,33.5560 ,1.32967 ,2.54710 ,24.99210 
167 ,33.7481 ,1.33156 ,2.51972 ,24.72347 
168 ,33.9720 ,1.33369 ,2.51287 ,24.65632 
169 ,34.1803 ,1.33594 ,2.47865 ,24.32053 
170 ,34.3722 ,1.33786 ,2.46496 ,24.18622 
171 ,34.5805 ,1.33997 ,2.46839 ,24.21980 
172 ,34.7726 ,1.34183 ,2.44443 ,23.98475 
173 ,34.9641 ,1.34384 ,2.43074 ,23.85044 
174 ,35.1567 ,1.34564 ,2.42732 ,23.81686 
175 ,35.3486 ,1.34757 ,2.39994 ,23.54823 
176 ,35.5409 ,1.34954 ,2.38625 ,23.41392 
177 ,35.7488 ,1.35159 ,2.36572 ,23.21245 
178 ,35.9570 ,1.35369 ,2.36914 ,23.24603 
179 ,36.1812 ,1.35586 ,2.34519 ,23.01098 
180 ,36.3889 ,1.35803 ,2.31781 ,22.74235 
181 ,36.5813 ,1.35991 ,2.31097 ,22.67520 
182 ,36.7891 ,1.36200 ,2.28017 ,22.37299 
183 ,36.9814 ,1.36394 ,2.27674 ,22.33941 
184 ,37.1734 ,1.36583 ,2.26648 ,22.23868 
185 ,37.3656 ,1.36774 ,2.24252 ,22.00363 
186 ,37.5736 ,1.36983 ,2.25279 ,22.10437 
187 ,37.7657 ,1.37175 ,2.20830 ,21.66785 
188 ,37.9897 ,1.37389 ,2.19119 ,21.49996 
189 ,38.1815 ,1.37592 ,2.19803 ,21.56711 
190 ,38.3740 ,1.37787 ,2.17750 ,21.36564 
191 ,38.5820 ,1.37990 ,2.17066 ,21.29849 
192 ,38.7738 ,1.38187 ,2.13986 ,20.99628 
193 ,38.9661 ,1.38376 ,2.11248 ,20.72766 
194 ,39.1581 ,1.38568 ,2.11932 ,20.79481 
195 ,39.3338 ,1.38756 ,2.08852 ,20.49261 
196 ,39.5744 ,1.38974 ,2.09537 ,20.55976 
197 ,39.7825 ,1.39194 ,2.07484 ,20.35829 
198 ,39.9908 ,1.39399 ,2.05088 ,20.12325 
199 ,40.1827 ,1.39596 ,2.05773 ,20.19040 
200 ,40.3743 ,1.39781 ,2.02693 ,19.88820 
201 ,40.5989 ,1.39994 ,2.02008 ,19.82104 
202 ,40.8071 ,1.40214 ,1.98586 ,19.48526 
203 ,41.0149 ,1.40421 ,1.98244 ,19.45168 
204 ,41.2069 ,1.40616 ,1.96190 ,19.25021 
205 ,41.3992 ,1.40812 ,1.95848 ,19.21663 
206 ,41.6071 ,1.41016 ,1.94137 ,19.04874 
207 ,41.7992 ,1.41205 ,1.92768 ,18.91443 
208 ,41.9913 ,1.41399 ,1.90715 ,18.71296 
209 ,42.1834 ,1.41594 ,1.88319 ,18.47791 
210 ,42.3754 ,1.41782 ,1.87635 ,18.41075 
211 ,42.5671 ,1.41975 ,1.87293 ,18.37717 
212 ,42.7757 ,1.42177 ,1.86266 ,18.27644 
213 ,42.9994 ,1.42403 ,1.85582 ,18.20928 
214 ,43.2874 ,1.42652 ,1.81133 ,17.77276 
215 ,43.4800 ,1.42891 ,1.81133 ,17.77276 
216 ,43.6875 ,1.43097 ,1.78053 ,17.47056 
217 ,43.8959 ,1.43298 ,1.77711 ,17.43698 
218 ,44.0880 ,1.43502 ,1.75315 ,17.20193 
219 ,44.2961 ,1.43705 ,1.74289 ,17.10120 
220 ,44.4882 ,1.43894 ,1.71893 ,16.86615 
221 ,44.6963 ,1.44104 ,1.70866 ,16.76542 
222 ,44.8725 ,1.44295 ,1.69155 ,16.59752 
223 ,45.0646 ,1.44471 ,1.70182 ,16.69826 
224 ,45.2727 ,1.44683 ,1.66418 ,16.32890 
225 ,45.4808 ,1.44885 ,1.66760 ,16.36248 
226 ,45.6728 ,1.45078 ,1.63680 ,16.06027 
227 ,45.8647 ,1.45269 ,1.65049 ,16.19458 
228 ,46.0888 ,1.45484 ,1.61627 ,15.85880 
229 ,46.2969 ,1.45706 ,1.61627 ,15.85880 
230 ,46.4888 ,1.45893 ,1.58547 ,15.55660 
231 ,46.6966 ,1.46098 ,1.57520 ,15.45586 
232 ,46.8887 ,1.46296 ,1.56493 ,15.35513 
233 ,47.0809 ,1.46490 ,1.56151 ,15.32155 
234 ,47.2891 ,1.46690 ,1.52729 ,14.98577 
235 ,47.4812 ,1.46888 ,1.52387 ,14.95219 
236 ,47.6891 ,1.47098 ,1.50333 ,14.75072 
237 ,47.8814 ,1.47285 ,1.50676 ,14.78430 
238 ,48.0895 ,1.47494 ,1.47596 ,14.48209 
239 ,48.2975 ,1.47700 ,1.48622 ,14.58283 
240 ,48.5217 ,1.47919 ,1.46227 ,14.34778 
241 ,48.7299 ,1.48140 ,1.43147 ,14.04557 
242 ,48.9378 ,1.48338 ,1.43147 ,14.04557 
243 ,49.1302 ,1.48532 ,1.40751 ,13.81053 
244 ,49.3061 ,1.48723 ,1.40067 ,13.74337 
245 ,49.4982 ,1.48900 ,1.39040 ,13.64263 
246 ,49.6900 ,1.49098 ,1.36987 ,13.44116 
247 ,49.8821 ,1.49290 ,1.38014 ,13.54190 
248 ,50.0745 ,1.49480 ,1.33907 ,13.13896 
249 ,50.2824 ,1.49684 ,1.35276 ,13.27327 
250 ,50.4906 ,1.49891 ,1.31512 ,12.90391 
251 ,50.6828 ,1.50101 ,1.30827 ,12.83675 
252 ,50.8748 ,1.50278 ,1.30485 ,12.80318 
253 ,51.0665 ,1.50469 ,1.29458 ,12.70244 
254 ,51.2750 ,1.50676 ,1.27405 ,12.50097 
255 ,51.4826 ,1.50885 ,1.27405 ,12.50097 
256 ,51.7070 ,1.51112 ,1.25352 ,12.29950 
257 ,51.9313 ,1.51337 ,1.21245 ,11.89656 
258 ,52.1553 ,1.51544 ,1.22956 ,12.06445 
259 ,52.3634 ,1.51767 ,1.21245 ,11.89656 
260 ,52.5551 ,1.51956 ,1.18165 ,11.59436 
261 ,52.7636 ,1.52157 ,1.16796 ,11.46004 
262 ,52.9557 ,1.52363 ,1.15085 ,11.29215 
263 ,53.1797 ,1.52574 ,1.14401 ,11.22500 
264 ,53.3717 ,1.52775 ,1.14058 ,11.19142 
265 ,53.5796 ,1.52973 ,1.12690 ,11.05710 
266 ,53.8041 ,1.53199 ,1.10979 ,10.88921 
267 ,54.0120 ,1.53418 ,1.08583 ,10.65416 
268 ,54.2041 ,1.53610 ,1.09267 ,10.72132 
269 ,54.4120 ,1.53813 ,1.06530 ,10.45270 
270 ,54.6043 ,1.54010 ,1.05503 ,10.35196 
271 ,54.7959 ,1.54199 ,1.03108 ,10.11691 
272 ,54.9883 ,1.54389 ,1.02423 ,10.04976 
273 ,55.1964 ,1.54604 ,1.00712 ,9.88186 
274 ,55.4046 ,1.54807 ,1.01054 ,9.91544 
275 ,55.5967 ,1.54999 ,0.97974 ,9.61324 
276 ,55.8204 ,1.55220 ,0.96263 ,9.44535 
277 ,56.0288 ,1.55434 ,0.97290 ,9.54608 
278 ,56.2369 ,1.55638 ,0.94552 ,9.27745 
279 ,56.4451 ,1.55846 ,0.93525 ,9.17672 
280 ,56.6372 ,1.56043 ,0.91814 ,9.00883 
281 ,56.8451 ,1.56247 ,0.91814 ,9.00883 
282 ,57.0372 ,1.56435 ,0.88050 ,8.63947 
283 ,57.2294 ,1.56635 ,0.88734 ,8.70662 
284 ,57.4212 ,1.56823 ,0.87023 ,8.53873 
285 ,57.6135 ,1.57015 ,0.84628 ,8.30368 
286 ,57.8056 ,1.57211 ,0.85997 ,8.43800 
287 ,57.9977 ,1.57399 ,0.82575 ,8.10221 
288 ,58.1899 ,1.57597 ,0.83601 ,8.20295 
289 ,58.3979 ,1.57796 ,0.79837 ,7.83359 
290 ,58.5899 ,1.57993 ,0.80179 ,7.86717 
291 ,58.7821 ,1.58184 ,0.78810 ,7.73285 
292 ,58.9742 ,1.58377 ,0.76757 ,7.53138 
293 ,59.1498 ,1.58562 ,0.77099 ,7.56496 
294 ,59.3423 ,1.58747 ,0.74019 ,7.26276 
295 ,59.5664 ,1.58967 ,0.75046 ,7.36349 
296 ,59.7585 ,1.59158 ,0.71966 ,7.06129 
297 ,59.9823 ,1.59372 ,0.71966 ,7.06129 
298 ,60.1746 ,1.59578 ,0.70255 ,6.89340 
299 ,60.3983 ,1.59789 ,0.69913 ,6.85982 
300 ,60.6228 ,1.60022 ,0.68544 ,6.72550 
301 ,60.8149 ,1.60217 ,0.65806 ,6.45688 
302 ,61.0229 ,1.60424 ,0.65464 ,6.42330 
303 ,61.2149 ,1.60615 ,0.64437 ,6.32256 
304 ,61.4071 ,1.60802 ,0.63410 ,6.22183 
305 ,61.6152 ,1.61003 ,0.60330 ,5.91962 
306 ,61.8073 ,1.61212 ,0.59646 ,5.85247 
307 ,62.0153 ,1.61416 ,0.59646 ,5.85247 
308 ,62.2074 ,1.61605 ,0.58962 ,5.78531 
309 ,62.3992 ,1.61799 ,0.56566 ,5.55026 
310 ,62.5917 ,1.61999 ,0.56566 ,5.55026 
311 ,62.7999 ,1.62201 ,0.52459 ,5.14732 
312 ,62.9918 ,1.62391 ,0.53144 ,5.21448 
313 ,63.1997 ,1.62596 ,0.51775 ,5.08017 
314 ,63.3915 ,1.62793 ,0.51091 ,5.01301 
315 ,63.5835 ,1.62982 ,0.48695 ,4.77796 
316 ,63.7761 ,1.63176 ,0.47668 ,4.67723 
317 ,63.9842 ,1.63385 ,0.46984 ,4.61007 
318 ,64.1923 ,1.63587 ,0.47326 ,4.64365 
319 ,64.4002 ,1.63790 ,0.44588 ,4.37502 
320 ,64.5925 ,1.63991 ,0.44931 ,4.40860 
321 ,64.8007 ,1.64198 ,0.41509 ,4.07282 
322 ,65.0083 ,1.64404 ,0.42193 ,4.13997 
323 ,65.2007 ,1.64597 ,0.40140 ,3.93850 
324 ,65.3928 ,1.64793 ,0.39797 ,3.90493 
325 ,65.5849 ,1.64984 ,0.37744 ,3.70346 
326 ,65.7604 ,1.65172 ,0.36375 ,3.56914 
327 ,65.9530 ,1.65351 ,0.36718 ,3.60272 
328 ,66.1611 ,1.65558 ,0.33295 ,3.26694 
329 ,66.4170 ,1.65807 ,0.33638 ,3.30052 
330 ,66.6253 ,1.66020 ,0.31926 ,3.13263 
331 ,66.8170 ,1.66214 ,0.32953 ,3.23336 
332 ,67.0254 ,1.66421 ,0.29189 ,2.86400 
333 ,67.2335 ,1.66634 ,0.29531 ,2.89758 
334 ,67.4257 ,1.66823 ,0.27820 ,2.72969 
335 ,67.6338 ,1.67034 ,0.27135 ,2.66253 
336 ,67.8258 ,1.67227 ,0.24740 ,2.42748 
337 ,68.0336 ,1.67431 ,0.24740 ,2.42748 
338 ,68.2260 ,1.67626 ,0.24055 ,2.36032 
339 ,68.4340 ,1.67832 ,0.22344 ,2.19243 
340 ,68.6261 ,1.68021 ,0.21318 ,2.09170 
341 ,68.8180 ,1.68212 ,0.19607 ,1.92381 
342 ,69.0100 ,1.68406 ,0.20291 ,1.99096 
343 ,69.2183 ,1.68619 ,0.17896 ,1.75592 
344 ,69.4743 ,1.68843 ,0.16527 ,1.62160 
345 ,69.6826 ,1.69068 ,0.16185 ,1.58802 
346 ,69.8905 ,1.69286 ,0.14816 ,1.45371 
347 ,70.0828 ,1.69482 ,0.13105 ,1.28582 
348 ,70.2907 ,1.69690 ,0.13789 ,1.35298 
349 ,70.4987 ,1.69890 ,0.12078 ,1.18508 
350 ,70.6909 ,1.70088 ,0.09682 ,0.95004 
351 ,70.8830 ,1.70280 ,0.07971 ,0.78214 
352 ,71.0751 ,1.70474 ,0.08656 ,0.84930 
353 ,71.2827 ,1.70675 ,0.06602 ,0.64783 
354 ,71.4753 ,1.70871 ,0.06945 ,0.68141 
355 ,71.6673 ,1.71066 ,0.04891 ,0.47994 
356 ,71.8432 ,1.71253 ,0.04549 ,0.44636 
357 ,72.0355 ,1.71433 ,0.03522 ,0.34563 
358 ,72.2275 ,1.71623 ,0.02154 ,0.21131 
359 ,72.4351 ,1.71828 ,0.01469 ,0.14416 
360 ,72.6437 ,1.72032 ,-0.01269 ,-0.12447 
361 ,72.8516 ,1.72250 ,-0.00242 ,-0.02373 
362 ,73.0598 ,1.72443 ,-0.03322 ,-0.32594 
363 ,73.2678 ,1.72659 ,-0.03664 ,-0.35952 
364 ,73.4596 ,1.72856 ,-0.05375 ,-0.52741 
365 ,73.6521 ,1.73047 ,-0.06060 ,-0.59457 
366 ,73.8602 ,1.73257 ,-0.06060 ,-0.59457 
367 ,74.0522 ,1.73449 ,-0.08113 ,-0.79604 
368 ,74.2600 ,1.73653 ,-0.09482 ,-0.93035 
369 ,74.4520 ,1.73846 ,-0.08113 ,-0.79604 
370 ,74.6444 ,1.74037 ,-0.11535 ,-1.13182 
371 ,74.8365 ,1.74230 ,-0.10508 ,-1.03108 
372 ,75.0285 ,1.74421 ,-0.13246 ,-1.29971 
373 ,75.2208 ,1.74615 ,-0.14615 ,-1.43402 
374 ,75.4288 ,1.74819 ,-0.14273 ,-1.40045 
375 ,75.6207 ,1.75016 ,-0.15984 ,-1.56834 
376 ,75.8290 ,1.75219 ,-0.17353 ,-1.70265 
377 ,76.0368 ,1.75434 ,-0.17353 ,-1.70265 
378 ,76.2292 ,1.75625 ,-0.19748 ,-1.93770 
379 ,76.4211 ,1.75818 ,-0.19406 ,-1.90412 
380 ,76.6294 ,1.76025 ,-0.19748 ,-1.93770 
381 ,76.8213 ,1.76216 ,-0.20775 ,-2.03843 
382 ,77.0296 ,1.76427 ,-0.22144 ,-2.17275 
383 ,77.2376 ,1.76634 ,-0.23513 ,-2.30706 
384 ,77.4297 ,1.76825 ,-0.23513 ,-2.30706 
385 ,77.6218 ,1.77017 ,-0.26250 ,-2.57569 
386 ,77.8295 ,1.77224 ,-0.26250 ,-2.57569 
387 ,78.0540 ,1.77431 ,-0.26250 ,-2.57569 
388 ,78.2618 ,1.77656 ,-0.29673 ,-2.91147 
389 ,78.4699 ,1.77857 ,-0.28646 ,-2.81073 
390 ,78.6623 ,1.78058 ,-0.30699 ,-3.01220 
391 ,78.8702 ,1.78258 ,-0.30699 ,-3.01220 
392 ,79.0623 ,1.78457 ,-0.32068 ,-3.14652 
393 ,79.2705 ,1.78658 ,-0.32410 ,-3.18010 
394 ,79.4621 ,1.78858 ,-0.34464 ,-3.38156 
395 ,79.6706 ,1.79052 ,-0.34464 ,-3.38156 
396 ,79.8627 ,1.79255 ,-0.36175 ,-3.54946 
397 ,80.0703 ,1.79463 ,-0.37544 ,-3.68377 
398 ,80.2628 ,1.79657 ,-0.38912 ,-3.81808 
399 ,80.4549 ,1.79851 ,-0.39597 ,-3.88524 
400 ,80.6468 ,1.80037 ,-0.40623 ,-3.98597 
401 ,80.8551 ,1.80233 ,-0.41992 ,-4.12029 
402 ,81.0470 ,1.80443 ,-0.43361 ,-4.25460 
403 ,81.2391 ,1.80633 ,-0.41650 ,-4.08671 
404 ,81.4312 ,1.80817 ,-0.43019 ,-4.22102 
405 ,81.6235 ,1.81017 ,-0.45414 ,-4.45607 
406 ,81.8313 ,1.81224 ,-0.46783 ,-4.59038 
407 ,82.0555 ,1.81444 ,-0.46099 ,-4.52323 
408 ,82.2473 ,1.81648 ,-0.49179 ,-4.82543 
409 ,82.4553 ,1.81846 ,-0.47126 ,-4.62396 
410 ,82.6473 ,1.82037 ,-0.50890 ,-4.99332 
411 ,82.8394 ,1.82231 ,-0.50890 ,-4.99332 
412 ,83.0316 ,1.82420 ,-0.52259 ,-5.12764 
413 ,83.2400 ,1.82635 ,-0.52943 ,-5.19479 
414 ,83.4479 ,1.82834 ,-0.53628 ,-5.26195 
415 ,83.6400 ,1.83033 ,-0.53970 ,-5.29553 
416 ,83.8322 ,1.83225 ,-0.55339 ,-5.42984 
417 ,84.0402 ,1.83432 ,-0.56365 ,-5.53058 
418 ,84.2643 ,1.83658 ,-0.57734 ,-5.66489 
419 ,84.4560 ,1.83846 ,-0.56365 ,-5.53058 
420 ,84.6646 ,1.84051 ,-0.60814 ,-5.96709 
421 ,84.8726 ,1.84266 ,-0.59445 ,-5.83278 
422 ,85.0645 ,1.84455 ,-0.62183 ,-6.10141 
423 ,85.2568 ,1.84648 ,-0.61841 ,-6.06783 
424 ,85.4489 ,1.84841 ,-0.63210 ,-6.20214 
425 ,85.6566 ,1.85048 ,-0.62183 ,-6.10141 
426 ,85.8488 ,1.85238 ,-0.64921 ,-6.37003 
427 ,86.0570 ,1.85446 ,-0.64236 ,-6.30288 
428 ,86.2648 ,1.85646 ,-0.66632 ,-6.53793 
429 ,86.4569 ,1.85850 ,-0.66290 ,-6.50435 
430 ,86.6490 ,1.86040 ,-0.68343 ,-6.70582 
431 ,86.8575 ,1.86249 ,-0.68685 ,-6.73940 
432 ,87.0655 ,1.86456 ,-0.70054 ,-6.87371 
433 ,87.2575 ,1.86643 ,-0.70739 ,-6.94086 
434 ,87.4974 ,1.86869 ,-0.72107 ,-7.07518 
435 ,87.7058 ,1.87082 ,-0.72792 ,-7.14233 
436 ,87.8976 ,1.87289 ,-0.72107 ,-7.07518 
437 ,88.1060 ,1.87494 ,-0.76556 ,-7.51170 
438 ,88.3140 ,1.87706 ,-0.75530 ,-7.41096 
439 ,88.5059 ,1.87896 ,-0.77583 ,-7.61243 
440 ,88.7141 ,1.88103 ,-0.76898 ,-7.54527 
441 ,88.9217 ,1.88312 ,-0.78610 ,-7.71317 
442 ,89.1142 ,1.88506 ,-0.79978 ,-7.84748 
443 ,89.3224 ,1.88713 ,-0.80663 ,-7.91464 
444 ,89.5304 ,1.88914 ,-0.81689 ,-8.01537 
445 ,89.7227 ,1.89112 ,-0.83058 ,-8.14968 
446 ,89.9305 ,1.89315 ,-0.84427 ,-8.28400 
447 ,90.1385 ,1.89520 ,-0.84769 ,-8.31758 
448 ,90.3470 ,1.89739 ,-0.86481 ,-8.48547 
449 ,90.5389 ,1.89928 ,-0.85796 ,-8.41831 
450 ,90.7469 ,1.90140 ,-0.87507 ,-8.58620 
451 ,90.9390 ,1.90325 ,-0.87507 ,-8.58620 
452 ,91.1467 ,1.90535 ,-0.88534 ,-8.68694 
453 ,91.3390 ,1.90726 ,-0.89218 ,-8.75409 
454 ,91.5153 ,1.90915 ,-0.90929 ,-8.92198 
455 ,91.7071 ,1.91090 ,-0.91614 ,-8.98914 
456 ,91.9001 ,1.91293 ,-0.90587 ,-8.88841 
457 ,92.1073 ,1.91497 ,-0.94009 ,-9.22419 
458 ,92.3155 ,1.91701 ,-0.94009 ,-9.22419 
459 ,92.5238 ,1.91915 ,-0.95036 ,-9.32492 
460 ,92.7317 ,1.92119 ,-0.95036 ,-9.32492 
461 ,92.9240 ,1.92314 ,-0.97431 ,-9.55997 
462 ,93.1000 ,1.92502 ,-0.96747 ,-9.49282 
