Data stamp = , 30-04-2022 22:21:43 623

Calibration Values: 
Slope = , 26.54 , g/V 
Offset Voltage at no contact = , -0.501760 , V 

No , Time , Stage Position ,   Mass , Force 
   ,  (s) ,      (mm)      ,   (g)  , (mN)  

1 ,0.0000 ,1.04953 ,4.99394 ,49.00058 
2 ,0.2229 ,1.04962 ,4.98368 ,48.89985 
3 ,0.7675 ,1.05182 ,4.97341 ,48.79911 
4 ,0.9596 ,1.05386 ,4.96999 ,48.76554 
5 ,1.1839 ,1.05598 ,4.99737 ,49.03416 
6 ,1.3919 ,1.05811 ,4.96999 ,48.76554 
7 ,1.5841 ,1.06007 ,4.94946 ,48.56407 
8 ,1.7762 ,1.06203 ,4.90839 ,48.16113 
9 ,1.9842 ,1.06407 ,4.90155 ,48.09397 
10 ,2.1759 ,1.06598 ,4.87417 ,47.82534 
11 ,2.3684 ,1.06795 ,4.87759 ,47.85892 
12 ,2.5766 ,1.06989 ,4.83652 ,47.45598 
13 ,2.7846 ,1.07206 ,4.82968 ,47.38883 
14 ,2.9766 ,1.07403 ,4.80915 ,47.18736 
15 ,3.1687 ,1.07592 ,4.80573 ,47.15378 
16 ,3.3769 ,1.07796 ,4.76124 ,46.71726 
17 ,3.5849 ,1.08014 ,4.75782 ,46.68368 
18 ,3.7769 ,1.08199 ,4.72702 ,46.38148 
19 ,3.9692 ,1.08391 ,4.72702 ,46.38148 
20 ,4.1610 ,1.08585 ,4.70306 ,46.14643 
21 ,4.3368 ,1.08776 ,4.68595 ,45.97854 
22 ,4.5293 ,1.08954 ,4.66884 ,45.81065 
23 ,4.7370 ,1.09152 ,4.64831 ,45.60918 
24 ,4.9294 ,1.09355 ,4.63462 ,45.47486 
25 ,5.1213 ,1.09547 ,4.60724 ,45.20624 
26 ,5.3295 ,1.09753 ,4.60724 ,45.20624 
27 ,5.5213 ,1.09942 ,4.56617 ,44.80330 
28 ,5.7297 ,1.10149 ,4.55591 ,44.70256 
29 ,5.9217 ,1.10344 ,4.54564 ,44.60183 
30 ,6.1139 ,1.10538 ,4.51484 ,44.29962 
31 ,6.2897 ,1.10726 ,4.50800 ,44.23247 
32 ,6.4816 ,1.10901 ,4.49431 ,44.09815 
33 ,6.6743 ,1.11098 ,4.45666 ,43.72879 
34 ,6.8821 ,1.11308 ,4.45324 ,43.69521 
35 ,7.0902 ,1.11510 ,4.43271 ,43.49374 
36 ,7.2822 ,1.11707 ,4.41218 ,43.29227 
37 ,7.4904 ,1.11907 ,4.39849 ,43.15796 
38 ,7.6664 ,1.12102 ,4.37453 ,42.92291 
39 ,7.8586 ,1.12284 ,4.34716 ,42.65429 
40 ,8.0664 ,1.12487 ,4.33347 ,42.51997 
41 ,8.2588 ,1.12681 ,4.32320 ,42.41924 
42 ,8.4669 ,1.12891 ,4.31293 ,42.31850 
43 ,8.6746 ,1.13096 ,4.27529 ,41.94914 
44 ,8.8677 ,1.13293 ,4.27187 ,41.91556 
45 ,9.0751 ,1.13498 ,4.23080 ,41.51262 
46 ,9.2828 ,1.13705 ,4.23080 ,41.51262 
47 ,9.4755 ,1.13898 ,4.20342 ,41.24400 
48 ,9.6675 ,1.14093 ,4.19316 ,41.14326 
49 ,9.8913 ,1.14309 ,4.17947 ,41.00895 
50 ,10.0835 ,1.14506 ,4.15551 ,40.77390 
51 ,10.2755 ,1.14698 ,4.12471 ,40.47170 
52 ,10.4678 ,1.14889 ,4.11445 ,40.37096 
53 ,10.6759 ,1.15087 ,4.12129 ,40.43812 
54 ,10.8674 ,1.15291 ,4.09049 ,40.13591 
55 ,11.0761 ,1.15489 ,4.08365 ,40.06876 
56 ,11.2837 ,1.15704 ,4.06312 ,39.86729 
57 ,11.4762 ,1.15890 ,4.03232 ,39.56508 
58 ,11.6684 ,1.16091 ,4.00494 ,39.29646 
59 ,11.8603 ,1.16281 ,3.99467 ,39.19572 
60 ,12.0523 ,1.16478 ,3.97756 ,39.02783 
61 ,12.2605 ,1.16680 ,3.96729 ,38.92709 
62 ,12.4525 ,1.16871 ,3.94676 ,38.72562 
63 ,12.6447 ,1.17068 ,3.94334 ,38.69205 
64 ,12.8527 ,1.17272 ,3.90912 ,38.35626 
65 ,13.0446 ,1.17469 ,3.90912 ,38.35626 
66 ,13.2369 ,1.17660 ,3.87490 ,38.02048 
67 ,13.4450 ,1.17870 ,3.87490 ,38.02048 
68 ,13.6371 ,1.18058 ,3.85436 ,37.81901 
69 ,13.8287 ,1.18249 ,3.82014 ,37.48323 
70 ,14.0211 ,1.18437 ,3.82699 ,37.55038 
71 ,14.2288 ,1.18644 ,3.78934 ,37.18102 
72 ,14.4212 ,1.18836 ,3.79276 ,37.21460 
73 ,14.6134 ,1.19034 ,3.75854 ,36.87882 
74 ,14.8055 ,1.19230 ,3.75170 ,36.81166 
75 ,14.9975 ,1.19420 ,3.74143 ,36.71093 
76 ,15.2056 ,1.19626 ,3.69694 ,36.27441 
77 ,15.3976 ,1.19830 ,3.69010 ,36.20725 
78 ,15.6056 ,1.20030 ,3.67299 ,36.03936 
79 ,15.7980 ,1.20219 ,3.67641 ,36.07294 
80 ,16.0058 ,1.20428 ,3.64219 ,35.73716 
81 ,16.1981 ,1.20620 ,3.63877 ,35.70358 
82 ,16.4056 ,1.20824 ,3.60454 ,35.36779 
83 ,16.5978 ,1.21014 ,3.58401 ,35.16632 
84 ,16.7898 ,1.21205 ,3.57375 ,35.06559 
85 ,16.9825 ,1.21398 ,3.57032 ,35.03201 
86 ,17.1743 ,1.21597 ,3.53952 ,34.72981 
87 ,17.3665 ,1.21789 ,3.51899 ,34.52834 
88 ,17.5581 ,1.21973 ,3.52926 ,34.62907 
89 ,17.7508 ,1.22169 ,3.49504 ,34.29329 
90 ,17.9425 ,1.22366 ,3.47792 ,34.12540 
91 ,18.1349 ,1.22553 ,3.46766 ,34.02466 
92 ,18.3428 ,1.22755 ,3.44713 ,33.82319 
93 ,18.5348 ,1.22959 ,3.41975 ,33.55457 
94 ,18.7431 ,1.23161 ,3.41975 ,33.55457 
95 ,18.9512 ,1.23369 ,3.38210 ,33.18520 
96 ,19.1433 ,1.23563 ,3.37868 ,33.15163 
97 ,19.3353 ,1.23754 ,3.36842 ,33.05089 
98 ,19.5273 ,1.23945 ,3.32735 ,32.64795 
99 ,19.7192 ,1.24131 ,3.33419 ,32.71511 
100 ,19.9116 ,1.24324 ,3.31366 ,32.51364 
101 ,20.1037 ,1.24522 ,3.29313 ,32.31217 
102 ,20.2954 ,1.24716 ,3.29655 ,32.34575 
103 ,20.4875 ,1.24905 ,3.25891 ,31.97639 
104 ,20.6799 ,1.25096 ,3.26917 ,32.07712 
105 ,20.8722 ,1.25287 ,3.23153 ,31.70776 
106 ,21.0797 ,1.25494 ,3.23837 ,31.77492 
107 ,21.3198 ,1.25717 ,3.20073 ,31.40555 
108 ,21.5120 ,1.25926 ,3.17335 ,31.13693 
109 ,21.7200 ,1.26137 ,3.16309 ,31.03619 
110 ,21.8961 ,1.26325 ,3.14940 ,30.90188 
111 ,22.0882 ,1.26503 ,3.11518 ,30.56610 
112 ,22.2803 ,1.26705 ,3.12886 ,30.70041 
113 ,22.4724 ,1.26893 ,3.08780 ,30.29747 
114 ,22.6645 ,1.27081 ,3.06726 ,30.09600 
115 ,22.8564 ,1.27274 ,3.07753 ,30.19674 
116 ,23.0645 ,1.27484 ,3.05358 ,29.96169 
117 ,23.2727 ,1.27689 ,3.03989 ,29.82737 
118 ,23.4806 ,1.27896 ,3.02278 ,29.65948 
119 ,23.6887 ,1.28096 ,3.01935 ,29.62590 
120 ,23.8808 ,1.28297 ,2.99540 ,29.39086 
121 ,24.0729 ,1.28484 ,2.96118 ,29.05507 
122 ,24.2650 ,1.28682 ,2.95091 ,28.95434 
123 ,24.4731 ,1.28890 ,2.95433 ,28.98792 
124 ,24.6812 ,1.29097 ,2.93038 ,28.75287 
125 ,24.8890 ,1.29295 ,2.93038 ,28.75287 
126 ,25.0813 ,1.29494 ,2.90642 ,28.51782 
127 ,25.2734 ,1.29693 ,2.89273 ,28.38351 
128 ,25.4816 ,1.29896 ,2.86193 ,28.08130 
129 ,25.6739 ,1.30087 ,2.85167 ,27.98057 
130 ,25.8817 ,1.30295 ,2.83798 ,27.84625 
131 ,26.0741 ,1.30488 ,2.82087 ,27.67836 
132 ,26.2657 ,1.30682 ,2.81402 ,27.61121 
133 ,26.4582 ,1.30872 ,2.79349 ,27.40974 
134 ,26.6501 ,1.31065 ,2.76954 ,27.17469 
135 ,26.8420 ,1.31254 ,2.76269 ,27.10753 
136 ,27.0344 ,1.31451 ,2.75585 ,27.04038 
137 ,27.2266 ,1.31641 ,2.71820 ,26.67101 
138 ,27.4665 ,1.31869 ,2.71820 ,26.67101 
139 ,27.6903 ,1.32097 ,2.70109 ,26.50312 
140 ,27.8826 ,1.32295 ,2.68056 ,26.30165 
141 ,28.0750 ,1.32489 ,2.67029 ,26.20092 
142 ,28.2670 ,1.32683 ,2.63949 ,25.89871 
143 ,28.4753 ,1.32888 ,2.63949 ,25.89871 
144 ,28.6828 ,1.33100 ,2.60869 ,25.59651 
145 ,28.8751 ,1.33291 ,2.60527 ,25.56293 
146 ,29.0512 ,1.33476 ,2.57105 ,25.22715 
147 ,29.2433 ,1.33652 ,2.57447 ,25.26073 
148 ,29.4514 ,1.33858 ,2.56763 ,25.19357 
149 ,29.6594 ,1.34073 ,2.54367 ,24.95852 
150 ,29.8833 ,1.34289 ,2.51630 ,24.68989 
151 ,30.0915 ,1.34503 ,2.51287 ,24.65632 
152 ,30.2834 ,1.34699 ,2.47865 ,24.32053 
153 ,30.4759 ,1.34888 ,2.47865 ,24.32053 
154 ,30.6838 ,1.35099 ,2.44101 ,23.95117 
155 ,30.8920 ,1.35303 ,2.46154 ,24.15264 
156 ,31.1000 ,1.35512 ,2.43074 ,23.85044 
157 ,31.2922 ,1.35701 ,2.41705 ,23.71612 
158 ,31.4841 ,1.35901 ,2.39652 ,23.51465 
159 ,31.6919 ,1.36105 ,2.40336 ,23.58181 
160 ,31.8844 ,1.36296 ,2.35888 ,23.14529 
161 ,32.0924 ,1.36504 ,2.36914 ,23.24603 
162 ,32.3006 ,1.36713 ,2.33492 ,22.91024 
163 ,32.4766 ,1.36904 ,2.33492 ,22.91024 
164 ,32.6688 ,1.37077 ,2.30754 ,22.64162 
165 ,32.8444 ,1.37271 ,2.29728 ,22.54088 
166 ,33.0529 ,1.37453 ,2.28701 ,22.44015 
167 ,33.2610 ,1.37672 ,2.25963 ,22.17152 
168 ,33.4848 ,1.37896 ,2.24937 ,22.07079 
169 ,33.6770 ,1.38096 ,2.22883 ,21.86932 
170 ,33.8689 ,1.38281 ,2.23226 ,21.90290 
171 ,34.0613 ,1.38479 ,2.19461 ,21.53353 
172 ,34.2694 ,1.38678 ,2.19119 ,21.49996 
173 ,34.4614 ,1.38876 ,2.17750 ,21.36564 
174 ,34.6535 ,1.39068 ,2.17408 ,21.33206 
175 ,34.8612 ,1.39274 ,2.14328 ,21.02986 
176 ,35.0535 ,1.39465 ,2.14328 ,21.02986 
177 ,35.2457 ,1.39657 ,2.12617 ,20.86197 
178 ,35.4538 ,1.39857 ,2.10221 ,20.62692 
179 ,35.6618 ,1.40077 ,2.07826 ,20.39187 
180 ,35.8540 ,1.40264 ,2.08168 ,20.42545 
181 ,36.0460 ,1.40462 ,2.05430 ,20.15682 
182 ,36.2380 ,1.40654 ,2.04404 ,20.05609 
183 ,36.4620 ,1.40879 ,2.02350 ,19.85462 
184 ,36.6703 ,1.41084 ,2.03377 ,19.95535 
185 ,36.8623 ,1.41271 ,2.00297 ,19.65315 
186 ,37.0543 ,1.41463 ,1.99955 ,19.61957 
187 ,37.2465 ,1.41654 ,1.98928 ,19.51884 
188 ,37.4386 ,1.41849 ,1.95848 ,19.21663 
189 ,37.6305 ,1.42048 ,1.96533 ,19.28379 
190 ,37.8389 ,1.42249 ,1.92768 ,18.91443 
191 ,38.0309 ,1.42440 ,1.92426 ,18.88085 
192 ,38.2229 ,1.42635 ,1.89346 ,18.57864 
193 ,38.4151 ,1.42824 ,1.88319 ,18.47791 
194 ,38.6072 ,1.43023 ,1.87293 ,18.37717 
195 ,38.8152 ,1.43224 ,1.86266 ,18.27644 
196 ,39.0073 ,1.43421 ,1.85924 ,18.24286 
197 ,39.2155 ,1.43617 ,1.81817 ,17.83992 
198 ,39.4070 ,1.43820 ,1.82502 ,17.90708 
199 ,39.5995 ,1.44008 ,1.79422 ,17.60487 
200 ,39.7915 ,1.44199 ,1.80791 ,17.73919 
201 ,39.9837 ,1.44396 ,1.78053 ,17.47056 
202 ,40.1760 ,1.44590 ,1.77369 ,17.40340 
203 ,40.4157 ,1.44827 ,1.74631 ,17.13478 
204 ,40.6240 ,1.45025 ,1.74973 ,17.16836 
205 ,40.8320 ,1.45240 ,1.72235 ,16.89973 
206 ,41.0241 ,1.45439 ,1.69840 ,16.66468 
207 ,41.2163 ,1.45627 ,1.69840 ,16.66468 
208 ,41.4083 ,1.45817 ,1.69498 ,16.63110 
209 ,41.5999 ,1.46012 ,1.64707 ,16.16101 
210 ,41.7925 ,1.46206 ,1.65391 ,16.22816 
211 ,41.9845 ,1.46393 ,1.62311 ,15.92596 
212 ,42.1926 ,1.46601 ,1.62995 ,15.99311 
213 ,42.3846 ,1.46793 ,1.60258 ,15.72449 
214 ,42.5769 ,1.46986 ,1.59916 ,15.69091 
215 ,42.7688 ,1.47180 ,1.60600 ,15.75807 
216 ,42.9610 ,1.47371 ,1.55467 ,15.25439 
217 ,43.1531 ,1.47564 ,1.57178 ,15.42228 
218 ,43.3452 ,1.47752 ,1.53413 ,15.05292 
219 ,43.5532 ,1.47967 ,1.53071 ,15.01934 
220 ,43.7611 ,1.48162 ,1.52045 ,14.91861 
221 ,43.9854 ,1.48384 ,1.51702 ,14.88503 
222 ,44.1931 ,1.48602 ,1.49307 ,14.64998 
223 ,44.3857 ,1.48795 ,1.46569 ,14.38136 
224 ,44.5937 ,1.49000 ,1.46227 ,14.34778 
225 ,44.7858 ,1.49194 ,1.45542 ,14.28062 
226 ,44.9778 ,1.49385 ,1.42805 ,14.01199 
227 ,45.1699 ,1.49576 ,1.43831 ,14.11273 
228 ,45.3939 ,1.49786 ,1.40067 ,13.74337 
229 ,45.5861 ,1.49993 ,1.39383 ,13.67621 
230 ,45.7782 ,1.50185 ,1.36987 ,13.44116 
231 ,45.9698 ,1.50386 ,1.35960 ,13.34043 
232 ,46.1624 ,1.50576 ,1.35276 ,13.27327 
233 ,46.3703 ,1.50780 ,1.34934 ,13.23969 
234 ,46.5623 ,1.50971 ,1.32880 ,13.03822 
235 ,46.7704 ,1.51175 ,1.32880 ,13.03822 
236 ,46.9626 ,1.51366 ,1.29458 ,12.70244 
237 ,47.1710 ,1.51580 ,1.29458 ,12.70244 
238 ,47.3788 ,1.51787 ,1.26378 ,12.40024 
239 ,47.5708 ,1.51975 ,1.27405 ,12.50097 
240 ,47.7629 ,1.52167 ,1.23641 ,12.13161 
241 ,47.9551 ,1.52360 ,1.23983 ,12.16519 
242 ,48.1467 ,1.52554 ,1.22272 ,11.99730 
243 ,48.3392 ,1.52746 ,1.19876 ,11.76225 
244 ,48.5309 ,1.52933 ,1.20903 ,11.86298 
245 ,48.7233 ,1.53126 ,1.18850 ,11.66151 
246 ,48.9155 ,1.53328 ,1.16454 ,11.42647 
247 ,49.1234 ,1.53533 ,1.14401 ,11.22500 
248 ,49.3154 ,1.53721 ,1.13716 ,11.15784 
249 ,49.5077 ,1.53911 ,1.13032 ,11.09068 
250 ,49.7158 ,1.54122 ,1.10979 ,10.88921 
251 ,49.9238 ,1.54330 ,1.09267 ,10.72132 
252 ,50.1160 ,1.54524 ,1.09267 ,10.72132 
253 ,50.3078 ,1.54712 ,1.09610 ,10.75490 
254 ,50.5161 ,1.54925 ,1.05161 ,10.31838 
255 ,50.7240 ,1.55134 ,1.05161 ,10.31838 
256 ,50.9161 ,1.55319 ,1.03108 ,10.11691 
257 ,51.0923 ,1.55512 ,1.03108 ,10.11691 
258 ,51.2998 ,1.55700 ,1.00028 ,9.81471 
259 ,51.5083 ,1.55912 ,1.00028 ,9.81471 
260 ,51.7161 ,1.56120 ,0.96605 ,9.47892 
261 ,51.9083 ,1.56316 ,0.97974 ,9.61324 
262 ,52.0846 ,1.56499 ,0.94894 ,9.31103 
263 ,52.2767 ,1.56681 ,0.94552 ,9.27745 
264 ,52.4690 ,1.56875 ,0.94552 ,9.27745 
265 ,52.6766 ,1.57078 ,0.91130 ,8.94167 
266 ,52.8695 ,1.57270 ,0.91814 ,9.00883 
267 ,53.0610 ,1.57466 ,0.88050 ,8.63947 
268 ,53.2532 ,1.57664 ,0.88734 ,8.70662 
269 ,53.4608 ,1.57856 ,0.85997 ,8.43800 
270 ,53.6367 ,1.58056 ,0.86681 ,8.50515 
271 ,53.8288 ,1.58237 ,0.85997 ,8.43800 
272 ,54.0375 ,1.58426 ,0.82575 ,8.10221 
273 ,54.2294 ,1.58649 ,0.81890 ,8.03506 
274 ,54.4216 ,1.58825 ,0.80863 ,7.93432 
275 ,54.6136 ,1.59021 ,0.79152 ,7.76643 
276 ,54.8217 ,1.59225 ,0.77099 ,7.56496 
277 ,55.0298 ,1.59430 ,0.78468 ,7.69927 
278 ,55.2539 ,1.59649 ,0.76415 ,7.49780 
279 ,55.4620 ,1.59866 ,0.73677 ,7.22918 
280 ,55.6540 ,1.60056 ,0.72308 ,7.09486 
281 ,55.8458 ,1.60252 ,0.72650 ,7.12844 
282 ,56.0382 ,1.60443 ,0.69913 ,6.85982 
283 ,56.2299 ,1.60634 ,0.70597 ,6.92697 
284 ,56.4223 ,1.60821 ,0.68544 ,6.72550 
285 ,56.6145 ,1.61015 ,0.66833 ,6.55761 
286 ,56.8225 ,1.61229 ,0.66833 ,6.55761 
287 ,56.9986 ,1.61414 ,0.64437 ,6.32256 
288 ,57.1908 ,1.61590 ,0.64779 ,6.35614 
289 ,57.3828 ,1.61784 ,0.62042 ,6.08752 
290 ,57.5750 ,1.61983 ,0.60673 ,5.95320 
291 ,57.7829 ,1.62185 ,0.60673 ,5.95320 
292 ,57.9752 ,1.62382 ,0.57935 ,5.68458 
293 ,58.1832 ,1.62587 ,0.57935 ,5.68458 
294 ,58.3909 ,1.62792 ,0.56566 ,5.55026 
295 ,58.5832 ,1.62981 ,0.54513 ,5.34879 
296 ,58.7753 ,1.63176 ,0.52117 ,5.11375 
297 ,58.9676 ,1.63370 ,0.53486 ,5.24806 
298 ,59.1910 ,1.63584 ,0.51091 ,5.01301 
299 ,59.3836 ,1.63781 ,0.51091 ,5.01301 
300 ,59.5756 ,1.63981 ,0.48353 ,4.74438 
301 ,59.7674 ,1.64172 ,0.49380 ,4.84512 
302 ,59.9915 ,1.64385 ,0.45957 ,4.50934 
303 ,60.1839 ,1.64586 ,0.45273 ,4.44218 
304 ,60.3916 ,1.64790 ,0.43562 ,4.27429 
305 ,60.6001 ,1.65001 ,0.43220 ,4.24071 
306 ,60.7918 ,1.65195 ,0.41509 ,4.07282 
307 ,60.9843 ,1.65385 ,0.41166 ,4.03924 
308 ,61.1762 ,1.65578 ,0.39113 ,3.83777 
309 ,61.3679 ,1.65772 ,0.38771 ,3.80419 
310 ,61.5766 ,1.65965 ,0.37744 ,3.70346 
311 ,61.7846 ,1.66189 ,0.36375 ,3.56914 
312 ,61.9766 ,1.66380 ,0.34664 ,3.40125 
313 ,62.1686 ,1.66570 ,0.34664 ,3.40125 
314 ,62.3607 ,1.66759 ,0.33638 ,3.30052 
315 ,62.5368 ,1.66947 ,0.30900 ,3.03189 
316 ,62.7288 ,1.67129 ,0.29873 ,2.93116 
317 ,62.9210 ,1.67319 ,0.30900 ,3.03189 
318 ,63.1131 ,1.67518 ,0.26793 ,2.62895 
319 ,63.3370 ,1.67718 ,0.28504 ,2.79684 
320 ,63.5450 ,1.67932 ,0.26793 ,2.62895 
321 ,63.7374 ,1.68145 ,0.24055 ,2.36032 
322 ,63.9455 ,1.68343 ,0.24740 ,2.42748 
323 ,64.1376 ,1.68536 ,0.22344 ,2.19243 
324 ,64.3296 ,1.68731 ,0.22002 ,2.15885 
325 ,64.5214 ,1.68919 ,0.23029 ,2.25959 
326 ,64.7298 ,1.69126 ,0.18922 ,1.85665 
327 ,64.9218 ,1.69321 ,0.19264 ,1.89023 
328 ,65.1141 ,1.69515 ,0.17211 ,1.68876 
329 ,65.3062 ,1.69705 ,0.16185 ,1.58802 
330 ,65.5142 ,1.69916 ,0.14473 ,1.42013 
331 ,65.7061 ,1.70108 ,0.14816 ,1.45371 
332 ,65.9144 ,1.70318 ,0.12762 ,1.25224 
333 ,66.1224 ,1.70521 ,0.13105 ,1.28582 
334 ,66.3460 ,1.70735 ,0.10367 ,1.01719 
335 ,66.5544 ,1.70941 ,0.09682 ,0.95004 
336 ,66.7624 ,1.71159 ,0.10025 ,0.98361 
337 ,66.9543 ,1.71352 ,0.06945 ,0.68141 
338 ,67.1629 ,1.71554 ,0.07287 ,0.71499 
339 ,67.3548 ,1.71757 ,0.05234 ,0.51352 
340 ,67.5630 ,1.71957 ,0.03865 ,0.37920 
341 ,67.7551 ,1.72158 ,0.02838 ,0.27847 
342 ,67.9467 ,1.72344 ,0.01469 ,0.14416 
343 ,68.1391 ,1.72543 ,0.02154 ,0.21131 
344 ,68.3471 ,1.72741 ,0.00443 ,0.04342 
345 ,68.5394 ,1.72939 ,0.01127 ,0.11058 
346 ,68.7475 ,1.73147 ,-0.02980 ,-0.29236 
347 ,68.9395 ,1.73340 ,-0.01611 ,-0.15805 
348 ,69.1312 ,1.73528 ,-0.06060 ,-0.59457 
349 ,69.3234 ,1.73717 ,-0.04348 ,-0.42667 
350 ,69.7240 ,1.74115 ,-0.08455 ,-0.82961 
351 ,69.9320 ,1.74331 ,-0.08797 ,-0.86319 
352 ,70.1236 ,1.74525 ,-0.09824 ,-0.96393 
353 ,70.3161 ,1.74716 ,-0.10166 ,-0.99751 
354 ,70.5082 ,1.74915 ,-0.09824 ,-0.96393 
355 ,70.6842 ,1.75095 ,-0.10851 ,-1.06466 
356 ,70.8769 ,1.75274 ,-0.12904 ,-1.26613 
357 ,71.0685 ,1.75468 ,-0.16326 ,-1.60191 
358 ,71.2762 ,1.75675 ,-0.14615 ,-1.43402 
359 ,71.4688 ,1.75866 ,-0.16326 ,-1.60191 
360 ,71.6605 ,1.76057 ,-0.16326 ,-1.60191 
361 ,71.8524 ,1.76245 ,-0.20433 ,-2.00485 
362 ,72.0448 ,1.76440 ,-0.19064 ,-1.87054 
363 ,72.2369 ,1.76637 ,-0.19064 ,-1.87054 
364 ,72.4289 ,1.76829 ,-0.22144 ,-2.17275 
365 ,72.6530 ,1.77041 ,-0.21117 ,-2.07201 
366 ,72.8452 ,1.77243 ,-0.23170 ,-2.27348 
367 ,73.0529 ,1.77447 ,-0.23170 ,-2.27348 
368 ,73.2452 ,1.77640 ,-0.26250 ,-2.57569 
369 ,73.4367 ,1.77831 ,-0.24539 ,-2.40779 
370 ,73.6454 ,1.78030 ,-0.28304 ,-2.77716 
371 ,73.8374 ,1.78236 ,-0.27619 ,-2.71000 
372 ,74.0296 ,1.78425 ,-0.30357 ,-2.97863 
373 ,74.2216 ,1.78613 ,-0.30015 ,-2.94505 
374 ,74.4137 ,1.78809 ,-0.30699 ,-3.01220 
375 ,74.6058 ,1.78998 ,-0.32752 ,-3.21367 
376 ,74.7979 ,1.79198 ,-0.31726 ,-3.11294 
377 ,74.9900 ,1.79383 ,-0.35148 ,-3.44872 
378 ,75.1981 ,1.79596 ,-0.34806 ,-3.41514 
379 ,75.3902 ,1.79785 ,-0.36175 ,-3.54946 
380 ,75.5819 ,1.79980 ,-0.37201 ,-3.65019 
381 ,75.7903 ,1.80183 ,-0.39597 ,-3.88524 
382 ,75.9984 ,1.80392 ,-0.38570 ,-3.78450 
383 ,76.1905 ,1.80581 ,-0.40966 ,-4.01955 
384 ,76.3823 ,1.80781 ,-0.39939 ,-3.91882 
385 ,76.5742 ,1.80967 ,-0.40623 ,-3.98597 
386 ,76.7504 ,1.81155 ,-0.43703 ,-4.28818 
387 ,76.9428 ,1.81345 ,-0.43019 ,-4.22102 
388 ,77.1505 ,1.81542 ,-0.44730 ,-4.38891 
389 ,77.3429 ,1.81734 ,-0.45757 ,-4.48965 
390 ,77.5510 ,1.81937 ,-0.46099 ,-4.52323 
391 ,77.7589 ,1.82152 ,-0.46783 ,-4.59038 
392 ,77.9670 ,1.82361 ,-0.48494 ,-4.75828 
393 ,78.1754 ,1.82566 ,-0.48152 ,-4.72470 
394 ,78.3673 ,1.82760 ,-0.50206 ,-4.92617 
395 ,78.5595 ,1.82954 ,-0.49521 ,-4.85901 
396 ,78.7675 ,1.83162 ,-0.51917 ,-5.09406 
397 ,78.9595 ,1.83349 ,-0.51574 ,-5.06048 
398 ,79.1515 ,1.83543 ,-0.53970 ,-5.29553 
399 ,79.3762 ,1.83757 ,-0.54312 ,-5.32911 
400 ,79.5680 ,1.83963 ,-0.56365 ,-5.53058 
401 ,79.7600 ,1.84153 ,-0.56023 ,-5.49700 
402 ,79.9516 ,1.84346 ,-0.57050 ,-5.59773 
403 ,80.1441 ,1.84534 ,-0.59788 ,-5.86636 
404 ,80.3521 ,1.84748 ,-0.58077 ,-5.69847 
405 ,80.5442 ,1.84941 ,-0.61841 ,-6.06783 
406 ,80.7523 ,1.85143 ,-0.60814 ,-5.96709 
407 ,80.9444 ,1.85338 ,-0.62868 ,-6.16856 
408 ,81.1360 ,1.85532 ,-0.62525 ,-6.13499 
409 ,81.3282 ,1.85720 ,-0.63894 ,-6.26930 
410 ,81.5366 ,1.85932 ,-0.63894 ,-6.26930 
411 ,81.7447 ,1.86130 ,-0.66632 ,-6.53793 
412 ,81.9368 ,1.86332 ,-0.65947 ,-6.47077 
413 ,82.1447 ,1.86539 ,-0.70054 ,-6.87371 
414 ,82.3369 ,1.86733 ,-0.67316 ,-6.60508 
415 ,82.5450 ,1.86932 ,-0.70739 ,-6.94086 
416 ,82.7371 ,1.87131 ,-0.69370 ,-6.80655 
417 ,82.9453 ,1.87338 ,-0.71423 ,-7.00802 
418 ,83.1531 ,1.87552 ,-0.71765 ,-7.04160 
419 ,83.3454 ,1.87736 ,-0.74503 ,-7.31023 
420 ,83.5534 ,1.87933 ,-0.74161 ,-7.27665 
421 ,83.7455 ,1.88143 ,-0.75530 ,-7.41096 
422 ,83.9375 ,1.88329 ,-0.75530 ,-7.41096 
423 ,84.1299 ,1.88522 ,-0.74845 ,-7.34380 
424 ,84.3215 ,1.88721 ,-0.78267 ,-7.67959 
425 ,84.5460 ,1.88921 ,-0.77241 ,-7.57885 
426 ,84.7541 ,1.89150 ,-0.78610 ,-7.71317 
427 ,84.9461 ,1.89341 ,-0.81689 ,-8.01537 
428 ,85.1540 ,1.89548 ,-0.80321 ,-7.88106 
429 ,85.3463 ,1.89740 ,-0.83058 ,-8.14968 
430 ,85.5383 ,1.89928 ,-0.84085 ,-8.25042 
431 ,85.7303 ,1.90119 ,-0.83058 ,-8.14968 
432 ,85.9224 ,1.90312 ,-0.85454 ,-8.38473 
433 ,86.1305 ,1.90522 ,-0.85454 ,-8.38473 
434 ,86.3225 ,1.90715 ,-0.87165 ,-8.55262 
435 ,86.5143 ,1.90908 ,-0.87507 ,-8.58620 
436 ,86.7228 ,1.91106 ,-0.87849 ,-8.61978 
437 ,86.9309 ,1.91323 ,-0.89560 ,-8.78767 
438 ,87.1228 ,1.91511 ,-0.90929 ,-8.92198 
439 ,87.3470 ,1.91731 ,-0.90587 ,-8.88841 
440 ,87.5390 ,1.91927 ,-0.91956 ,-9.02272 
441 ,87.7471 ,1.92135 ,-0.91956 ,-9.02272 
442 ,87.9392 ,1.92330 ,-0.94351 ,-9.25777 
443 ,88.1312 ,1.92520 ,-0.93325 ,-9.15703 
444 ,88.3394 ,1.92728 ,-0.96405 ,-9.45924 
445 ,88.5315 ,1.92919 ,-0.95378 ,-9.35850 
446 ,88.7391 ,1.93128 ,-0.98458 ,-9.66071 
447 ,88.9474 ,1.93327 ,-0.96747 ,-9.49282 
448 ,89.1559 ,1.93546 ,-0.99485 ,-9.76144 
449 ,89.3477 ,1.93740 ,-0.99827 ,-9.79502 
450 ,89.5559 ,1.93947 ,-0.99485 ,-9.76144 
451 ,89.7480 ,1.94139 ,-1.01538 ,-9.96291 
452 ,89.9399 ,1.94327 ,-1.03591 ,-10.16438 
453 ,90.1642 ,1.94550 ,-1.02565 ,-10.06365 
454 ,90.3721 ,1.94757 ,-1.04618 ,-10.26512 
455 ,90.5483 ,1.94945 ,-1.04960 ,-10.29869 
456 ,90.7404 ,1.95127 ,-1.05987 ,-10.39943 
457 ,90.9322 ,1.95323 ,-1.06329 ,-10.43301 
458 ,91.1246 ,1.95521 ,-1.08382 ,-10.63448 
459 ,91.3327 ,1.95721 ,-1.07356 ,-10.53374 
460 ,91.5248 ,1.95917 ,-1.08725 ,-10.66806 
461 ,91.7170 ,1.96108 ,-1.11120 ,-10.90310 
462 ,91.9249 ,1.96315 ,-1.09409 ,-10.73521 
