Data stamp = , 01-05-2022 06:36:09 856

Calibration Values: 
Slope = , 26.54 , g/V 
Offset Voltage at no contact = , -0.501760 , V 

No , Time , Stage Position ,   Mass , Force 
   ,  (s) ,      (mm)      ,   (g)  , (mN)  

1 ,0.0000 ,0.99948 ,5.39434 ,52.92925 
2 ,0.2236 ,0.99958 ,5.39776 ,52.96282 
3 ,0.5761 ,1.00058 ,5.39434 ,52.92925 
4 ,0.7999 ,1.00235 ,5.39434 ,52.92925 
5 ,1.0243 ,1.00431 ,5.37381 ,52.72778 
6 ,1.2159 ,1.00630 ,5.37723 ,52.76135 
7 ,1.4086 ,1.00824 ,5.34985 ,52.49273 
8 ,1.6166 ,1.01030 ,5.33274 ,52.32484 
9 ,1.8088 ,1.01230 ,5.32247 ,52.22410 
10 ,2.0328 ,1.01449 ,5.29510 ,51.95548 
11 ,2.2404 ,1.01662 ,5.29167 ,51.92190 
12 ,2.4329 ,1.01853 ,5.26087 ,51.61969 
13 ,2.6409 ,1.02064 ,5.25403 ,51.55254 
14 ,2.8490 ,1.02264 ,5.22665 ,51.28391 
15 ,3.0411 ,1.02460 ,5.21296 ,51.14960 
16 ,3.2333 ,1.02654 ,5.17874 ,50.81381 
17 ,3.4087 ,1.02841 ,5.17190 ,50.74666 
18 ,3.6010 ,1.03019 ,5.16163 ,50.64592 
19 ,3.7933 ,1.03211 ,5.12399 ,50.27656 
20 ,3.9853 ,1.03403 ,5.13083 ,50.34372 
21 ,4.1774 ,1.03597 ,5.09661 ,50.00793 
22 ,4.3696 ,1.03782 ,5.07608 ,49.80646 
23 ,4.5616 ,1.03992 ,5.06239 ,49.67215 
24 ,4.7538 ,1.04176 ,5.03159 ,49.36995 
25 ,4.9618 ,1.04384 ,5.03501 ,49.40352 
26 ,5.1540 ,1.04572 ,5.00421 ,49.10132 
27 ,5.3460 ,1.04762 ,4.99052 ,48.96701 
28 ,5.5377 ,1.04957 ,4.98368 ,48.89985 
29 ,5.7143 ,1.05145 ,4.94946 ,48.56407 
30 ,5.9223 ,1.05343 ,4.94261 ,48.49691 
31 ,6.1462 ,1.05559 ,4.90497 ,48.12755 
32 ,6.3545 ,1.05773 ,4.88101 ,47.89250 
33 ,6.5465 ,1.05964 ,4.87075 ,47.79177 
34 ,6.7544 ,1.06167 ,4.85364 ,47.62387 
35 ,6.9463 ,1.06361 ,4.84679 ,47.55672 
36 ,7.1545 ,1.06559 ,4.82284 ,47.32167 
37 ,7.3465 ,1.06769 ,4.80230 ,47.12020 
38 ,7.5389 ,1.06960 ,4.78519 ,46.95231 
39 ,7.7308 ,1.07149 ,4.75439 ,46.65010 
40 ,7.9391 ,1.07350 ,4.74413 ,46.54937 
41 ,8.1473 ,1.07569 ,4.71675 ,46.28074 
42 ,8.3392 ,1.07753 ,4.71333 ,46.24716 
43 ,8.5314 ,1.07950 ,4.69279 ,46.04569 
44 ,8.7234 ,1.08145 ,4.67226 ,45.84422 
45 ,8.9315 ,1.08347 ,4.65857 ,45.70991 
46 ,9.1395 ,1.08559 ,4.65173 ,45.64275 
47 ,9.3317 ,1.08748 ,4.61066 ,45.23981 
48 ,9.5398 ,1.08958 ,4.61066 ,45.23981 
49 ,9.7319 ,1.09149 ,4.58671 ,45.00477 
50 ,9.9395 ,1.09356 ,4.56617 ,44.80330 
51 ,10.1318 ,1.09550 ,4.54906 ,44.63541 
52 ,10.3721 ,1.09789 ,4.52169 ,44.36678 
53 ,10.5642 ,1.09980 ,4.51484 ,44.29962 
54 ,10.7563 ,1.10174 ,4.50800 ,44.23247 
55 ,10.9644 ,1.10378 ,4.47035 ,43.86310 
56 ,11.1724 ,1.10592 ,4.44982 ,43.66163 
57 ,11.3804 ,1.10795 ,4.44298 ,43.59448 
58 ,11.5726 ,1.10986 ,4.40875 ,43.25870 
59 ,11.7648 ,1.11181 ,4.40533 ,43.22512 
60 ,11.9727 ,1.11385 ,4.37453 ,42.92291 
61 ,12.1645 ,1.11579 ,4.35742 ,42.75502 
62 ,12.3569 ,1.11777 ,4.35400 ,42.72144 
63 ,12.5650 ,1.11983 ,4.33689 ,42.55355 
64 ,12.7569 ,1.12168 ,4.31293 ,42.31850 
65 ,12.9652 ,1.12376 ,4.29582 ,42.15061 
66 ,13.1889 ,1.12595 ,4.26502 ,41.84841 
67 ,13.4132 ,1.12834 ,4.25133 ,41.71409 
68 ,13.6053 ,1.13025 ,4.24107 ,41.61336 
69 ,13.7972 ,1.13211 ,4.23080 ,41.51262 
70 ,13.9897 ,1.13405 ,4.19316 ,41.14326 
71 ,14.1975 ,1.13616 ,4.20000 ,41.21042 
72 ,14.3894 ,1.13806 ,4.16578 ,40.87464 
73 ,14.5819 ,1.13995 ,4.15209 ,40.74032 
74 ,14.7739 ,1.14188 ,4.15209 ,40.74032 
75 ,14.9822 ,1.14386 ,4.11787 ,40.40454 
76 ,15.1901 ,1.14605 ,4.08365 ,40.06876 
77 ,15.3821 ,1.14796 ,4.08023 ,40.03518 
78 ,15.5743 ,1.14984 ,4.06996 ,39.93444 
79 ,15.7821 ,1.15196 ,4.05627 ,39.80013 
80 ,15.9743 ,1.15392 ,4.03232 ,39.56508 
81 ,16.1820 ,1.15597 ,4.02889 ,39.53150 
82 ,16.3904 ,1.15807 ,4.00152 ,39.26288 
83 ,16.5985 ,1.16011 ,3.98098 ,39.06141 
84 ,16.7907 ,1.16198 ,3.95703 ,38.82636 
85 ,16.9829 ,1.16398 ,3.95018 ,38.75920 
86 ,17.1910 ,1.16609 ,3.93307 ,38.59131 
87 ,17.3828 ,1.16797 ,3.91254 ,38.38984 
88 ,17.5750 ,1.16992 ,3.90570 ,38.32268 
89 ,17.7511 ,1.17177 ,3.86463 ,37.91975 
90 ,17.9430 ,1.17354 ,3.85779 ,37.85259 
91 ,18.1351 ,1.17546 ,3.85779 ,37.85259 
92 ,18.3432 ,1.17754 ,3.82699 ,37.55038 
93 ,18.5352 ,1.17950 ,3.81330 ,37.41607 
94 ,18.7431 ,1.18154 ,3.79961 ,37.28176 
95 ,18.9355 ,1.18352 ,3.77565 ,37.04671 
96 ,19.1596 ,1.18556 ,3.75170 ,36.81166 
97 ,19.3678 ,1.18784 ,3.73801 ,36.67735 
98 ,19.5757 ,1.18985 ,3.73117 ,36.61019 
99 ,19.7679 ,1.19179 ,3.69352 ,36.24083 
100 ,19.9760 ,1.19390 ,3.70037 ,36.30799 
101 ,20.1682 ,1.19584 ,3.67299 ,36.03936 
102 ,20.3762 ,1.19788 ,3.66272 ,35.93863 
103 ,20.5684 ,1.19983 ,3.63192 ,35.63642 
104 ,20.7763 ,1.20186 ,3.61139 ,35.43495 
105 ,20.9680 ,1.20380 ,3.59086 ,35.23348 
106 ,21.1605 ,1.20572 ,3.58401 ,35.16632 
107 ,21.3527 ,1.20766 ,3.57375 ,35.06559 
108 ,21.5446 ,1.20957 ,3.54979 ,34.83054 
109 ,21.7365 ,1.21145 ,3.55321 ,34.86412 
110 ,21.9290 ,1.21340 ,3.50872 ,34.42760 
111 ,22.1370 ,1.21547 ,3.52241 ,34.56192 
112 ,22.3291 ,1.21739 ,3.48819 ,34.22613 
113 ,22.5212 ,1.21938 ,3.48477 ,34.19255 
114 ,22.7134 ,1.22129 ,3.45397 ,33.89035 
115 ,22.9050 ,1.22315 ,3.43686 ,33.72246 
116 ,23.0971 ,1.22513 ,3.43001 ,33.65530 
117 ,23.3215 ,1.22722 ,3.39237 ,33.28594 
118 ,23.5294 ,1.22939 ,3.37868 ,33.15163 
119 ,23.7216 ,1.23133 ,3.37868 ,33.15163 
120 ,23.9294 ,1.23343 ,3.34788 ,32.84942 
121 ,24.1377 ,1.23541 ,3.34104 ,32.78227 
122 ,24.3139 ,1.23732 ,3.31024 ,32.48006 
123 ,24.5060 ,1.23913 ,3.29997 ,32.37933 
124 ,24.6979 ,1.24104 ,3.30682 ,32.44648 
125 ,24.8902 ,1.24300 ,3.25206 ,31.90923 
126 ,25.0821 ,1.24490 ,3.24864 ,31.87565 
127 ,25.2898 ,1.24691 ,3.25206 ,31.90923 
128 ,25.4821 ,1.24895 ,3.21442 ,31.53987 
129 ,25.6905 ,1.25098 ,3.21100 ,31.50629 
130 ,25.8823 ,1.25293 ,3.18020 ,31.20409 
131 ,26.0906 ,1.25504 ,3.17335 ,31.13693 
132 ,26.2826 ,1.25694 ,3.15282 ,30.93546 
133 ,26.4908 ,1.25896 ,3.12544 ,30.66683 
134 ,26.6829 ,1.26090 ,3.12202 ,30.63325 
135 ,26.8745 ,1.26297 ,3.11518 ,30.56610 
136 ,27.0670 ,1.26474 ,3.07069 ,30.12958 
137 ,27.2911 ,1.26691 ,3.08095 ,30.23031 
138 ,27.4829 ,1.26892 ,3.05015 ,29.92811 
139 ,27.6910 ,1.27100 ,3.04673 ,29.89453 
140 ,27.8833 ,1.27293 ,3.02620 ,29.69306 
141 ,28.0914 ,1.27500 ,3.01593 ,29.59233 
142 ,28.3153 ,1.27701 ,2.99540 ,29.39086 
143 ,28.5235 ,1.27934 ,2.96802 ,29.12223 
144 ,28.7314 ,1.28137 ,2.96118 ,29.05507 
145 ,28.9396 ,1.28345 ,2.93722 ,28.82003 
146 ,29.1318 ,1.28539 ,2.93038 ,28.75287 
147 ,29.3398 ,1.28750 ,2.90985 ,28.55140 
148 ,29.5320 ,1.28938 ,2.89273 ,28.38351 
149 ,29.7396 ,1.29147 ,2.87562 ,28.21562 
150 ,29.9318 ,1.29336 ,2.86878 ,28.14846 
151 ,30.1237 ,1.29533 ,2.83456 ,27.81268 
152 ,30.2997 ,1.29721 ,2.84482 ,27.91341 
153 ,30.5081 ,1.29908 ,2.80718 ,27.54405 
154 ,30.7485 ,1.30163 ,2.80034 ,27.47689 
155 ,30.9564 ,1.30370 ,2.79349 ,27.40974 
156 ,31.1645 ,1.30566 ,2.75243 ,27.00680 
157 ,31.3565 ,1.30763 ,2.75243 ,27.00680 
158 ,31.5647 ,1.30973 ,2.72847 ,26.77175 
159 ,31.7568 ,1.31164 ,2.73189 ,26.80533 
160 ,31.9324 ,1.31352 ,2.69425 ,26.43597 
161 ,32.1411 ,1.31537 ,2.68056 ,26.30165 
162 ,32.3492 ,1.31757 ,2.66687 ,26.16734 
163 ,32.5413 ,1.31953 ,2.64634 ,25.96587 
164 ,32.7492 ,1.32154 ,2.63949 ,25.89871 
165 ,32.9570 ,1.32353 ,2.61554 ,25.66367 
166 ,33.1653 ,1.32568 ,2.59843 ,25.49577 
167 ,33.3734 ,1.32782 ,2.58474 ,25.36146 
168 ,33.5655 ,1.32971 ,2.56763 ,25.19357 
169 ,33.7736 ,1.33178 ,2.57447 ,25.26073 
170 ,33.9655 ,1.33372 ,2.54025 ,24.92494 
171 ,34.1574 ,1.33565 ,2.53341 ,24.85779 
172 ,34.3497 ,1.33754 ,2.52656 ,24.79063 
173 ,34.5421 ,1.33952 ,2.49918 ,24.52200 
174 ,34.7497 ,1.34156 ,2.47181 ,24.25338 
175 ,34.9422 ,1.34347 ,2.45812 ,24.11906 
176 ,35.1340 ,1.34538 ,2.45812 ,24.11906 
177 ,35.3420 ,1.34747 ,2.42390 ,23.78328 
178 ,35.5339 ,1.34943 ,2.43074 ,23.85044 
179 ,35.7263 ,1.35130 ,2.39652 ,23.51465 
180 ,35.9346 ,1.35337 ,2.39652 ,23.51465 
181 ,36.1265 ,1.35535 ,2.38625 ,23.41392 
182 ,36.3347 ,1.35733 ,2.37256 ,23.27961 
183 ,36.5268 ,1.35935 ,2.34861 ,23.04456 
184 ,36.7188 ,1.36128 ,2.33492 ,22.91024 
185 ,36.9110 ,1.36314 ,2.32123 ,22.77593 
186 ,37.1192 ,1.36526 ,2.30070 ,22.57446 
187 ,37.3111 ,1.36716 ,2.30754 ,22.64162 
188 ,37.5192 ,1.36926 ,2.26648 ,22.23868 
189 ,37.7112 ,1.37124 ,2.24594 ,22.03721 
190 ,37.9034 ,1.37306 ,2.24594 ,22.03721 
191 ,38.1274 ,1.37523 ,2.23226 ,21.90290 
192 ,38.3198 ,1.37727 ,2.20488 ,21.63427 
193 ,38.5116 ,1.37918 ,2.21515 ,21.73500 
194 ,38.7195 ,1.38127 ,2.19119 ,21.49996 
195 ,38.9119 ,1.38318 ,2.17750 ,21.36564 
196 ,39.1039 ,1.38510 ,2.13986 ,20.99628 
197 ,39.3279 ,1.38723 ,2.16039 ,21.19775 
198 ,39.5196 ,1.38925 ,2.11932 ,20.79481 
199 ,39.7281 ,1.39128 ,2.12959 ,20.89555 
200 ,39.9362 ,1.39339 ,2.11248 ,20.72766 
201 ,40.1440 ,1.39548 ,2.08510 ,20.45903 
202 ,40.3524 ,1.39750 ,2.06457 ,20.25756 
203 ,40.5605 ,1.39969 ,2.03719 ,19.98893 
204 ,40.7524 ,1.40156 ,2.04746 ,20.08967 
205 ,40.9445 ,1.40347 ,2.01666 ,19.78746 
206 ,41.1366 ,1.40545 ,2.00982 ,19.72031 
207 ,41.3448 ,1.40749 ,1.99270 ,19.55241 
208 ,41.5689 ,1.40960 ,1.97902 ,19.41810 
209 ,41.7604 ,1.41164 ,1.96190 ,19.25021 
210 ,41.9691 ,1.41363 ,1.94822 ,19.11590 
211 ,42.1612 ,1.41568 ,1.92426 ,18.88085 
212 ,42.3530 ,1.41759 ,1.94137 ,19.04874 
213 ,42.5613 ,1.41951 ,1.90373 ,18.67938 
214 ,42.7693 ,1.42174 ,1.90373 ,18.67938 
215 ,42.9613 ,1.42373 ,1.87293 ,18.37717 
216 ,43.1535 ,1.42559 ,1.87293 ,18.37717 
217 ,43.3616 ,1.42760 ,1.83871 ,18.04139 
218 ,43.5695 ,1.42976 ,1.84555 ,18.10855 
219 ,43.7617 ,1.43164 ,1.81475 ,17.80634 
220 ,43.9533 ,1.43354 ,1.81133 ,17.77276 
221 ,44.1458 ,1.43546 ,1.79080 ,17.57129 
222 ,44.3379 ,1.43735 ,1.77711 ,17.43698 
223 ,44.5460 ,1.43948 ,1.77026 ,17.36983 
224 ,44.7216 ,1.44136 ,1.74973 ,17.16836 
225 ,44.9141 ,1.44320 ,1.74289 ,17.10120 
226 ,45.1222 ,1.44527 ,1.71209 ,16.79899 
227 ,45.3144 ,1.44721 ,1.72578 ,16.93331 
228 ,45.5224 ,1.44922 ,1.68129 ,16.49679 
229 ,45.7305 ,1.45123 ,1.68471 ,16.53037 
230 ,45.9383 ,1.45340 ,1.65733 ,16.26174 
231 ,46.1461 ,1.45538 ,1.66760 ,16.36248 
232 ,46.3386 ,1.45737 ,1.62311 ,15.92596 
233 ,46.5308 ,1.45936 ,1.64022 ,16.09385 
234 ,46.7386 ,1.46137 ,1.60258 ,15.72449 
235 ,46.9470 ,1.46339 ,1.60600 ,15.75807 
236 ,47.1550 ,1.46557 ,1.58889 ,15.59018 
237 ,47.3471 ,1.46745 ,1.57862 ,15.48944 
238 ,47.5552 ,1.46960 ,1.55467 ,15.25439 
239 ,47.7472 ,1.47143 ,1.55124 ,15.22081 
240 ,47.9394 ,1.47340 ,1.52045 ,14.91861 
241 ,48.1315 ,1.47534 ,1.51702 ,14.88503 
242 ,48.3232 ,1.47726 ,1.48965 ,14.61640 
243 ,48.5157 ,1.47916 ,1.48622 ,14.58283 
244 ,48.7236 ,1.48130 ,1.48622 ,14.58283 
245 ,48.9157 ,1.48314 ,1.46569 ,14.38136 
246 ,49.1239 ,1.48523 ,1.44516 ,14.17989 
247 ,49.3162 ,1.48717 ,1.42805 ,14.01199 
248 ,49.5240 ,1.48924 ,1.43831 ,14.11273 
249 ,49.7157 ,1.49118 ,1.40751 ,13.81053 
250 ,49.9077 ,1.49309 ,1.41094 ,13.84410 
251 ,50.0997 ,1.49497 ,1.38014 ,13.54190 
252 ,50.2919 ,1.49690 ,1.36303 ,13.37401 
253 ,50.4840 ,1.49880 ,1.35960 ,13.34043 
254 ,50.6922 ,1.50087 ,1.34591 ,13.20612 
255 ,50.9005 ,1.50303 ,1.30485 ,12.80318 
256 ,51.0927 ,1.50493 ,1.31512 ,12.90391 
257 ,51.2848 ,1.50685 ,1.30827 ,12.83675 
258 ,51.4767 ,1.50876 ,1.27747 ,12.53455 
259 ,51.6847 ,1.51076 ,1.28089 ,12.56813 
260 ,51.8770 ,1.51275 ,1.25694 ,12.33308 
261 ,52.0690 ,1.51468 ,1.25352 ,12.29950 
262 ,52.2611 ,1.51659 ,1.23641 ,12.13161 
263 ,52.4533 ,1.51854 ,1.21929 ,11.96372 
264 ,52.6454 ,1.52045 ,1.21245 ,11.89656 
265 ,52.8533 ,1.52248 ,1.18165 ,11.59436 
266 ,53.0615 ,1.52465 ,1.17138 ,11.49362 
267 ,53.2532 ,1.52661 ,1.17481 ,11.52720 
268 ,53.4454 ,1.52841 ,1.16454 ,11.42647 
269 ,53.6375 ,1.53038 ,1.13716 ,11.15784 
270 ,53.8456 ,1.53245 ,1.13716 ,11.15784 
271 ,54.0377 ,1.53437 ,1.10294 ,10.82206 
272 ,54.2299 ,1.53629 ,1.10636 ,10.85563 
273 ,54.4218 ,1.53819 ,1.08583 ,10.65416 
274 ,54.6140 ,1.54017 ,1.07899 ,10.58701 
275 ,54.8061 ,1.54207 ,1.07556 ,10.55343 
276 ,55.0144 ,1.54413 ,1.03792 ,10.18407 
277 ,55.2218 ,1.54620 ,1.03792 ,10.18407 
278 ,55.4304 ,1.54832 ,1.03108 ,10.11691 
279 ,55.6384 ,1.55030 ,1.00370 ,9.84829 
280 ,55.8305 ,1.55227 ,1.00370 ,9.84829 
281 ,56.0066 ,1.55416 ,0.98317 ,9.64682 
282 ,56.1983 ,1.55596 ,0.95921 ,9.41177 
283 ,56.3906 ,1.55788 ,0.95921 ,9.41177 
284 ,56.5828 ,1.55983 ,0.94210 ,9.24388 
285 ,56.7749 ,1.56174 ,0.91814 ,9.00883 
286 ,56.9670 ,1.56364 ,0.94210 ,9.24388 
287 ,57.1751 ,1.56574 ,0.90446 ,8.87451 
288 ,57.3833 ,1.56782 ,0.89761 ,8.80736 
289 ,57.5753 ,1.56974 ,0.88050 ,8.63947 
290 ,57.7833 ,1.57183 ,0.87708 ,8.60589 
291 ,57.9912 ,1.57377 ,0.83601 ,8.20295 
292 ,58.1994 ,1.57598 ,0.83601 ,8.20295 
293 ,58.4237 ,1.57821 ,0.82917 ,8.13579 
294 ,58.6317 ,1.58025 ,0.81890 ,8.03506 
295 ,58.8239 ,1.58221 ,0.80863 ,7.93432 
296 ,59.0318 ,1.58425 ,0.79152 ,7.76643 
297 ,59.2235 ,1.58623 ,0.78468 ,7.69927 
298 ,59.4161 ,1.58818 ,0.74704 ,7.32991 
299 ,59.6242 ,1.59019 ,0.76415 ,7.49780 
300 ,59.8002 ,1.59209 ,0.72992 ,7.16202 
301 ,59.9921 ,1.59392 ,0.72650 ,7.12844 
302 ,60.1843 ,1.59581 ,0.72650 ,7.12844 
303 ,60.3764 ,1.59770 ,0.69570 ,6.82624 
304 ,60.5844 ,1.59978 ,0.71281 ,6.99413 
305 ,60.7765 ,1.60169 ,0.67175 ,6.59119 
306 ,60.9685 ,1.60368 ,0.67517 ,6.62477 
307 ,61.1767 ,1.60572 ,0.65464 ,6.42330 
308 ,61.3844 ,1.60774 ,0.65464 ,6.42330 
309 ,61.5769 ,1.60972 ,0.62384 ,6.12109 
310 ,61.7528 ,1.61163 ,0.64095 ,6.28899 
311 ,61.9606 ,1.61349 ,0.61699 ,6.05394 
312 ,62.1530 ,1.61553 ,0.58962 ,5.78531 
313 ,62.3612 ,1.61758 ,0.58619 ,5.75173 
314 ,62.5530 ,1.61945 ,0.56908 ,5.58384 
315 ,62.7452 ,1.62139 ,0.57251 ,5.61742 
316 ,62.9373 ,1.62335 ,0.54855 ,5.38237 
317 ,63.1455 ,1.62542 ,0.56224 ,5.51668 
318 ,63.3377 ,1.62735 ,0.52459 ,5.14732 
319 ,63.5453 ,1.62939 ,0.52117 ,5.11375 
320 ,63.7378 ,1.63135 ,0.49380 ,4.84512 
321 ,63.9458 ,1.63340 ,0.49722 ,4.87870 
322 ,64.1700 ,1.63555 ,0.47326 ,4.64365 
323 ,64.3941 ,1.63768 ,0.47668 ,4.67723 
324 ,64.5861 ,1.63981 ,0.44931 ,4.40860 
325 ,64.7781 ,1.64173 ,0.43562 ,4.27429 
326 ,64.9699 ,1.64361 ,0.43220 ,4.24071 
327 ,65.1624 ,1.64557 ,0.42193 ,4.13997 
328 ,65.3543 ,1.64761 ,0.40482 ,3.97208 
329 ,65.5466 ,1.64940 ,0.40824 ,4.00566 
330 ,65.7543 ,1.65145 ,0.37744 ,3.70346 
331 ,65.9468 ,1.65341 ,0.38086 ,3.73703 
332 ,66.1548 ,1.65552 ,0.34322 ,3.36767 
333 ,66.3469 ,1.65740 ,0.36033 ,3.53557 
334 ,66.5391 ,1.65937 ,0.33638 ,3.30052 
335 ,66.7471 ,1.66141 ,0.32953 ,3.23336 
336 ,66.9392 ,1.66330 ,0.31242 ,3.06547 
337 ,67.1472 ,1.66542 ,0.30900 ,3.03189 
338 ,67.3393 ,1.66744 ,0.27820 ,2.72969 
339 ,67.5472 ,1.66934 ,0.29873 ,2.93116 
340 ,67.7395 ,1.67128 ,0.26451 ,2.59537 
341 ,67.9472 ,1.67342 ,0.25424 ,2.49464 
342 ,68.1396 ,1.67536 ,0.25424 ,2.49464 
343 ,68.3477 ,1.67730 ,0.23029 ,2.25959 
344 ,68.5556 ,1.67947 ,0.21660 ,2.12528 
345 ,68.7479 ,1.68144 ,0.23029 ,2.25959 
346 ,68.9400 ,1.68336 ,0.20291 ,1.99096 
347 ,69.1321 ,1.68530 ,0.18922 ,1.85665 
348 ,69.3401 ,1.68735 ,0.18922 ,1.85665 
349 ,69.5482 ,1.68942 ,0.17553 ,1.72234 
350 ,69.7403 ,1.69136 ,0.15500 ,1.52087 
351 ,69.9484 ,1.69339 ,0.15500 ,1.52087 
352 ,70.1399 ,1.69531 ,0.14473 ,1.42013 
353 ,70.3324 ,1.69722 ,0.11736 ,1.15151 
354 ,70.5246 ,1.69918 ,0.11736 ,1.15151 
355 ,70.7327 ,1.70123 ,0.09682 ,0.95004 
356 ,70.9248 ,1.70320 ,0.10025 ,0.98361 
357 ,71.1487 ,1.70530 ,0.07287 ,0.71499 
358 ,71.3567 ,1.70747 ,0.06602 ,0.64783 
359 ,71.5810 ,1.70967 ,0.06602 ,0.64783 
360 ,71.7891 ,1.71180 ,0.04891 ,0.47994 
361 ,71.9968 ,1.71381 ,0.04549 ,0.44636 
362 ,72.1891 ,1.71578 ,0.04207 ,0.41278 
363 ,72.3972 ,1.71786 ,0.01127 ,0.11058 
364 ,72.6053 ,1.71992 ,0.01127 ,0.11058 
365 ,72.7974 ,1.72193 ,-0.01269 ,-0.12447 
366 ,72.9896 ,1.72384 ,-0.02295 ,-0.22520 
367 ,73.1816 ,1.72573 ,-0.02980 ,-0.29236 
368 ,73.3734 ,1.72763 ,-0.06060 ,-0.59457 
369 ,73.5659 ,1.72959 ,-0.05375 ,-0.52741 
370 ,73.7738 ,1.73163 ,-0.06060 ,-0.59457 
371 ,73.9659 ,1.73353 ,-0.04691 ,-0.46025 
372 ,74.1582 ,1.73550 ,-0.08455 ,-0.82961 
373 ,74.3503 ,1.73744 ,-0.09482 ,-0.93035 
374 ,74.5423 ,1.73936 ,-0.08455 ,-0.82961 
375 ,74.7504 ,1.74140 ,-0.10851 ,-1.06466 
376 ,74.9425 ,1.74334 ,-0.10851 ,-1.06466 
377 ,75.1345 ,1.74529 ,-0.14273 ,-1.40045 
378 ,75.3264 ,1.74716 ,-0.13246 ,-1.29971 
379 ,75.5345 ,1.74924 ,-0.15299 ,-1.50118 
380 ,75.7429 ,1.75128 ,-0.14957 ,-1.46760 
381 ,75.9509 ,1.75345 ,-0.17695 ,-1.73623 
382 ,76.1911 ,1.75570 ,-0.18037 ,-1.76981 
383 ,76.3831 ,1.75773 ,-0.17353 ,-1.70265 
384 ,76.5752 ,1.75966 ,-0.20090 ,-1.97128 
385 ,76.7668 ,1.76154 ,-0.19064 ,-1.87054 
386 ,76.9593 ,1.76353 ,-0.22486 ,-2.20632 
387 ,77.1673 ,1.76558 ,-0.22486 ,-2.20632 
388 ,77.3595 ,1.76752 ,-0.24881 ,-2.44137 
389 ,77.5515 ,1.76946 ,-0.25566 ,-2.50853 
390 ,77.7433 ,1.77131 ,-0.24881 ,-2.44137 
391 ,77.9356 ,1.77326 ,-0.26593 ,-2.60926 
392 ,78.1438 ,1.77529 ,-0.27277 ,-2.67642 
393 ,78.3357 ,1.77726 ,-0.29673 ,-2.91147 
394 ,78.5438 ,1.77931 ,-0.30015 ,-2.94505 
395 ,78.7359 ,1.78125 ,-0.32752 ,-3.21367 
396 ,78.9282 ,1.78313 ,-0.31384 ,-3.07936 
397 ,79.1358 ,1.78511 ,-0.33437 ,-3.28083 
398 ,79.3281 ,1.78715 ,-0.33095 ,-3.24725 
399 ,79.5202 ,1.78911 ,-0.36175 ,-3.54946 
400 ,79.7285 ,1.79113 ,-0.34806 ,-3.41514 
401 ,79.9201 ,1.79311 ,-0.38228 ,-3.75093 
402 ,80.1127 ,1.79502 ,-0.38570 ,-3.78450 
403 ,80.3366 ,1.79714 ,-0.38912 ,-3.81808 
404 ,80.5288 ,1.79918 ,-0.37886 ,-3.71735 
405 ,80.7209 ,1.80106 ,-0.40281 ,-3.95240 
406 ,80.9129 ,1.80298 ,-0.41650 ,-4.08671 
407 ,81.1047 ,1.80491 ,-0.40966 ,-4.01955 
408 ,81.2970 ,1.80677 ,-0.44730 ,-4.38891 
409 ,81.4893 ,1.80878 ,-0.44046 ,-4.32176 
410 ,81.6973 ,1.81082 ,-0.45414 ,-4.45607 
411 ,81.8894 ,1.81282 ,-0.44388 ,-4.35534 
412 ,82.0812 ,1.81473 ,-0.47126 ,-4.62396 
413 ,82.3215 ,1.81693 ,-0.48152 ,-4.72470 
414 ,82.5137 ,1.81902 ,-0.50548 ,-4.95975 
415 ,82.7215 ,1.82113 ,-0.50890 ,-4.99332 
416 ,82.9140 ,1.82299 ,-0.52259 ,-5.12764 
417 ,83.1379 ,1.82520 ,-0.52601 ,-5.16121 
418 ,83.3458 ,1.82732 ,-0.52943 ,-5.19479 
419 ,83.5541 ,1.82945 ,-0.55339 ,-5.42984 
420 ,83.7460 ,1.83132 ,-0.53970 ,-5.29553 
421 ,83.9544 ,1.83343 ,-0.55339 ,-5.42984 
422 ,84.1459 ,1.83530 ,-0.55681 ,-5.46342 
423 ,84.3379 ,1.83726 ,-0.57734 ,-5.66489 
424 ,84.5303 ,1.83922 ,-0.58419 ,-5.73205 
425 ,84.7386 ,1.84126 ,-0.60472 ,-5.93352 
426 ,84.9466 ,1.84330 ,-0.60130 ,-5.89994 
427 ,85.1387 ,1.84525 ,-0.62183 ,-6.10141 
428 ,85.3307 ,1.84716 ,-0.62525 ,-6.13499 
429 ,85.5389 ,1.84926 ,-0.64236 ,-6.30288 
430 ,85.7789 ,1.85168 ,-0.65947 ,-6.47077 
431 ,85.9711 ,1.85360 ,-0.65947 ,-6.47077 
432 ,86.1632 ,1.85554 ,-0.64921 ,-6.37003 
433 ,86.3713 ,1.85758 ,-0.68001 ,-6.67224 
434 ,86.5632 ,1.85949 ,-0.66632 ,-6.53793 
435 ,86.7552 ,1.86140 ,-0.70396 ,-6.90729 
436 ,86.9635 ,1.86349 ,-0.69370 ,-6.80655 
437 ,87.1715 ,1.86564 ,-0.68685 ,-6.73940 
438 ,87.3796 ,1.86765 ,-0.73134 ,-7.17591 
439 ,87.5713 ,1.86959 ,-0.73134 ,-7.17591 
440 ,87.7637 ,1.87152 ,-0.72792 ,-7.14233 
441 ,87.9877 ,1.87364 ,-0.74503 ,-7.31023 
442 ,88.1958 ,1.87577 ,-0.76898 ,-7.54527 
443 ,88.3879 ,1.87770 ,-0.75872 ,-7.44454 
444 ,88.5801 ,1.87968 ,-0.76898 ,-7.54527 
445 ,88.7721 ,1.88157 ,-0.77925 ,-7.64601 
446 ,88.9803 ,1.88366 ,-0.78952 ,-7.74674 
447 ,89.1721 ,1.88558 ,-0.79978 ,-7.84748 
448 ,89.3804 ,1.88765 ,-0.80663 ,-7.91464 
449 ,89.5724 ,1.88956 ,-0.82716 ,-8.11611 
450 ,89.7802 ,1.89162 ,-0.83401 ,-8.18326 
451 ,89.9727 ,1.89355 ,-0.83401 ,-8.18326 
452 ,90.1646 ,1.89551 ,-0.83401 ,-8.18326 
453 ,90.3569 ,1.89742 ,-0.86138 ,-8.45189 
454 ,90.5645 ,1.89949 ,-0.85112 ,-8.35115 
455 ,90.7565 ,1.90143 ,-0.88876 ,-8.72051 
456 ,90.9490 ,1.90339 ,-0.86823 ,-8.51904 
457 ,91.2051 ,1.90590 ,-0.88192 ,-8.65336 
458 ,91.4453 ,1.90809 ,-0.90245 ,-8.85483 
459 ,91.6535 ,1.91037 ,-0.90929 ,-8.92198 
460 ,91.8452 ,1.91228 ,-0.91272 ,-8.95556 
461 ,92.0534 ,1.91440 ,-0.93667 ,-9.19061 
462 ,92.2614 ,1.91645 ,-0.93325 ,-9.15703 
463 ,92.4537 ,1.91839 ,-0.94694 ,-9.29135 
