Data stamp = , 01-05-2022 08:57:33 075

Calibration Values: 
Slope = , 26.54 , g/V 
Offset Voltage at no contact = , -0.501760 , V 

No , Time , Stage Position ,   Mass , Force 
   ,  (s) ,      (mm)      ,   (g)  , (mN)  

1 ,0.0000 ,0.99950 ,5.40460 ,53.02998 
2 ,0.2172 ,0.99958 ,5.40803 ,53.06356 
3 ,0.7773 ,1.00173 ,5.39434 ,52.92925 
4 ,0.9859 ,1.00407 ,5.37381 ,52.72778 
5 ,1.2100 ,1.00615 ,5.38407 ,52.82851 
6 ,1.4021 ,1.00818 ,5.38749 ,52.86209 
7 ,1.5941 ,1.01014 ,5.34985 ,52.49273 
8 ,1.7862 ,1.01211 ,5.33958 ,52.39199 
9 ,2.0102 ,1.01427 ,5.29167 ,51.92190 
10 ,2.2184 ,1.01632 ,5.30194 ,52.02263 
11 ,2.4105 ,1.01835 ,5.26087 ,51.61969 
12 ,2.6024 ,1.02030 ,5.25745 ,51.58611 
13 ,2.7945 ,1.02217 ,5.22665 ,51.28391 
14 ,2.9864 ,1.02405 ,5.21639 ,51.18317 
15 ,3.1787 ,1.02599 ,5.19585 ,50.98170 
16 ,3.3868 ,1.02813 ,5.18216 ,50.84739 
17 ,3.5788 ,1.03001 ,5.16163 ,50.64592 
18 ,3.7868 ,1.03202 ,5.13768 ,50.41087 
19 ,3.9952 ,1.03406 ,5.12399 ,50.27656 
20 ,4.1869 ,1.03612 ,5.11030 ,50.14225 
21 ,4.3792 ,1.03798 ,5.10688 ,50.10867 
22 ,4.5875 ,1.04007 ,5.06239 ,49.67215 
23 ,4.7795 ,1.04204 ,5.04870 ,49.53784 
24 ,4.9713 ,1.04392 ,5.01790 ,49.23563 
25 ,5.1633 ,1.04580 ,5.00763 ,49.13490 
26 ,5.3713 ,1.04792 ,4.97683 ,48.83269 
27 ,5.5473 ,1.04975 ,4.96999 ,48.76554 
28 ,5.7397 ,1.05158 ,4.97341 ,48.79911 
29 ,5.9480 ,1.05367 ,4.93577 ,48.42975 
30 ,6.1719 ,1.05582 ,4.90839 ,48.16113 
31 ,6.3799 ,1.05797 ,4.89470 ,48.02681 
32 ,6.5721 ,1.05991 ,4.85021 ,47.59030 
33 ,6.7643 ,1.06183 ,4.87417 ,47.82534 
34 ,6.9564 ,1.06380 ,4.83652 ,47.45598 
35 ,7.1485 ,1.06569 ,4.80915 ,47.18736 
36 ,7.3562 ,1.06779 ,4.80230 ,47.12020 
37 ,7.5486 ,1.06970 ,4.77493 ,46.85157 
38 ,7.7568 ,1.07181 ,4.74755 ,46.58295 
39 ,7.9648 ,1.07390 ,4.75439 ,46.65010 
40 ,8.1729 ,1.07585 ,4.70990 ,46.21359 
41 ,8.3808 ,1.07802 ,4.72017 ,46.31432 
42 ,8.5731 ,1.07992 ,4.67568 ,45.87780 
43 ,8.7806 ,1.08199 ,4.66542 ,45.77707 
44 ,8.9731 ,1.08390 ,4.63804 ,45.50844 
45 ,9.1653 ,1.08586 ,4.64831 ,45.60918 
46 ,9.3574 ,1.08776 ,4.61066 ,45.23981 
47 ,9.5491 ,1.08971 ,4.60724 ,45.20624 
48 ,9.7415 ,1.09161 ,4.58671 ,45.00477 
49 ,9.9494 ,1.09372 ,4.56275 ,44.76972 
50 ,10.1578 ,1.09578 ,4.53537 ,44.50109 
51 ,10.3657 ,1.09779 ,4.53195 ,44.46751 
52 ,10.5739 ,1.09992 ,4.50457 ,44.19889 
53 ,10.7660 ,1.10185 ,4.50457 ,44.19889 
54 ,10.9741 ,1.10398 ,4.45666 ,43.72879 
55 ,11.1982 ,1.10621 ,4.44640 ,43.62806 
56 ,11.4063 ,1.10827 ,4.45324 ,43.69521 
57 ,11.5982 ,1.11019 ,4.41218 ,43.29227 
58 ,11.8059 ,1.11225 ,4.40875 ,43.25870 
59 ,11.9986 ,1.11414 ,4.38138 ,42.99007 
60 ,12.1906 ,1.11614 ,4.36769 ,42.85576 
61 ,12.4145 ,1.11822 ,4.34373 ,42.62071 
62 ,12.6068 ,1.12026 ,4.33347 ,42.51997 
63 ,12.7988 ,1.12220 ,4.29240 ,42.11703 
64 ,13.0069 ,1.12427 ,4.29240 ,42.11703 
65 ,13.2148 ,1.12631 ,4.27187 ,41.91556 
66 ,13.4069 ,1.12832 ,4.25818 ,41.78125 
67 ,13.6151 ,1.13029 ,4.23765 ,41.57978 
68 ,13.8070 ,1.13227 ,4.22738 ,41.47905 
69 ,13.9989 ,1.13418 ,4.19658 ,41.17684 
70 ,14.2072 ,1.13628 ,4.19658 ,41.17684 
71 ,14.4153 ,1.13834 ,4.15551 ,40.77390 
72 ,14.6073 ,1.14023 ,4.15894 ,40.80748 
73 ,14.7996 ,1.14218 ,4.12814 ,40.50527 
74 ,14.9753 ,1.14404 ,4.12814 ,40.50527 
75 ,15.1836 ,1.14600 ,4.10418 ,40.27023 
76 ,15.4236 ,1.14826 ,4.08365 ,40.06876 
77 ,15.6318 ,1.15049 ,4.04600 ,39.69940 
78 ,15.8236 ,1.15242 ,4.04943 ,39.73297 
79 ,16.0001 ,1.15427 ,4.01863 ,39.43077 
80 ,16.1916 ,1.15605 ,4.01178 ,39.36361 
81 ,16.3837 ,1.15801 ,3.99467 ,39.19572 
82 ,16.5760 ,1.15994 ,3.97072 ,38.96067 
83 ,16.7844 ,1.16199 ,3.96729 ,38.92709 
84 ,16.9764 ,1.16406 ,3.93307 ,38.59131 
85 ,17.1685 ,1.16583 ,3.93650 ,38.62489 
86 ,17.3605 ,1.16771 ,3.89885 ,38.25553 
87 ,17.5526 ,1.16966 ,3.90227 ,38.28911 
88 ,17.7448 ,1.17166 ,3.87490 ,38.02048 
89 ,17.9370 ,1.17355 ,3.85436 ,37.81901 
90 ,18.1611 ,1.17574 ,3.84752 ,37.75185 
91 ,18.3686 ,1.17787 ,3.82699 ,37.55038 
92 ,18.5772 ,1.17983 ,3.80645 ,37.34891 
93 ,18.7851 ,1.18199 ,3.81672 ,37.44965 
94 ,18.9932 ,1.18397 ,3.76881 ,36.97955 
95 ,19.2012 ,1.18616 ,3.74485 ,36.74450 
96 ,19.4092 ,1.18826 ,3.73801 ,36.67735 
97 ,19.6015 ,1.19014 ,3.71748 ,36.47588 
98 ,19.8095 ,1.19225 ,3.71405 ,36.44230 
99 ,20.0014 ,1.19416 ,3.67641 ,36.07294 
100 ,20.2099 ,1.19622 ,3.67299 ,36.03936 
101 ,20.4015 ,1.19817 ,3.63534 ,35.67000 
102 ,20.5774 ,1.20005 ,3.63877 ,35.70358 
103 ,20.7859 ,1.20190 ,3.63877 ,35.70358 
104 ,20.9781 ,1.20397 ,3.58401 ,35.16632 
105 ,21.1701 ,1.20585 ,3.60454 ,35.36779 
106 ,21.3783 ,1.20798 ,3.57375 ,35.06559 
107 ,21.5705 ,1.20983 ,3.56348 ,34.96485 
108 ,21.7623 ,1.21178 ,3.53610 ,34.69623 
109 ,21.9544 ,1.21371 ,3.52584 ,34.59549 
110 ,22.1465 ,1.21565 ,3.51215 ,34.46118 
111 ,22.3546 ,1.21755 ,3.48135 ,34.15898 
112 ,22.5626 ,1.21978 ,3.45739 ,33.92393 
113 ,22.7544 ,1.22169 ,3.45055 ,33.85677 
114 ,22.9628 ,1.22369 ,3.44713 ,33.82319 
115 ,23.1549 ,1.22566 ,3.41975 ,33.55457 
116 ,23.3470 ,1.22758 ,3.40264 ,33.38667 
117 ,23.5391 ,1.22949 ,3.37526 ,33.11805 
118 ,23.7473 ,1.23147 ,3.38553 ,33.21878 
119 ,23.9392 ,1.23350 ,3.34446 ,32.81584 
120 ,24.1311 ,1.23542 ,3.34104 ,32.78227 
121 ,24.3234 ,1.23732 ,3.31024 ,32.48006 
122 ,24.5314 ,1.23946 ,3.30682 ,32.44648 
123 ,24.7236 ,1.24140 ,3.28628 ,32.24501 
124 ,24.9152 ,1.24332 ,3.27944 ,32.17786 
125 ,25.1236 ,1.24528 ,3.26917 ,32.07712 
126 ,25.3314 ,1.24745 ,3.24864 ,31.87565 
127 ,25.5238 ,1.24930 ,3.23153 ,31.70776 
128 ,25.7160 ,1.25131 ,3.20757 ,31.47271 
129 ,25.9241 ,1.25332 ,3.18704 ,31.27124 
130 ,26.1319 ,1.25539 ,3.15624 ,30.96904 
131 ,26.3242 ,1.25732 ,3.13913 ,30.80115 
132 ,26.5163 ,1.25931 ,3.13571 ,30.76757 
133 ,26.7083 ,1.26130 ,3.11860 ,30.59968 
134 ,26.9161 ,1.26325 ,3.11518 ,30.56610 
135 ,27.1081 ,1.26516 ,3.10491 ,30.46536 
136 ,27.3002 ,1.26714 ,3.06726 ,30.09600 
137 ,27.4926 ,1.26906 ,3.07411 ,30.16316 
138 ,27.7007 ,1.27113 ,3.04673 ,29.89453 
139 ,27.8926 ,1.27307 ,3.03989 ,29.82737 
140 ,28.1007 ,1.27513 ,3.00567 ,29.49159 
141 ,28.2766 ,1.27704 ,2.99882 ,29.42444 
142 ,28.4689 ,1.27882 ,2.99198 ,29.35728 
143 ,28.6771 ,1.28090 ,2.94407 ,28.88718 
144 ,28.8691 ,1.28277 ,2.96118 ,29.05507 
145 ,29.0773 ,1.28479 ,2.92696 ,28.71929 
146 ,29.2693 ,1.28680 ,2.92353 ,28.68571 
147 ,29.4775 ,1.28893 ,2.90300 ,28.48424 
148 ,29.6858 ,1.29096 ,2.88247 ,28.28277 
149 ,29.8776 ,1.29288 ,2.85851 ,28.04772 
150 ,30.0699 ,1.29481 ,2.87220 ,28.18204 
151 ,30.2776 ,1.29689 ,2.83114 ,27.77910 
152 ,30.4695 ,1.29878 ,2.83798 ,27.84625 
153 ,30.6620 ,1.30069 ,2.80034 ,27.47689 
154 ,30.8540 ,1.30269 ,2.78665 ,27.34258 
155 ,31.0782 ,1.30479 ,2.76269 ,27.10753 
156 ,31.2704 ,1.30682 ,2.77296 ,27.20827 
157 ,31.4621 ,1.30870 ,2.74216 ,26.90606 
158 ,31.6705 ,1.31081 ,2.74216 ,26.90606 
159 ,31.8785 ,1.31291 ,2.70452 ,26.53670 
160 ,32.0864 ,1.31493 ,2.70109 ,26.50312 
161 ,32.2787 ,1.31690 ,2.66345 ,26.13376 
162 ,32.4867 ,1.31884 ,2.68056 ,26.30165 
163 ,32.6947 ,1.32107 ,2.66345 ,26.13376 
164 ,32.8870 ,1.32298 ,2.64292 ,25.93229 
165 ,33.0950 ,1.32512 ,2.62581 ,25.76440 
166 ,33.3030 ,1.32712 ,2.59158 ,25.42862 
167 ,33.4952 ,1.32906 ,2.58816 ,25.39504 
168 ,33.6869 ,1.33098 ,2.57105 ,25.22715 
169 ,33.8792 ,1.33292 ,2.54710 ,24.99210 
170 ,34.1034 ,1.33503 ,2.54367 ,24.95852 
171 ,34.2951 ,1.33707 ,2.52998 ,24.82421 
172 ,34.4874 ,1.33895 ,2.51287 ,24.65632 
173 ,34.6958 ,1.34104 ,2.49234 ,24.45485 
174 ,34.8875 ,1.34296 ,2.47523 ,24.28696 
175 ,35.0798 ,1.34487 ,2.46154 ,24.15264 
176 ,35.2879 ,1.34696 ,2.43759 ,23.91759 
177 ,35.4957 ,1.34906 ,2.45470 ,24.08549 
178 ,35.6881 ,1.35096 ,2.42048 ,23.74970 
179 ,35.8958 ,1.35305 ,2.40679 ,23.61539 
180 ,36.0883 ,1.35499 ,2.39652 ,23.51465 
181 ,36.2803 ,1.35690 ,2.36914 ,23.24603 
182 ,36.4722 ,1.35884 ,2.37599 ,23.31318 
183 ,36.6645 ,1.36073 ,2.33834 ,22.94382 
184 ,36.8566 ,1.36268 ,2.33492 ,22.91024 
185 ,37.0647 ,1.36467 ,2.31097 ,22.67520 
186 ,37.2887 ,1.36693 ,2.29043 ,22.47373 
187 ,37.4806 ,1.36889 ,2.26990 ,22.27226 
188 ,37.6729 ,1.37082 ,2.28701 ,22.44015 
189 ,37.8651 ,1.37277 ,2.26306 ,22.20510 
190 ,38.0566 ,1.37466 ,2.25963 ,22.17152 
191 ,38.2492 ,1.37660 ,2.22199 ,21.80216 
192 ,38.4572 ,1.37870 ,2.22199 ,21.80216 
193 ,38.6650 ,1.38076 ,2.19119 ,21.49996 
194 ,38.8574 ,1.38268 ,2.19803 ,21.56711 
195 ,39.0654 ,1.38475 ,2.16039 ,21.19775 
196 ,39.2574 ,1.38663 ,2.15697 ,21.16417 
197 ,39.4495 ,1.38856 ,2.14328 ,21.02986 
198 ,39.6256 ,1.39044 ,2.12617 ,20.86197 
199 ,39.8176 ,1.39224 ,2.11590 ,20.76123 
200 ,40.0258 ,1.39424 ,2.10221 ,20.62692 
201 ,40.2178 ,1.39638 ,2.09195 ,20.52619 
202 ,40.4100 ,1.39816 ,2.06457 ,20.25756 
203 ,40.6179 ,1.40029 ,2.05430 ,20.15682 
204 ,40.8103 ,1.40217 ,2.05088 ,20.12325 
205 ,41.0183 ,1.40424 ,2.02350 ,19.85462 
206 ,41.2261 ,1.40634 ,2.00297 ,19.65315 
207 ,41.4185 ,1.40833 ,2.00639 ,19.68673 
208 ,41.6103 ,1.41016 ,1.98244 ,19.45168 
209 ,41.8025 ,1.41208 ,1.95506 ,19.18305 
210 ,42.0105 ,1.41418 ,1.94137 ,19.04874 
211 ,42.2025 ,1.41610 ,1.94479 ,19.08232 
212 ,42.4105 ,1.41814 ,1.93453 ,18.98158 
213 ,42.6027 ,1.42008 ,1.89688 ,18.61222 
214 ,42.8108 ,1.42218 ,1.89346 ,18.57864 
215 ,43.0191 ,1.42428 ,1.87293 ,18.37717 
216 ,43.2110 ,1.42616 ,1.86608 ,18.31002 
217 ,43.4031 ,1.42808 ,1.84897 ,18.14213 
218 ,43.5953 ,1.42996 ,1.84897 ,18.14213 
219 ,43.8034 ,1.43208 ,1.80449 ,17.70561 
220 ,44.0113 ,1.43416 ,1.81133 ,17.77276 
221 ,44.2512 ,1.43658 ,1.78395 ,17.50414 
222 ,44.4593 ,1.43864 ,1.78053 ,17.47056 
223 ,44.6513 ,1.44050 ,1.76342 ,17.30267 
224 ,44.8437 ,1.44251 ,1.72920 ,16.96689 
225 ,45.0360 ,1.44437 ,1.73946 ,17.06762 
226 ,45.2280 ,1.44635 ,1.70182 ,16.69826 
227 ,45.4361 ,1.44836 ,1.71551 ,16.83257 
228 ,45.6282 ,1.45031 ,1.68471 ,16.53037 
229 ,45.8201 ,1.45221 ,1.67102 ,16.39605 
230 ,46.0283 ,1.45426 ,1.65049 ,16.19458 
231 ,46.2201 ,1.45622 ,1.65733 ,16.26174 
232 ,46.4124 ,1.45815 ,1.64022 ,16.09385 
233 ,46.6043 ,1.46012 ,1.60942 ,15.79164 
234 ,46.8122 ,1.46213 ,1.60600 ,15.75807 
235 ,47.0047 ,1.46413 ,1.56836 ,15.38871 
236 ,47.2289 ,1.46633 ,1.55809 ,15.28797 
237 ,47.4369 ,1.46839 ,1.56836 ,15.38871 
238 ,47.6288 ,1.47032 ,1.53413 ,15.05292 
239 ,47.8372 ,1.47236 ,1.53413 ,15.05292 
240 ,48.0453 ,1.47446 ,1.50676 ,14.78430 
241 ,48.2532 ,1.47656 ,1.49649 ,14.68356 
242 ,48.4453 ,1.47849 ,1.48622 ,14.58283 
243 ,48.6377 ,1.48038 ,1.48965 ,14.61640 
244 ,48.8295 ,1.48233 ,1.45200 ,14.24704 
245 ,49.0377 ,1.48439 ,1.44858 ,14.21346 
246 ,49.2298 ,1.48630 ,1.42462 ,13.97842 
247 ,49.4218 ,1.48827 ,1.43147 ,14.04557 
248 ,49.6136 ,1.49019 ,1.41778 ,13.91126 
249 ,49.8060 ,1.49213 ,1.39725 ,13.70979 
250 ,50.0139 ,1.49418 ,1.39725 ,13.70979 
251 ,50.2542 ,1.49646 ,1.38356 ,13.57548 
252 ,50.4623 ,1.49864 ,1.35276 ,13.27327 
253 ,50.6544 ,1.50061 ,1.35276 ,13.27327 
254 ,50.8463 ,1.50254 ,1.31169 ,12.87033 
255 ,51.0545 ,1.50458 ,1.31854 ,12.93749 
256 ,51.2464 ,1.50650 ,1.30143 ,12.76960 
257 ,51.4389 ,1.50840 ,1.29800 ,12.73602 
258 ,51.6307 ,1.51032 ,1.27063 ,12.46739 
259 ,51.8390 ,1.51239 ,1.27405 ,12.50097 
260 ,52.0306 ,1.51436 ,1.23983 ,12.16519 
261 ,52.2225 ,1.51637 ,1.23983 ,12.16519 
262 ,52.4148 ,1.51820 ,1.21587 ,11.93014 
263 ,52.6226 ,1.52023 ,1.22272 ,11.99730 
264 ,52.8148 ,1.52211 ,1.20218 ,11.79583 
265 ,53.0072 ,1.52411 ,1.17481 ,11.52720 
266 ,53.2154 ,1.52610 ,1.15770 ,11.35931 
267 ,53.4073 ,1.52806 ,1.15085 ,11.29215 
268 ,53.5995 ,1.53001 ,1.14743 ,11.25857 
269 ,53.8235 ,1.53214 ,1.10979 ,10.88921 
270 ,54.0155 ,1.53412 ,1.10979 ,10.88921 
271 ,54.2077 ,1.53615 ,1.10294 ,10.82206 
272 ,54.3997 ,1.53801 ,1.09610 ,10.75490 
273 ,54.6239 ,1.54010 ,1.06530 ,10.45270 
274 ,54.8321 ,1.54230 ,1.04819 ,10.28480 
275 ,55.0561 ,1.54447 ,1.04819 ,10.28480 
276 ,55.2482 ,1.54653 ,1.02081 ,10.01618 
277 ,55.4562 ,1.54858 ,1.03108 ,10.11691 
278 ,55.6483 ,1.55048 ,0.99685 ,9.78113 
279 ,55.8407 ,1.55238 ,1.00370 ,9.84829 
280 ,56.0482 ,1.55453 ,0.97632 ,9.57966 
281 ,56.2407 ,1.55638 ,0.97974 ,9.61324 
282 ,56.4327 ,1.55835 ,0.94552 ,9.27745 
283 ,56.6244 ,1.56027 ,0.95237 ,9.34461 
284 ,56.8489 ,1.56251 ,0.91472 ,8.97525 
285 ,57.0569 ,1.56461 ,0.92499 ,9.07598 
286 ,57.2490 ,1.56649 ,0.89419 ,8.77378 
287 ,57.4406 ,1.56839 ,0.89761 ,8.80736 
288 ,57.6332 ,1.57031 ,0.85654 ,8.40442 
289 ,57.8251 ,1.57227 ,0.88392 ,8.67305 
290 ,58.0173 ,1.57418 ,0.87023 ,8.53873 
291 ,58.2252 ,1.57624 ,0.83601 ,8.20295 
292 ,58.4334 ,1.57823 ,0.82917 ,8.13579 
293 ,58.6415 ,1.58037 ,0.82232 ,8.06864 
294 ,58.8333 ,1.58232 ,0.80179 ,7.86717 
295 ,59.0097 ,1.58423 ,0.79152 ,7.76643 
296 ,59.2180 ,1.58616 ,0.78126 ,7.66570 
297 ,59.4260 ,1.58817 ,0.75388 ,7.39707 
298 ,59.6339 ,1.59037 ,0.74361 ,7.29633 
299 ,59.8418 ,1.59242 ,0.74019 ,7.26276 
300 ,60.0343 ,1.59429 ,0.72650 ,7.12844 
301 ,60.2424 ,1.59643 ,0.71966 ,7.06129 
302 ,60.4503 ,1.59846 ,0.69570 ,6.82624 
303 ,60.6426 ,1.60038 ,0.70255 ,6.89340 
304 ,60.8345 ,1.60235 ,0.66148 ,6.49046 
305 ,61.0262 ,1.60424 ,0.65464 ,6.42330 
306 ,61.2344 ,1.60626 ,0.63068 ,6.18825 
307 ,61.4588 ,1.60857 ,0.63068 ,6.18825 
308 ,61.6508 ,1.61051 ,0.61699 ,6.05394 
309 ,61.8430 ,1.61239 ,0.61699 ,6.05394 
310 ,62.0350 ,1.61432 ,0.59646 ,5.85247 
311 ,62.2270 ,1.61637 ,0.59646 ,5.85247 
312 ,62.4191 ,1.61818 ,0.57935 ,5.68458 
313 ,62.6112 ,1.62012 ,0.56566 ,5.55026 
314 ,62.8033 ,1.62198 ,0.56224 ,5.51668 
315 ,63.0111 ,1.62410 ,0.53144 ,5.21448 
316 ,63.2030 ,1.62603 ,0.54513 ,5.34879 
317 ,63.3956 ,1.62792 ,0.50406 ,4.94585 
318 ,63.6035 ,1.63003 ,0.51433 ,5.04659 
319 ,63.7957 ,1.63192 ,0.49037 ,4.81154 
320 ,63.9877 ,1.63388 ,0.48011 ,4.71081 
321 ,64.1798 ,1.63579 ,0.48695 ,4.77796 
322 ,64.3877 ,1.63780 ,0.45615 ,4.47576 
323 ,64.5961 ,1.63981 ,0.46300 ,4.54291 
324 ,64.7878 ,1.64186 ,0.42877 ,4.20713 
325 ,64.9961 ,1.64393 ,0.41851 ,4.10640 
326 ,65.1878 ,1.64583 ,0.40824 ,4.00566 
327 ,65.3803 ,1.64777 ,0.40482 ,3.97208 
328 ,65.5884 ,1.64981 ,0.39113 ,3.83777 
329 ,65.7965 ,1.65192 ,0.37060 ,3.63630 
330 ,65.9885 ,1.65386 ,0.36375 ,3.56914 
331 ,66.1807 ,1.65577 ,0.36718 ,3.60272 
332 ,66.3727 ,1.65769 ,0.32953 ,3.23336 
333 ,66.5803 ,1.65978 ,0.33980 ,3.33410 
334 ,66.7729 ,1.66173 ,0.30900 ,3.03189 
335 ,66.9808 ,1.66377 ,0.31242 ,3.06547 
336 ,67.1730 ,1.66569 ,0.29189 ,2.86400 
337 ,67.3807 ,1.66778 ,0.28504 ,2.79684 
338 ,67.5730 ,1.66969 ,0.26451 ,2.59537 
339 ,67.7653 ,1.67163 ,0.26451 ,2.59537 
340 ,67.9734 ,1.67367 ,0.23713 ,2.32675 
341 ,68.1813 ,1.67566 ,0.24398 ,2.39390 
342 ,68.4055 ,1.67787 ,0.23029 ,2.25959 
343 ,68.5975 ,1.67992 ,0.20976 ,2.05812 
344 ,68.7897 ,1.68180 ,0.19949 ,1.95738 
345 ,68.9977 ,1.68378 ,0.19264 ,1.89023 
346 ,69.2059 ,1.68603 ,0.18238 ,1.78949 
347 ,69.3978 ,1.68792 ,0.17553 ,1.72234 
348 ,69.6060 ,1.69001 ,0.15842 ,1.55445 
349 ,69.7976 ,1.69196 ,0.14816 ,1.45371 
350 ,69.9900 ,1.69396 ,0.14473 ,1.42013 
351 ,70.1981 ,1.69588 ,0.12420 ,1.21866 
352 ,70.3903 ,1.69782 ,0.11736 ,1.15151 
353 ,70.5984 ,1.69992 ,0.10025 ,0.98361 
354 ,70.7904 ,1.70186 ,0.10025 ,0.98361 
355 ,70.9820 ,1.70374 ,0.09682 ,0.95004 
356 ,71.1904 ,1.70575 ,0.06945 ,0.68141 
357 ,71.3827 ,1.70782 ,0.06602 ,0.64783 
358 ,71.5748 ,1.70973 ,0.04891 ,0.47994 
359 ,71.7666 ,1.71159 ,0.04891 ,0.47994 
360 ,71.9751 ,1.71358 ,0.04549 ,0.44636 
361 ,72.1832 ,1.71570 ,0.02496 ,0.24489 
362 ,72.3908 ,1.71786 ,-0.00584 ,-0.05731 
363 ,72.5833 ,1.71978 ,0.01469 ,0.14416 
364 ,72.7754 ,1.72178 ,-0.01953 ,-0.19163 
365 ,72.9834 ,1.72371 ,-0.01611 ,-0.15805 
366 ,73.1754 ,1.72569 ,-0.02980 ,-0.29236 
367 ,73.3835 ,1.72779 ,-0.02980 ,-0.29236 
368 ,73.5757 ,1.72974 ,-0.06402 ,-0.62814 
369 ,73.7678 ,1.73159 ,-0.05033 ,-0.49383 
370 ,73.9599 ,1.73353 ,-0.06744 ,-0.66172 
371 ,74.3276 ,1.73643 ,-0.07771 ,-0.76246 
372 ,74.5201 ,1.73911 ,-0.09824 ,-0.96393 
373 ,74.7283 ,1.74127 ,-0.11193 ,-1.09824 
374 ,74.9204 ,1.74316 ,-0.12219 ,-1.19898 
375 ,75.1123 ,1.74504 ,-0.13931 ,-1.36687 
376 ,75.3201 ,1.74713 ,-0.13246 ,-1.29971 
377 ,75.5124 ,1.74905 ,-0.15642 ,-1.53476 
378 ,75.7206 ,1.75109 ,-0.15642 ,-1.53476 
379 ,75.9127 ,1.75303 ,-0.17695 ,-1.73623 
380 ,76.1048 ,1.75496 ,-0.17695 ,-1.73623 
381 ,76.2967 ,1.75692 ,-0.20090 ,-1.97128 
382 ,76.5050 ,1.75893 ,-0.18722 ,-1.83696 
383 ,76.7284 ,1.76122 ,-0.21117 ,-2.07201 
384 ,76.9206 ,1.76318 ,-0.22144 ,-2.17275 
385 ,77.1130 ,1.76509 ,-0.23855 ,-2.34064 
386 ,77.3373 ,1.76732 ,-0.25566 ,-2.50853 
387 ,77.5453 ,1.76940 ,-0.24539 ,-2.40779 
388 ,77.7374 ,1.77127 ,-0.25566 ,-2.50853 
389 ,77.9296 ,1.77318 ,-0.27961 ,-2.74358 
390 ,78.1378 ,1.77532 ,-0.28646 ,-2.81073 
391 ,78.3297 ,1.77720 ,-0.29673 ,-2.91147 
392 ,78.5378 ,1.77918 ,-0.30357 ,-2.97863 
393 ,78.7459 ,1.78129 ,-0.32410 ,-3.18010 
394 ,78.9381 ,1.78333 ,-0.33779 ,-3.31441 
395 ,79.1462 ,1.78536 ,-0.33437 ,-3.28083 
396 ,79.3542 ,1.78749 ,-0.35490 ,-3.48230 
397 ,79.5462 ,1.78940 ,-0.33779 ,-3.31441 
398 ,79.7382 ,1.79128 ,-0.35832 ,-3.51588 
399 ,79.9304 ,1.79317 ,-0.37201 ,-3.65019 
400 ,80.1223 ,1.79511 ,-0.36517 ,-3.58303 
401 ,80.3145 ,1.79702 ,-0.39255 ,-3.85166 
402 ,80.5225 ,1.79918 ,-0.38912 ,-3.81808 
403 ,80.7145 ,1.80104 ,-0.42335 ,-4.15387 
404 ,80.9228 ,1.80314 ,-0.40966 ,-4.01955 
405 ,81.1311 ,1.80521 ,-0.44046 ,-4.32176 
406 ,81.3230 ,1.80711 ,-0.43361 ,-4.25460 
407 ,81.5311 ,1.80925 ,-0.45414 ,-4.45607 
408 ,81.7231 ,1.81112 ,-0.45072 ,-4.42249 
409 ,81.9312 ,1.81323 ,-0.46783 ,-4.59038 
410 ,82.1232 ,1.81517 ,-0.46441 ,-4.55681 
411 ,82.3154 ,1.81705 ,-0.48152 ,-4.72470 
412 ,82.5075 ,1.81899 ,-0.48494 ,-4.75828 
413 ,82.6996 ,1.82091 ,-0.49521 ,-4.85901 
414 ,82.8913 ,1.82278 ,-0.51917 ,-5.09406 
415 ,83.0837 ,1.82470 ,-0.51232 ,-5.02690 
416 ,83.3401 ,1.82716 ,-0.52259 ,-5.12764 
417 ,83.5480 ,1.82936 ,-0.53628 ,-5.26195 
418 ,83.7402 ,1.83130 ,-0.54997 ,-5.39626 
419 ,83.9322 ,1.83323 ,-0.56023 ,-5.49700 
420 ,84.1401 ,1.83528 ,-0.56365 ,-5.53058 
421 ,84.3320 ,1.83722 ,-0.58761 ,-5.76562 
422 ,84.5244 ,1.83916 ,-0.58077 ,-5.69847 
423 ,84.7164 ,1.84111 ,-0.60130 ,-5.89994 
424 ,84.9084 ,1.84302 ,-0.61156 ,-6.00067 
425 ,85.1001 ,1.84486 ,-0.62183 ,-6.10141 
426 ,85.2925 ,1.84681 ,-0.62183 ,-6.10141 
427 ,85.5006 ,1.84884 ,-0.63210 ,-6.20214 
428 ,85.6928 ,1.85080 ,-0.64921 ,-6.37003 
429 ,85.8848 ,1.85271 ,-0.63552 ,-6.23572 
430 ,86.0770 ,1.85471 ,-0.67316 ,-6.60508 
431 ,86.3009 ,1.85684 ,-0.67316 ,-6.60508 
432 ,86.5090 ,1.85898 ,-0.67316 ,-6.60508 
433 ,86.7012 ,1.86089 ,-0.70054 ,-6.87371 
434 ,86.9089 ,1.86296 ,-0.70396 ,-6.90729 
435 ,87.1010 ,1.86486 ,-0.70054 ,-6.87371 
436 ,87.2770 ,1.86676 ,-0.72107 ,-7.07518 
437 ,87.4854 ,1.86872 ,-0.72107 ,-7.07518 
438 ,87.6935 ,1.87082 ,-0.72792 ,-7.14233 
439 ,87.8857 ,1.87274 ,-0.73818 ,-7.24307 
440 ,88.0777 ,1.87474 ,-0.76898 ,-7.54527 
441 ,88.2698 ,1.87660 ,-0.75530 ,-7.41096 
442 ,88.4616 ,1.87847 ,-0.76898 ,-7.54527 
443 ,88.6540 ,1.88044 ,-0.79636 ,-7.81390 
444 ,88.8463 ,1.88235 ,-0.78610 ,-7.71317 
445 ,89.0382 ,1.88427 ,-0.79636 ,-7.81390 
446 ,89.2619 ,1.88638 ,-0.79978 ,-7.84748 
447 ,89.4539 ,1.88841 ,-0.81347 ,-7.98179 
448 ,89.6465 ,1.89039 ,-0.81689 ,-8.01537 
449 ,89.8542 ,1.89239 ,-0.85454 ,-8.38473 
450 ,90.0467 ,1.89437 ,-0.83058 ,-8.14968 
451 ,90.2546 ,1.89641 ,-0.85454 ,-8.38473 
452 ,90.4623 ,1.89848 ,-0.85454 ,-8.38473 
453 ,90.6549 ,1.90042 ,-0.87165 ,-8.55262 
454 ,90.8628 ,1.90249 ,-0.87507 ,-8.58620 
455 ,91.0551 ,1.90443 ,-0.90245 ,-8.85483 
456 ,91.2631 ,1.90650 ,-0.90245 ,-8.85483 
457 ,91.4711 ,1.90854 ,-0.89218 ,-8.75409 
458 ,91.6469 ,1.91049 ,-0.90929 ,-8.92198 
459 ,91.8392 ,1.91223 ,-0.92983 ,-9.12345 
460 ,92.0313 ,1.91419 ,-0.91614 ,-8.98914 
461 ,92.2075 ,1.91609 ,-0.93667 ,-9.19061 
462 ,92.3995 ,1.91785 ,-0.95036 ,-9.32492 
