Data stamp = , 30-04-2022 23:37:58 483

Calibration Values: 
Slope = , 26.54 , g/V 
Offset Voltage at no contact = , -0.501760 , V 

No , Time , Stage Position ,   Mass , Force 
   ,  (s) ,      (mm)      ,   (g)  , (mN)  

1 ,0.0000 ,0.99948 ,5.41145 ,53.09714 
2 ,0.2262 ,0.99958 ,5.41487 ,53.13072 
3 ,0.5628 ,1.00051 ,5.41145 ,53.09714 
4 ,0.7546 ,1.00203 ,5.40460 ,53.02998 
5 ,1.0110 ,1.00417 ,5.40118 ,52.99640 
6 ,1.2188 ,1.00640 ,5.41829 ,53.16429 
7 ,1.4107 ,1.00831 ,5.38749 ,52.86209 
8 ,1.6028 ,1.01022 ,5.37723 ,52.76135 
9 ,1.7948 ,1.01219 ,5.33274 ,52.32484 
10 ,1.9872 ,1.01408 ,5.32932 ,52.29126 
11 ,2.1954 ,1.01621 ,5.30536 ,52.05621 
12 ,2.4034 ,1.01825 ,5.29852 ,51.98905 
13 ,2.6113 ,1.02025 ,5.28141 ,51.82116 
14 ,2.8036 ,1.02226 ,5.24718 ,51.48538 
15 ,2.9957 ,1.02421 ,5.23692 ,51.38464 
16 ,3.1878 ,1.02613 ,5.20954 ,51.11602 
17 ,3.3795 ,1.02803 ,5.21296 ,51.14960 
18 ,3.5719 ,1.02997 ,5.17190 ,50.74666 
19 ,3.7636 ,1.03186 ,5.16848 ,50.71308 
20 ,4.0042 ,1.03412 ,5.13083 ,50.34372 
21 ,4.2122 ,1.03635 ,5.10688 ,50.10867 
22 ,4.4042 ,1.03823 ,5.10688 ,50.10867 
23 ,4.5963 ,1.04014 ,5.07950 ,49.84004 
24 ,4.7885 ,1.04208 ,5.05212 ,49.57142 
25 ,4.9805 ,1.04402 ,5.05897 ,49.63857 
26 ,5.1726 ,1.04599 ,5.02817 ,49.33637 
27 ,5.3645 ,1.04787 ,4.99394 ,49.00058 
28 ,5.5728 ,1.04988 ,4.96999 ,48.76554 
29 ,5.7648 ,1.05185 ,4.94603 ,48.53049 
30 ,5.9406 ,1.05374 ,4.95630 ,48.63122 
31 ,6.1491 ,1.05568 ,4.90497 ,48.12755 
32 ,6.3569 ,1.05779 ,4.91523 ,48.22828 
33 ,6.5651 ,1.05983 ,4.87759 ,47.85892 
34 ,6.7727 ,1.06183 ,4.87075 ,47.79177 
35 ,6.9810 ,1.06406 ,4.86048 ,47.69103 
36 ,7.1734 ,1.06588 ,4.83995 ,47.48956 
37 ,7.3650 ,1.06785 ,4.79546 ,47.05304 
38 ,7.5576 ,1.06971 ,4.79888 ,47.08662 
39 ,7.7497 ,1.07174 ,4.75439 ,46.65010 
40 ,7.9413 ,1.07359 ,4.75439 ,46.65010 
41 ,8.1494 ,1.07559 ,4.74070 ,46.51579 
42 ,8.3419 ,1.07764 ,4.72017 ,46.31432 
43 ,8.5498 ,1.07973 ,4.68937 ,46.01212 
44 ,8.7582 ,1.08173 ,4.69964 ,46.11285 
45 ,8.9500 ,1.08375 ,4.65857 ,45.70991 
46 ,9.1424 ,1.08565 ,4.64146 ,45.54202 
47 ,9.3499 ,1.08764 ,4.61408 ,45.27339 
48 ,9.5425 ,1.08967 ,4.60040 ,45.13908 
49 ,9.7506 ,1.09172 ,4.59013 ,45.03835 
50 ,9.9906 ,1.09404 ,4.56275 ,44.76972 
51 ,10.1987 ,1.09615 ,4.54906 ,44.63541 
52 ,10.4068 ,1.09822 ,4.51484 ,44.29962 
53 ,10.5989 ,1.10016 ,4.52169 ,44.36678 
54 ,10.7910 ,1.10210 ,4.49773 ,44.13173 
55 ,10.9828 ,1.10403 ,4.48404 ,43.99742 
56 ,11.1751 ,1.10596 ,4.45666 ,43.72879 
57 ,11.3671 ,1.10789 ,4.43271 ,43.49374 
58 ,11.5590 ,1.10978 ,4.42586 ,43.42659 
59 ,11.7674 ,1.11184 ,4.38822 ,43.05723 
60 ,11.9595 ,1.11381 ,4.39164 ,43.09080 
61 ,12.1676 ,1.11588 ,4.36084 ,42.78860 
62 ,12.3596 ,1.11784 ,4.35058 ,42.68786 
63 ,12.5517 ,1.11968 ,4.34031 ,42.58713 
64 ,12.7437 ,1.12157 ,4.31636 ,42.35208 
65 ,12.9519 ,1.12359 ,4.32320 ,42.41924 
66 ,13.1599 ,1.12576 ,4.28898 ,42.08345 
67 ,13.3680 ,1.12787 ,4.25133 ,41.71409 
68 ,13.5597 ,1.12974 ,4.25476 ,41.74767 
69 ,13.7522 ,1.13176 ,4.23765 ,41.57978 
70 ,13.9597 ,1.13379 ,4.21369 ,41.34473 
71 ,14.1843 ,1.13598 ,4.18974 ,41.10968 
72 ,14.3923 ,1.13812 ,4.17947 ,41.00895 
73 ,14.5843 ,1.13997 ,4.13840 ,40.60601 
74 ,14.7926 ,1.14207 ,4.14183 ,40.63959 
75 ,15.0005 ,1.14414 ,4.12814 ,40.50527 
76 ,15.1928 ,1.14609 ,4.10760 ,40.30380 
77 ,15.3849 ,1.14800 ,4.08023 ,40.03518 
78 ,15.5925 ,1.15010 ,4.06654 ,39.90087 
79 ,15.7845 ,1.15205 ,4.05285 ,39.76655 
80 ,15.9605 ,1.15390 ,4.05627 ,39.80013 
81 ,16.1532 ,1.15573 ,4.01863 ,39.43077 
82 ,16.3933 ,1.15810 ,4.00494 ,39.29646 
83 ,16.5853 ,1.16004 ,3.97756 ,39.02783 
84 ,16.7774 ,1.16195 ,3.98783 ,39.12856 
85 ,17.0014 ,1.16409 ,3.95018 ,38.75920 
86 ,17.2096 ,1.16621 ,3.93650 ,38.62489 
87 ,17.4017 ,1.16823 ,3.91596 ,38.42342 
88 ,17.5938 ,1.17016 ,3.90570 ,38.32268 
89 ,17.8019 ,1.17218 ,3.86463 ,37.91975 
90 ,17.9937 ,1.17408 ,3.87832 ,38.05406 
91 ,18.1859 ,1.17604 ,3.84067 ,37.68470 
92 ,18.3780 ,1.17795 ,3.84752 ,37.75185 
93 ,18.5858 ,1.18005 ,3.79961 ,37.28176 
94 ,18.7940 ,1.18200 ,3.79619 ,37.24818 
95 ,18.9860 ,1.18405 ,3.77223 ,37.01313 
96 ,19.1944 ,1.18604 ,3.76881 ,36.97955 
97 ,19.4025 ,1.18813 ,3.74143 ,36.71093 
98 ,19.5945 ,1.19008 ,3.72774 ,36.57661 
99 ,19.7866 ,1.19208 ,3.70037 ,36.30799 
100 ,19.9787 ,1.19396 ,3.69694 ,36.27441 
101 ,20.1709 ,1.19587 ,3.68325 ,36.14010 
102 ,20.3789 ,1.19797 ,3.65588 ,35.87147 
103 ,20.5709 ,1.19990 ,3.65930 ,35.90505 
104 ,20.7790 ,1.20189 ,3.62850 ,35.60284 
105 ,20.9713 ,1.20390 ,3.62850 ,35.60284 
106 ,21.1633 ,1.20578 ,3.58401 ,35.16632 
107 ,21.3712 ,1.20785 ,3.57717 ,35.09917 
108 ,21.5793 ,1.20987 ,3.56006 ,34.93128 
109 ,21.7714 ,1.21186 ,3.55321 ,34.86412 
110 ,22.0116 ,1.21426 ,3.51557 ,34.49476 
111 ,22.2037 ,1.21618 ,3.48819 ,34.22613 
112 ,22.4278 ,1.21841 ,3.49161 ,34.25971 
113 ,22.6519 ,1.22062 ,3.47450 ,34.09182 
114 ,22.8599 ,1.22274 ,3.45055 ,33.85677 
115 ,23.0516 ,1.22468 ,3.44370 ,33.78961 
116 ,23.2442 ,1.22658 ,3.40264 ,33.38667 
117 ,23.4520 ,1.22863 ,3.40948 ,33.45383 
118 ,23.6443 ,1.23057 ,3.37526 ,33.11805 
119 ,23.8363 ,1.23254 ,3.37526 ,33.11805 
120 ,24.0281 ,1.23446 ,3.35473 ,32.91658 
121 ,24.2202 ,1.23630 ,3.32393 ,32.61437 
122 ,24.4285 ,1.23844 ,3.33077 ,32.68153 
123 ,24.6366 ,1.24055 ,3.31024 ,32.48006 
124 ,24.8445 ,1.24257 ,3.26575 ,32.04354 
125 ,25.0368 ,1.24446 ,3.28628 ,32.24501 
126 ,25.2288 ,1.24653 ,3.23837 ,31.77492 
127 ,25.4209 ,1.24832 ,3.24864 ,31.87565 
128 ,25.6126 ,1.25023 ,3.22811 ,31.67418 
129 ,25.8051 ,1.25219 ,3.19731 ,31.37198 
130 ,25.9971 ,1.25415 ,3.19731 ,31.37198 
131 ,26.2053 ,1.25618 ,3.15966 ,31.00262 
132 ,26.3972 ,1.25806 ,3.15282 ,30.93546 
133 ,26.5893 ,1.26004 ,3.14940 ,30.90188 
134 ,26.7814 ,1.26194 ,3.11518 ,30.56610 
135 ,26.9736 ,1.26391 ,3.11518 ,30.56610 
136 ,27.1653 ,1.26579 ,3.08780 ,30.29747 
137 ,27.3737 ,1.26790 ,3.09122 ,30.33105 
138 ,27.5656 ,1.26976 ,3.04673 ,29.89453 
139 ,27.7574 ,1.27169 ,3.06042 ,30.02884 
140 ,27.9820 ,1.27399 ,3.01251 ,29.55875 
141 ,28.1900 ,1.27608 ,3.02278 ,29.65948 
142 ,28.3822 ,1.27791 ,3.00224 ,29.45801 
143 ,28.5901 ,1.28005 ,2.98513 ,29.29012 
144 ,28.7822 ,1.28196 ,2.94407 ,28.88718 
145 ,28.9742 ,1.28387 ,2.96118 ,29.05507 
146 ,29.1826 ,1.28596 ,2.92353 ,28.68571 
147 ,29.3743 ,1.28785 ,2.92696 ,28.71929 
148 ,29.5664 ,1.28973 ,2.89273 ,28.38351 
149 ,29.7585 ,1.29167 ,2.89616 ,28.41709 
150 ,29.9664 ,1.29373 ,2.85509 ,28.01415 
151 ,30.1587 ,1.29571 ,2.84482 ,27.91341 
152 ,30.3670 ,1.29773 ,2.83114 ,27.77910 
153 ,30.5588 ,1.29970 ,2.82087 ,27.67836 
154 ,30.7511 ,1.30167 ,2.81402 ,27.61121 
155 ,30.9431 ,1.30354 ,2.78322 ,27.30900 
156 ,31.1673 ,1.30568 ,2.76954 ,27.17469 
157 ,31.3755 ,1.30789 ,2.75585 ,27.04038 
158 ,31.5674 ,1.30977 ,2.73189 ,26.80533 
159 ,31.7595 ,1.31173 ,2.72163 ,26.70459 
160 ,31.9516 ,1.31362 ,2.72163 ,26.70459 
161 ,32.1431 ,1.31553 ,2.68398 ,26.33523 
162 ,32.3360 ,1.31744 ,2.69767 ,26.46954 
163 ,32.5440 ,1.31948 ,2.67714 ,26.26807 
164 ,32.7519 ,1.32160 ,2.65660 ,26.06661 
165 ,32.9440 ,1.32353 ,2.63265 ,25.83156 
166 ,33.1363 ,1.32543 ,2.63949 ,25.89871 
167 ,33.3283 ,1.32737 ,2.60185 ,25.52935 
168 ,33.5362 ,1.32944 ,2.59843 ,25.49577 
169 ,33.7124 ,1.33133 ,2.56078 ,25.12641 
170 ,33.9045 ,1.33315 ,2.55736 ,25.09283 
171 ,34.0964 ,1.33508 ,2.54367 ,24.95852 
172 ,34.2883 ,1.33693 ,2.53341 ,24.85779 
173 ,34.4807 ,1.33893 ,2.51972 ,24.72347 
174 ,34.6887 ,1.34101 ,2.50261 ,24.55558 
175 ,34.8810 ,1.34292 ,2.47523 ,24.28696 
176 ,35.0889 ,1.34496 ,2.46496 ,24.18622 
177 ,35.2811 ,1.34693 ,2.44443 ,23.98475 
178 ,35.4731 ,1.34888 ,2.44101 ,23.95117 
179 ,35.6652 ,1.35076 ,2.42048 ,23.74970 
180 ,35.8571 ,1.35261 ,2.41021 ,23.64897 
181 ,36.0654 ,1.35471 ,2.40336 ,23.58181 
182 ,36.2735 ,1.35688 ,2.38968 ,23.44750 
183 ,36.4652 ,1.35875 ,2.35203 ,23.07814 
184 ,36.6736 ,1.36082 ,2.36914 ,23.24603 
185 ,36.8816 ,1.36287 ,2.33492 ,22.91024 
186 ,37.0738 ,1.36486 ,2.33150 ,22.87667 
187 ,37.2659 ,1.36676 ,2.30412 ,22.60804 
188 ,37.4579 ,1.36870 ,2.28701 ,22.44015 
189 ,37.6660 ,1.37069 ,2.27674 ,22.33941 
190 ,37.8580 ,1.37262 ,2.26648 ,22.23868 
191 ,38.0661 ,1.37472 ,2.24594 ,22.03721 
192 ,38.2580 ,1.37668 ,2.22883 ,21.86932 
193 ,38.4660 ,1.37863 ,2.22199 ,21.80216 
194 ,38.6580 ,1.38064 ,2.20830 ,21.66785 
195 ,38.8825 ,1.38277 ,2.16723 ,21.26491 
196 ,39.0747 ,1.38482 ,2.17408 ,21.33206 
197 ,39.2666 ,1.38673 ,2.16381 ,21.23133 
198 ,39.4585 ,1.38866 ,2.14670 ,21.06344 
199 ,39.6665 ,1.39065 ,2.13644 ,20.96270 
200 ,39.8584 ,1.39264 ,2.12617 ,20.86197 
201 ,40.0510 ,1.39455 ,2.10564 ,20.66050 
202 ,40.2431 ,1.39651 ,2.07826 ,20.39187 
203 ,40.4350 ,1.39842 ,2.08168 ,20.42545 
204 ,40.6432 ,1.40039 ,2.05430 ,20.15682 
205 ,40.8355 ,1.40245 ,2.05430 ,20.15682 
206 ,41.0270 ,1.40440 ,2.01666 ,19.78746 
207 ,41.2353 ,1.40645 ,2.02350 ,19.85462 
208 ,41.4435 ,1.40849 ,1.99270 ,19.55241 
209 ,41.6354 ,1.41042 ,2.00982 ,19.72031 
210 ,41.8275 ,1.41236 ,1.98244 ,19.45168 
211 ,42.0352 ,1.41434 ,1.95848 ,19.21663 
212 ,42.2439 ,1.41642 ,1.96533 ,19.28379 
213 ,42.4357 ,1.41842 ,1.93111 ,18.94801 
214 ,42.6280 ,1.42034 ,1.91742 ,18.81369 
215 ,42.8516 ,1.42255 ,1.90715 ,18.71296 
216 ,43.0442 ,1.42447 ,1.87977 ,18.44433 
217 ,43.2681 ,1.42667 ,1.87977 ,18.44433 
218 ,43.4924 ,1.42886 ,1.86951 ,18.34360 
219 ,43.6843 ,1.43093 ,1.83528 ,18.00781 
220 ,43.8924 ,1.43295 ,1.83186 ,17.97423 
221 ,44.0847 ,1.43489 ,1.81133 ,17.77276 
222 ,44.2926 ,1.43700 ,1.81133 ,17.77276 
223 ,44.4848 ,1.43893 ,1.77711 ,17.43698 
224 ,44.6767 ,1.44081 ,1.77026 ,17.36983 
225 ,44.8849 ,1.44291 ,1.75657 ,17.23551 
226 ,45.0769 ,1.44486 ,1.74289 ,17.10120 
227 ,45.2688 ,1.44680 ,1.74631 ,17.13478 
228 ,45.4770 ,1.44883 ,1.71209 ,16.79899 
229 ,45.6852 ,1.45084 ,1.69498 ,16.63110 
230 ,45.8609 ,1.45278 ,1.69155 ,16.59752 
231 ,46.0534 ,1.45458 ,1.68129 ,16.49679 
232 ,46.2615 ,1.45664 ,1.65733 ,16.26174 
233 ,46.4530 ,1.45855 ,1.65049 ,16.19458 
234 ,46.6455 ,1.46056 ,1.63338 ,16.02669 
235 ,46.8537 ,1.46258 ,1.63680 ,16.06027 
236 ,47.0614 ,1.46470 ,1.60258 ,15.72449 
237 ,47.2378 ,1.46661 ,1.60258 ,15.72449 
238 ,47.4298 ,1.46839 ,1.59916 ,15.69091 
239 ,47.6215 ,1.47030 ,1.56493 ,15.35513 
240 ,47.8302 ,1.47223 ,1.57520 ,15.45586 
241 ,48.0384 ,1.47441 ,1.54440 ,15.15366 
242 ,48.2302 ,1.47636 ,1.54098 ,15.12008 
243 ,48.4222 ,1.47827 ,1.50676 ,14.78430 
244 ,48.6140 ,1.48015 ,1.52045 ,14.91861 
245 ,48.8065 ,1.48214 ,1.50676 ,14.78430 
246 ,49.0146 ,1.48426 ,1.50333 ,14.75072 
247 ,49.2226 ,1.48624 ,1.44858 ,14.21346 
248 ,49.4148 ,1.48821 ,1.45200 ,14.24704 
249 ,49.6228 ,1.49028 ,1.43489 ,14.07915 
250 ,49.8149 ,1.49220 ,1.43489 ,14.07915 
251 ,50.0230 ,1.49427 ,1.40409 ,13.77695 
252 ,50.2150 ,1.49617 ,1.39383 ,13.67621 
253 ,50.4071 ,1.49808 ,1.37671 ,13.50832 
254 ,50.5992 ,1.50000 ,1.35960 ,13.34043 
255 ,50.7909 ,1.50201 ,1.34591 ,13.20612 
256 ,50.9833 ,1.50383 ,1.32880 ,13.03822 
257 ,51.1752 ,1.50579 ,1.33565 ,13.10538 
258 ,51.3835 ,1.50784 ,1.32196 ,12.97107 
259 ,51.5756 ,1.50981 ,1.30827 ,12.83675 
260 ,51.7833 ,1.51184 ,1.28089 ,12.56813 
261 ,51.9758 ,1.51380 ,1.27063 ,12.46739 
262 ,52.1840 ,1.51587 ,1.25694 ,12.33308 
263 ,52.3920 ,1.51786 ,1.26036 ,12.36666 
264 ,52.6001 ,1.51992 ,1.22272 ,11.99730 
265 ,52.8081 ,1.52210 ,1.22614 ,12.03088 
266 ,53.0000 ,1.52405 ,1.19534 ,11.72867 
267 ,53.1923 ,1.52594 ,1.20903 ,11.86298 
268 ,53.3845 ,1.52782 ,1.17823 ,11.56078 
269 ,53.5763 ,1.52979 ,1.16796 ,11.46004 
270 ,53.7683 ,1.53175 ,1.14743 ,11.25857 
271 ,53.9764 ,1.53379 ,1.14401 ,11.22500 
272 ,54.1526 ,1.53567 ,1.13374 ,11.12426 
273 ,54.3448 ,1.53752 ,1.10636 ,10.85563 
274 ,54.5690 ,1.53959 ,1.10979 ,10.88921 
275 ,54.7609 ,1.54166 ,1.06530 ,10.45270 
276 ,54.9531 ,1.54352 ,1.08241 ,10.62059 
277 ,55.1608 ,1.54559 ,1.05845 ,10.38554 
278 ,55.3532 ,1.54752 ,1.05845 ,10.38554 
279 ,55.5612 ,1.54962 ,1.02081 ,10.01618 
280 ,55.7534 ,1.55154 ,1.03450 ,10.15049 
281 ,55.9454 ,1.55348 ,1.00370 ,9.84829 
282 ,56.1376 ,1.55540 ,0.99343 ,9.74755 
283 ,56.3455 ,1.55743 ,0.97290 ,9.54608 
284 ,56.5375 ,1.55935 ,0.97974 ,9.61324 
285 ,56.7297 ,1.56135 ,0.96605 ,9.47892 
286 ,56.9218 ,1.56323 ,0.93868 ,9.21030 
287 ,57.1298 ,1.56533 ,0.94552 ,9.27745 
288 ,57.3215 ,1.56735 ,0.92499 ,9.07598 
289 ,57.5141 ,1.56915 ,0.92157 ,9.04241 
290 ,57.7222 ,1.57122 ,0.88392 ,8.67305 
291 ,57.9300 ,1.57326 ,0.88050 ,8.63947 
292 ,58.1383 ,1.57537 ,0.86681 ,8.50515 
293 ,58.3459 ,1.57735 ,0.87023 ,8.53873 
294 ,58.5384 ,1.57936 ,0.83601 ,8.20295 
295 ,58.7464 ,1.58146 ,0.82917 ,8.13579 
296 ,58.9386 ,1.58340 ,0.81548 ,8.00148 
297 ,59.1467 ,1.58546 ,0.80863 ,7.93432 
298 ,59.3388 ,1.58742 ,0.78468 ,7.69927 
299 ,59.5310 ,1.58932 ,0.78810 ,7.73285 
300 ,59.7388 ,1.59137 ,0.76415 ,7.49780 
301 ,59.9470 ,1.59346 ,0.75730 ,7.43065 
302 ,60.1551 ,1.59550 ,0.74704 ,7.32991 
303 ,60.3472 ,1.59747 ,0.73335 ,7.19560 
304 ,60.5390 ,1.59939 ,0.71281 ,6.99413 
305 ,60.7153 ,1.60129 ,0.72308 ,7.09486 
306 ,60.9395 ,1.60324 ,0.68544 ,6.72550 
307 ,61.1315 ,1.60535 ,0.68201 ,6.69193 
308 ,61.3236 ,1.60720 ,0.64779 ,6.35614 
309 ,61.5313 ,1.60933 ,0.66490 ,6.52403 
310 ,61.7232 ,1.61118 ,0.63753 ,6.25541 
311 ,61.9153 ,1.61309 ,0.63753 ,6.25541 
312 ,62.0914 ,1.61504 ,0.62042 ,6.08752 
313 ,62.3000 ,1.61687 ,0.61015 ,5.98678 
314 ,62.5080 ,1.61902 ,0.59988 ,5.88605 
315 ,62.6998 ,1.62102 ,0.58277 ,5.71815 
316 ,62.8923 ,1.62293 ,0.58619 ,5.75173 
317 ,63.1161 ,1.62512 ,0.57251 ,5.61742 
318 ,63.3244 ,1.62726 ,0.55197 ,5.41595 
319 ,63.5160 ,1.62912 ,0.52117 ,5.11375 
320 ,63.7085 ,1.63108 ,0.54513 ,5.34879 
321 ,63.9001 ,1.63303 ,0.51091 ,5.01301 
322 ,64.0926 ,1.63488 ,0.50748 ,4.97943 
323 ,64.2847 ,1.63682 ,0.49380 ,4.84512 
324 ,64.4767 ,1.63873 ,0.48011 ,4.71081 
325 ,64.6688 ,1.64065 ,0.48011 ,4.71081 
326 ,64.8609 ,1.64258 ,0.45273 ,4.44218 
327 ,65.0691 ,1.64468 ,0.44931 ,4.40860 
328 ,65.2770 ,1.64675 ,0.42877 ,4.20713 
329 ,65.4693 ,1.64869 ,0.42535 ,4.17355 
330 ,65.6771 ,1.65073 ,0.39113 ,3.83777 
331 ,65.8695 ,1.65265 ,0.40824 ,4.00566 
332 ,66.0776 ,1.65475 ,0.37060 ,3.63630 
333 ,66.2857 ,1.65682 ,0.37744 ,3.70346 
334 ,66.4937 ,1.65890 ,0.36375 ,3.56914 
335 ,66.7018 ,1.66100 ,0.35006 ,3.43483 
336 ,66.8938 ,1.66291 ,0.33295 ,3.26694 
337 ,67.0856 ,1.66482 ,0.33295 ,3.26694 
338 ,67.3102 ,1.66695 ,0.31926 ,3.13263 
339 ,67.5181 ,1.66909 ,0.29531 ,2.89758 
340 ,67.7098 ,1.67110 ,0.30900 ,3.03189 
341 ,67.9022 ,1.67298 ,0.27135 ,2.66253 
342 ,68.0942 ,1.67489 ,0.27820 ,2.72969 
343 ,68.2702 ,1.67679 ,0.25424 ,2.49464 
344 ,68.4626 ,1.67857 ,0.24055 ,2.36032 
345 ,68.6707 ,1.68066 ,0.24740 ,2.42748 
346 ,68.8627 ,1.68257 ,0.23029 ,2.25959 
347 ,69.0547 ,1.68448 ,0.21318 ,2.09170 
348 ,69.2467 ,1.68645 ,0.19607 ,1.92381 
349 ,69.4709 ,1.68856 ,0.19607 ,1.92381 
350 ,69.6789 ,1.69075 ,0.18238 ,1.78949 
351 ,69.8709 ,1.69266 ,0.18580 ,1.82307 
352 ,70.1110 ,1.69496 ,0.16185 ,1.58802 
353 ,70.3031 ,1.69699 ,0.12762 ,1.25224 
354 ,70.4952 ,1.69887 ,0.13447 ,1.31940 
355 ,70.6874 ,1.70085 ,0.13105 ,1.28582 
356 ,70.8796 ,1.70272 ,0.12078 ,1.18508 
357 ,71.0714 ,1.70471 ,0.12420 ,1.21866 
358 ,71.2637 ,1.70658 ,0.08314 ,0.81572 
359 ,71.4554 ,1.70846 ,0.09340 ,0.91646 
360 ,71.6478 ,1.71046 ,0.07971 ,0.78214 
361 ,71.8721 ,1.71254 ,0.06260 ,0.61425 
362 ,72.0641 ,1.71457 ,0.04891 ,0.47994 
363 ,72.2722 ,1.71665 ,0.05918 ,0.58067 
364 ,72.4642 ,1.71858 ,0.02496 ,0.24489 
365 ,72.6403 ,1.72047 ,0.02154 ,0.21131 
366 ,72.8325 ,1.72225 ,0.02496 ,0.24489 
367 ,73.0241 ,1.72417 ,0.00100 ,0.00984 
368 ,73.2326 ,1.72627 ,0.00443 ,0.04342 
369 ,73.4243 ,1.72828 ,-0.02295 ,-0.22520 
370 ,73.6323 ,1.73019 ,-0.01953 ,-0.19163 
371 ,73.8246 ,1.73225 ,-0.05375 ,-0.52741 
372 ,74.0328 ,1.73432 ,-0.03664 ,-0.35952 
373 ,74.2407 ,1.73637 ,-0.05717 ,-0.56099 
374 ,74.4327 ,1.73824 ,-0.06060 ,-0.59457 
375 ,74.6410 ,1.74032 ,-0.09482 ,-0.93035 
376 ,74.8331 ,1.74226 ,-0.07771 ,-0.76246 
377 ,75.0250 ,1.74417 ,-0.10166 ,-0.99751 
378 ,75.2173 ,1.74612 ,-0.11193 ,-1.09824 
379 ,75.4414 ,1.74822 ,-0.13246 ,-1.29971 
380 ,75.6335 ,1.75028 ,-0.12219 ,-1.19898 
381 ,75.8413 ,1.75233 ,-0.14615 ,-1.43402 
382 ,76.0334 ,1.75433 ,-0.14273 ,-1.40045 
383 ,76.2252 ,1.75628 ,-0.17011 ,-1.66907 
384 ,76.4173 ,1.75810 ,-0.16668 ,-1.63549 
385 ,76.6097 ,1.76003 ,-0.18722 ,-1.83696 
386 ,76.8339 ,1.76224 ,-0.18722 ,-1.83696 
387 ,77.0259 ,1.76415 ,-0.20090 ,-1.97128 
388 ,77.2181 ,1.76611 ,-0.21459 ,-2.10559 
389 ,77.4103 ,1.76804 ,-0.21802 ,-2.13917 
390 ,77.6181 ,1.77013 ,-0.24197 ,-2.37422 
391 ,77.8103 ,1.77199 ,-0.23855 ,-2.34064 
392 ,78.0020 ,1.77396 ,-0.25908 ,-2.54211 
393 ,78.1946 ,1.77587 ,-0.25566 ,-2.50853 
394 ,78.4024 ,1.77794 ,-0.26935 ,-2.64284 
395 ,78.5948 ,1.77988 ,-0.26593 ,-2.60926 
396 ,78.8505 ,1.78231 ,-0.28304 ,-2.77716 
397 ,79.0429 ,1.78430 ,-0.30699 ,-3.01220 
398 ,79.2349 ,1.78626 ,-0.29673 ,-2.91147 
399 ,79.4433 ,1.78830 ,-0.32068 ,-3.14652 
400 ,79.6351 ,1.79033 ,-0.32068 ,-3.14652 
401 ,79.8271 ,1.79214 ,-0.33437 ,-3.28083 
402 ,80.0192 ,1.79413 ,-0.36517 ,-3.58303 
403 ,80.2270 ,1.79618 ,-0.35832 ,-3.51588 
404 ,80.4194 ,1.79813 ,-0.37544 ,-3.68377 
405 ,80.6116 ,1.80004 ,-0.37886 ,-3.71735 
406 ,80.8036 ,1.80198 ,-0.39255 ,-3.85166 
407 ,80.9958 ,1.80386 ,-0.39939 ,-3.91882 
408 ,81.1879 ,1.80584 ,-0.41308 ,-4.05313 
409 ,81.3639 ,1.80769 ,-0.40966 ,-4.01955 
410 ,81.5561 ,1.80945 ,-0.41650 ,-4.08671 
411 ,81.7801 ,1.81161 ,-0.45757 ,-4.48965 
412 ,82.0040 ,1.81377 ,-0.43703 ,-4.28818 
413 ,82.2122 ,1.81604 ,-0.46441 ,-4.55681 
414 ,82.4038 ,1.81792 ,-0.46783 ,-4.59038 
415 ,82.5962 ,1.81985 ,-0.46441 ,-4.55681 
416 ,82.7885 ,1.82183 ,-0.47468 ,-4.65754 
417 ,82.9964 ,1.82387 ,-0.49179 ,-4.82543 
418 ,83.1885 ,1.82573 ,-0.49863 ,-4.89259 
419 ,83.3807 ,1.82773 ,-0.51232 ,-5.02690 
420 ,83.5728 ,1.82966 ,-0.51574 ,-5.06048 
421 ,83.7808 ,1.83171 ,-0.53628 ,-5.26195 
422 ,83.9727 ,1.83365 ,-0.52943 ,-5.19479 
423 ,84.1809 ,1.83557 ,-0.55339 ,-5.42984 
424 ,84.3889 ,1.83783 ,-0.57392 ,-5.63131 
425 ,84.5806 ,1.83965 ,-0.57392 ,-5.63131 
426 ,84.7732 ,1.84165 ,-0.57392 ,-5.63131 
427 ,84.9650 ,1.84356 ,-0.59445 ,-5.83278 
428 ,85.1735 ,1.84560 ,-0.58419 ,-5.73205 
429 ,85.3651 ,1.84755 ,-0.61841 ,-6.06783 
430 ,85.5571 ,1.84942 ,-0.61841 ,-6.06783 
431 ,85.7495 ,1.85139 ,-0.63210 ,-6.20214 
432 ,85.9577 ,1.85343 ,-0.63210 ,-6.20214 
433 ,86.1499 ,1.85541 ,-0.63894 ,-6.26930 
434 ,86.3422 ,1.85732 ,-0.65947 ,-6.47077 
435 ,86.5495 ,1.85938 ,-0.65263 ,-6.40361 
436 ,86.7416 ,1.86134 ,-0.67659 ,-6.63866 
437 ,86.9337 ,1.86327 ,-0.66632 ,-6.53793 
438 ,87.1421 ,1.86525 ,-0.69027 ,-6.77297 
439 ,87.3504 ,1.86725 ,-0.69712 ,-6.84013 
440 ,87.5584 ,1.86949 ,-0.70739 ,-6.94086 
441 ,87.7504 ,1.87141 ,-0.71423 ,-7.00802 
442 ,87.9425 ,1.87334 ,-0.73134 ,-7.17591 
443 ,88.1507 ,1.87539 ,-0.71081 ,-6.97444 
444 ,88.3588 ,1.87746 ,-0.74161 ,-7.27665 
445 ,88.5510 ,1.87942 ,-0.74161 ,-7.27665 
446 ,88.7431 ,1.88133 ,-0.77583 ,-7.61243 
447 ,88.9350 ,1.88325 ,-0.76214 ,-7.47812 
448 ,89.1270 ,1.88512 ,-0.78610 ,-7.71317 
449 ,89.3192 ,1.88708 ,-0.78610 ,-7.71317 
450 ,89.5270 ,1.88914 ,-0.81005 ,-7.94821 
451 ,89.7193 ,1.89105 ,-0.80321 ,-7.88106 
452 ,89.9113 ,1.89299 ,-0.80663 ,-7.91464 
453 ,90.1195 ,1.89501 ,-0.82374 ,-8.08253 
454 ,90.3276 ,1.89715 ,-0.84085 ,-8.25042 
455 ,90.5198 ,1.89911 ,-0.83401 ,-8.18326 
456 ,90.7117 ,1.90097 ,-0.83401 ,-8.18326 
457 ,91.0955 ,1.90385 ,-0.85796 ,-8.41831 
458 ,91.2879 ,1.90675 ,-0.87165 ,-8.55262 
459 ,91.4800 ,1.90865 ,-0.88534 ,-8.68694 
460 ,91.6881 ,1.91065 ,-0.87507 ,-8.58620 
461 ,91.8802 ,1.91269 ,-0.90929 ,-8.92198 
462 ,92.0883 ,1.91475 ,-0.91614 ,-8.98914 
463 ,92.2803 ,1.91666 ,-0.92983 ,-9.12345 
