Data stamp = , 02-05-2022 03:31:03 684

Calibration Values: 
Slope = , 26.54 , g/V 
Offset Voltage at no contact = , -0.501760 , V 

No , Time , Stage Position ,   Mass , Force 
   ,  (s) ,      (mm)      ,   (g)  , (mN)  

1 ,0.0000 ,0.99945 ,5.34985 ,52.49273 
2 ,0.2315 ,0.99949 ,5.34643 ,52.45915 
3 ,0.7920 ,1.00184 ,5.36354 ,52.62704 
4 ,1.0323 ,1.00437 ,5.34985 ,52.49273 
5 ,1.2404 ,1.00654 ,5.36696 ,52.66062 
6 ,1.4325 ,1.00847 ,5.33958 ,52.39199 
7 ,1.6405 ,1.01063 ,5.31563 ,52.15694 
8 ,1.8487 ,1.01265 ,5.28825 ,51.88832 
9 ,2.0565 ,1.01475 ,5.27114 ,51.72043 
10 ,2.2647 ,1.01681 ,5.26772 ,51.68685 
11 ,2.4728 ,1.01888 ,5.24034 ,51.41822 
12 ,2.6648 ,1.02089 ,5.22665 ,51.28391 
13 ,2.8569 ,1.02277 ,5.20954 ,51.11602 
14 ,3.0489 ,1.02469 ,5.18216 ,50.84739 
15 ,3.2893 ,1.02711 ,5.16163 ,50.64592 
16 ,3.4973 ,1.02917 ,5.13768 ,50.41087 
17 ,3.7052 ,1.03125 ,5.13083 ,50.34372 
18 ,3.8809 ,1.03314 ,5.10688 ,50.10867 
19 ,4.0896 ,1.03507 ,5.08977 ,49.94078 
20 ,4.2976 ,1.03720 ,5.06239 ,49.67215 
21 ,4.4898 ,1.03915 ,5.05554 ,49.60499 
22 ,4.6978 ,1.04118 ,5.02132 ,49.26921 
23 ,4.8901 ,1.04314 ,5.01106 ,49.16848 
24 ,5.1139 ,1.04526 ,4.97341 ,48.79911 
25 ,5.3219 ,1.04741 ,4.97341 ,48.79911 
26 ,5.5141 ,1.04931 ,4.94261 ,48.49691 
27 ,5.7059 ,1.05122 ,4.93919 ,48.46333 
28 ,5.8823 ,1.05310 ,4.90839 ,48.16113 
29 ,6.0739 ,1.05492 ,4.89128 ,47.99324 
30 ,6.2664 ,1.05684 ,4.88786 ,47.95966 
31 ,6.4743 ,1.05889 ,4.84679 ,47.55672 
32 ,6.6661 ,1.06084 ,4.84679 ,47.55672 
33 ,6.8583 ,1.06276 ,4.81599 ,47.25451 
34 ,7.0828 ,1.06485 ,4.80915 ,47.18736 
35 ,7.3065 ,1.06721 ,4.78519 ,46.95231 
36 ,7.5148 ,1.06929 ,4.75097 ,46.61653 
37 ,7.7069 ,1.07126 ,4.75097 ,46.61653 
38 ,7.8990 ,1.07315 ,4.71675 ,46.28074 
39 ,8.1070 ,1.07521 ,4.70990 ,46.21359 
40 ,8.2991 ,1.07716 ,4.69964 ,46.11285 
41 ,8.4911 ,1.07906 ,4.67568 ,45.87780 
42 ,8.6835 ,1.08101 ,4.66884 ,45.81065 
43 ,8.8917 ,1.08310 ,4.64146 ,45.54202 
44 ,9.0991 ,1.08519 ,4.61408 ,45.27339 
45 ,9.2911 ,1.08710 ,4.60040 ,45.13908 
46 ,9.4836 ,1.08901 ,4.59355 ,45.07192 
47 ,9.6918 ,1.09114 ,4.55933 ,44.73614 
48 ,9.8998 ,1.09320 ,4.54564 ,44.60183 
49 ,10.1078 ,1.09525 ,4.53537 ,44.50109 
50 ,10.3000 ,1.09718 ,4.50115 ,44.16531 
51 ,10.4919 ,1.09908 ,4.49089 ,44.06457 
52 ,10.7002 ,1.10118 ,4.48062 ,43.96384 
53 ,10.8922 ,1.10309 ,4.44298 ,43.59448 
54 ,11.0844 ,1.10500 ,4.44640 ,43.62806 
55 ,11.2924 ,1.10712 ,4.43271 ,43.49374 
56 ,11.4841 ,1.10903 ,4.40191 ,43.19154 
57 ,11.6925 ,1.11098 ,4.37795 ,42.95649 
58 ,11.9005 ,1.11319 ,4.36084 ,42.78860 
59 ,12.1245 ,1.11519 ,4.34031 ,42.58713 
60 ,12.3166 ,1.11729 ,4.32320 ,42.41924 
61 ,12.5248 ,1.11943 ,4.32320 ,42.41924 
62 ,12.7167 ,1.12131 ,4.29582 ,42.15061 
63 ,12.9247 ,1.12344 ,4.29240 ,42.11703 
64 ,13.1332 ,1.12548 ,4.25133 ,41.71409 
65 ,13.3251 ,1.12739 ,4.24449 ,41.64694 
66 ,13.5173 ,1.12936 ,4.21369 ,41.34473 
67 ,13.7089 ,1.13125 ,4.21027 ,41.31115 
68 ,13.9174 ,1.13334 ,4.18631 ,41.07611 
69 ,14.1254 ,1.13542 ,4.17947 ,41.00895 
70 ,14.3176 ,1.13735 ,4.14525 ,40.67317 
71 ,14.5253 ,1.13940 ,4.14525 ,40.67317 
72 ,14.7178 ,1.14134 ,4.11103 ,40.33738 
73 ,14.9256 ,1.14344 ,4.11445 ,40.37096 
74 ,15.1337 ,1.14542 ,4.07680 ,40.00160 
75 ,15.3418 ,1.14748 ,4.06996 ,39.93444 
76 ,15.5499 ,1.14965 ,4.03232 ,39.56508 
77 ,15.7419 ,1.15160 ,4.03916 ,39.63224 
78 ,15.9496 ,1.15371 ,4.01863 ,39.43077 
79 ,16.1422 ,1.15552 ,3.99809 ,39.22930 
80 ,16.3343 ,1.15746 ,3.96387 ,38.89352 
81 ,16.5263 ,1.15941 ,3.97414 ,38.99425 
82 ,16.7344 ,1.16151 ,3.93992 ,38.65847 
83 ,16.9265 ,1.16344 ,3.92281 ,38.49058 
84 ,17.1346 ,1.16545 ,3.90227 ,38.28911 
85 ,17.3425 ,1.16759 ,3.90570 ,38.32268 
86 ,17.5348 ,1.16953 ,3.86805 ,37.95332 
87 ,17.7266 ,1.17139 ,3.87147 ,37.98690 
88 ,17.9190 ,1.17335 ,3.84752 ,37.75185 
89 ,18.1265 ,1.17539 ,3.83383 ,37.61754 
90 ,18.3189 ,1.17734 ,3.79961 ,37.28176 
91 ,18.5110 ,1.17924 ,3.79961 ,37.28176 
92 ,18.7033 ,1.18120 ,3.78250 ,37.11387 
93 ,18.8952 ,1.18316 ,3.74143 ,36.71093 
94 ,19.1035 ,1.18517 ,3.74828 ,36.77808 
95 ,19.4236 ,1.18778 ,3.70037 ,36.30799 
96 ,19.6316 ,1.19049 ,3.69352 ,36.24083 
97 ,19.8237 ,1.19240 ,3.67641 ,36.07294 
98 ,20.0157 ,1.19426 ,3.65246 ,35.83789 
99 ,20.2079 ,1.19622 ,3.65588 ,35.87147 
100 ,20.4157 ,1.19829 ,3.61823 ,35.50211 
101 ,20.6080 ,1.20020 ,3.62508 ,35.56926 
102 ,20.8159 ,1.20227 ,3.58401 ,35.16632 
103 ,21.0081 ,1.20425 ,3.57717 ,35.09917 
104 ,21.2325 ,1.20633 ,3.55663 ,34.89770 
105 ,21.4241 ,1.20837 ,3.54637 ,34.79696 
106 ,21.6165 ,1.21030 ,3.51215 ,34.46118 
107 ,21.8244 ,1.21237 ,3.50530 ,34.39402 
108 ,22.0166 ,1.21430 ,3.49504 ,34.29329 
109 ,22.2407 ,1.21643 ,3.48477 ,34.19255 
110 ,22.4165 ,1.21843 ,3.45739 ,33.92393 
111 ,22.6246 ,1.22041 ,3.44713 ,33.82319 
112 ,22.8328 ,1.22242 ,3.41975 ,33.55457 
113 ,23.0249 ,1.22430 ,3.41975 ,33.55457 
114 ,23.2331 ,1.22642 ,3.37868 ,33.15163 
115 ,23.4250 ,1.22836 ,3.38210 ,33.18520 
116 ,23.6168 ,1.23038 ,3.35130 ,32.88300 
117 ,23.8094 ,1.23223 ,3.33419 ,32.71511 
118 ,24.0014 ,1.23413 ,3.32051 ,32.58080 
119 ,24.1934 ,1.23599 ,3.29997 ,32.37933 
120 ,24.4016 ,1.23812 ,3.29313 ,32.31217 
121 ,24.5937 ,1.24007 ,3.26233 ,32.00996 
122 ,24.8017 ,1.24211 ,3.25206 ,31.90923 
123 ,25.0098 ,1.24420 ,3.23495 ,31.74134 
124 ,25.2020 ,1.24615 ,3.23153 ,31.70776 
125 ,25.3941 ,1.24802 ,3.20073 ,31.40555 
126 ,25.5859 ,1.24999 ,3.19731 ,31.37198 
127 ,25.7778 ,1.25192 ,3.18362 ,31.23766 
128 ,25.9703 ,1.25380 ,3.14940 ,30.90188 
129 ,26.1783 ,1.25586 ,3.14255 ,30.83472 
130 ,26.3867 ,1.25786 ,3.12886 ,30.70041 
131 ,26.5944 ,1.26004 ,3.09464 ,30.36463 
132 ,26.7865 ,1.26197 ,3.10833 ,30.49894 
133 ,26.9785 ,1.26392 ,3.07411 ,30.16316 
134 ,27.2027 ,1.26600 ,3.08095 ,30.23031 
135 ,27.3944 ,1.26804 ,3.04331 ,29.86095 
136 ,27.6030 ,1.27000 ,3.03647 ,29.79380 
137 ,27.7951 ,1.27208 ,3.00224 ,29.45801 
138 ,27.9867 ,1.27401 ,2.99198 ,29.35728 
139 ,28.1794 ,1.27594 ,2.97829 ,29.22297 
140 ,28.3873 ,1.27800 ,2.97487 ,29.18939 
141 ,28.5953 ,1.27998 ,2.92353 ,28.68571 
142 ,28.7875 ,1.28199 ,2.93038 ,28.75287 
143 ,28.9952 ,1.28400 ,2.90642 ,28.51782 
144 ,29.1877 ,1.28594 ,2.90300 ,28.48424 
145 ,29.3957 ,1.28807 ,2.86536 ,28.11488 
146 ,29.5878 ,1.28995 ,2.86878 ,28.14846 
147 ,29.7800 ,1.29192 ,2.85851 ,28.04772 
148 ,29.9879 ,1.29397 ,2.83114 ,27.77910 
149 ,30.1796 ,1.29600 ,2.81060 ,27.57763 
150 ,30.3884 ,1.29790 ,2.80034 ,27.47689 
151 ,30.5961 ,1.30005 ,2.78322 ,27.30900 
152 ,30.8043 ,1.30212 ,2.78322 ,27.30900 
153 ,31.0124 ,1.30424 ,2.73874 ,26.87248 
154 ,31.2203 ,1.30615 ,2.74558 ,26.93964 
155 ,31.4606 ,1.30858 ,2.72505 ,26.73817 
156 ,31.6526 ,1.31072 ,2.70452 ,26.53670 
157 ,31.8764 ,1.31273 ,2.67714 ,26.26807 
158 ,32.0689 ,1.31476 ,2.66345 ,26.13376 
159 ,32.2609 ,1.31670 ,2.65660 ,26.06661 
160 ,32.4530 ,1.31856 ,2.62581 ,25.76440 
161 ,32.6451 ,1.32049 ,2.63265 ,25.83156 
162 ,32.8532 ,1.32259 ,2.59501 ,25.46220 
163 ,33.0450 ,1.32457 ,2.60185 ,25.52935 
164 ,33.2374 ,1.32648 ,2.56763 ,25.19357 
165 ,33.4611 ,1.32864 ,2.56078 ,25.12641 
166 ,33.6696 ,1.33069 ,2.53683 ,24.89136 
167 ,33.8936 ,1.33291 ,2.52998 ,24.82421 
168 ,34.1017 ,1.33514 ,2.52314 ,24.75705 
169 ,34.2937 ,1.33705 ,2.48892 ,24.42127 
170 ,34.5018 ,1.33907 ,2.48207 ,24.35411 
171 ,34.6939 ,1.34101 ,2.45812 ,24.11906 
172 ,34.9020 ,1.34306 ,2.45812 ,24.11906 
173 ,35.0939 ,1.34505 ,2.42048 ,23.74970 
174 ,35.3021 ,1.34706 ,2.43416 ,23.88402 
175 ,35.4941 ,1.34900 ,2.39994 ,23.54823 
176 ,35.7018 ,1.35101 ,2.39994 ,23.54823 
177 ,35.8946 ,1.35301 ,2.36572 ,23.21245 
178 ,36.0866 ,1.35491 ,2.35888 ,23.14529 
179 ,36.3267 ,1.35739 ,2.33492 ,22.91024 
180 ,36.5345 ,1.35942 ,2.32123 ,22.77593 
181 ,36.7264 ,1.36131 ,2.30070 ,22.57446 
182 ,36.9189 ,1.36330 ,2.29728 ,22.54088 
183 ,37.1269 ,1.36535 ,2.28359 ,22.40657 
184 ,37.3347 ,1.36744 ,2.26306 ,22.20510 
185 ,37.5271 ,1.36936 ,2.24937 ,22.07079 
186 ,37.7192 ,1.37128 ,2.23568 ,21.93647 
187 ,37.9108 ,1.37318 ,2.22199 ,21.80216 
188 ,38.1033 ,1.37509 ,2.21515 ,21.73500 
189 ,38.3114 ,1.37719 ,2.18435 ,21.43280 
190 ,38.5035 ,1.37911 ,2.18777 ,21.46638 
191 ,38.6950 ,1.38102 ,2.15355 ,21.13059 
192 ,38.8878 ,1.38290 ,2.14670 ,21.06344 
193 ,39.0796 ,1.38491 ,2.13986 ,20.99628 
194 ,39.3037 ,1.38711 ,2.11590 ,20.76123 
195 ,39.5119 ,1.38921 ,2.09879 ,20.59334 
196 ,39.7038 ,1.39112 ,2.09537 ,20.55976 
197 ,39.8959 ,1.39302 ,2.06115 ,20.22398 
198 ,40.0876 ,1.39494 ,2.06115 ,20.22398 
199 ,40.2803 ,1.39686 ,2.05773 ,20.19040 
200 ,40.4722 ,1.39877 ,2.02350 ,19.85462 
201 ,40.6642 ,1.40068 ,2.02008 ,19.82104 
202 ,40.8563 ,1.40261 ,1.99955 ,19.61957 
203 ,41.0645 ,1.40472 ,2.00297 ,19.65315 
204 ,41.2565 ,1.40663 ,1.96533 ,19.28379 
205 ,41.4646 ,1.40868 ,1.97217 ,19.35094 
206 ,41.6564 ,1.41061 ,1.93795 ,19.01516 
207 ,41.8647 ,1.41269 ,1.93111 ,18.94801 
208 ,42.0567 ,1.41465 ,1.91742 ,18.81369 
209 ,42.2806 ,1.41680 ,1.91057 ,18.74654 
210 ,42.4730 ,1.41878 ,1.88319 ,18.47791 
211 ,42.6649 ,1.42071 ,1.88662 ,18.51149 
212 ,42.8569 ,1.42259 ,1.86266 ,18.27644 
213 ,43.0652 ,1.42469 ,1.85240 ,18.17570 
214 ,43.2572 ,1.42663 ,1.82502 ,17.90708 
215 ,43.4331 ,1.42846 ,1.80106 ,17.67203 
216 ,43.6252 ,1.43029 ,1.79422 ,17.60487 
217 ,43.8335 ,1.43235 ,1.78395 ,17.50414 
218 ,44.0255 ,1.43428 ,1.78395 ,17.50414 
219 ,44.2336 ,1.43638 ,1.75315 ,17.20193 
220 ,44.4255 ,1.43826 ,1.73946 ,17.06762 
221 ,44.6339 ,1.44037 ,1.72235 ,16.89973 
222 ,44.8419 ,1.44247 ,1.71893 ,16.86615 
223 ,45.0339 ,1.44439 ,1.69498 ,16.63110 
224 ,45.2260 ,1.44627 ,1.68129 ,16.49679 
225 ,45.4183 ,1.44821 ,1.68129 ,16.49679 
226 ,45.5938 ,1.45008 ,1.64364 ,16.12743 
227 ,45.7864 ,1.45193 ,1.64022 ,16.09385 
228 ,45.9944 ,1.45396 ,1.62995 ,15.99311 
229 ,46.1867 ,1.45588 ,1.62653 ,15.95954 
230 ,46.3945 ,1.45793 ,1.60600 ,15.75807 
231 ,46.5865 ,1.45990 ,1.59231 ,15.62375 
232 ,46.7946 ,1.46197 ,1.57862 ,15.48944 
233 ,47.0027 ,1.46406 ,1.56836 ,15.38871 
234 ,47.2109 ,1.46613 ,1.54098 ,15.12008 
235 ,47.4029 ,1.46806 ,1.54440 ,15.15366 
236 ,47.5948 ,1.47003 ,1.52387 ,14.95219 
237 ,47.8025 ,1.47204 ,1.53413 ,15.05292 
238 ,47.9949 ,1.47392 ,1.50333 ,14.75072 
239 ,48.1708 ,1.47583 ,1.47596 ,14.48209 
240 ,48.3634 ,1.47763 ,1.48280 ,14.54925 
241 ,48.5714 ,1.47970 ,1.45200 ,14.24704 
242 ,48.7635 ,1.48165 ,1.45542 ,14.28062 
243 ,48.9554 ,1.48357 ,1.41778 ,13.91126 
244 ,49.1474 ,1.48545 ,1.41094 ,13.84410 
245 ,49.3397 ,1.48741 ,1.40751 ,13.81053 
246 ,49.5317 ,1.48930 ,1.38356 ,13.57548 
247 ,49.7238 ,1.49124 ,1.38698 ,13.60906 
248 ,49.9157 ,1.49321 ,1.35960 ,13.34043 
249 ,50.1240 ,1.49532 ,1.34934 ,13.23969 
250 ,50.3321 ,1.49732 ,1.33565 ,13.10538 
251 ,50.5398 ,1.49949 ,1.33565 ,13.10538 
252 ,50.7318 ,1.50131 ,1.30827 ,12.83675 
253 ,50.9404 ,1.50332 ,1.30143 ,12.76960 
254 ,51.1321 ,1.50531 ,1.28774 ,12.63528 
255 ,51.3564 ,1.50758 ,1.27747 ,12.53455 
256 ,51.5647 ,1.50966 ,1.24667 ,12.23235 
257 ,51.7567 ,1.51157 ,1.24667 ,12.23235 
258 ,51.9486 ,1.51348 ,1.21929 ,11.96372 
259 ,52.1245 ,1.51539 ,1.22614 ,12.03088 
260 ,52.3168 ,1.51723 ,1.21245 ,11.89656 
261 ,52.5248 ,1.51925 ,1.19192 ,11.69509 
262 ,52.7170 ,1.52113 ,1.17823 ,11.56078 
263 ,52.8932 ,1.52307 ,1.16112 ,11.39289 
264 ,53.0850 ,1.52485 ,1.15427 ,11.32573 
265 ,53.2929 ,1.52689 ,1.14058 ,11.19142 
266 ,53.4850 ,1.52883 ,1.12690 ,11.05710 
267 ,53.6930 ,1.53087 ,1.12005 ,10.98995 
268 ,53.8850 ,1.53285 ,1.09952 ,10.78848 
269 ,54.0938 ,1.53481 ,1.09952 ,10.78848 
270 ,54.3174 ,1.53709 ,1.09267 ,10.72132 
271 ,54.5255 ,1.53924 ,1.05503 ,10.35196 
272 ,54.7338 ,1.54128 ,1.05161 ,10.31838 
273 ,54.9256 ,1.54325 ,1.02423 ,10.04976 
274 ,55.1181 ,1.54517 ,1.02765 ,10.08333 
275 ,55.3261 ,1.54727 ,1.00370 ,9.84829 
276 ,55.5017 ,1.54913 ,1.00028 ,9.81471 
277 ,55.6944 ,1.55097 ,0.99001 ,9.71397 
278 ,55.9023 ,1.55300 ,0.96605 ,9.47892 
279 ,56.1264 ,1.55521 ,0.94552 ,9.27745 
280 ,56.3500 ,1.55744 ,0.94552 ,9.27745 
281 ,56.5423 ,1.55941 ,0.93525 ,9.17672 
282 ,56.7344 ,1.56136 ,0.92157 ,9.04241 
283 ,56.9268 ,1.56326 ,0.90788 ,8.90809 
284 ,57.1348 ,1.56530 ,0.90103 ,8.84094 
285 ,57.3270 ,1.56725 ,0.87023 ,8.53873 
286 ,57.5192 ,1.56918 ,0.87366 ,8.57231 
287 ,57.7107 ,1.57122 ,0.85312 ,8.37084 
288 ,57.9193 ,1.57308 ,0.83943 ,8.23653 
289 ,58.1272 ,1.57525 ,0.81890 ,8.03506 
290 ,58.3195 ,1.57716 ,0.80179 ,7.86717 
291 ,58.5115 ,1.57906 ,0.81548 ,8.00148 
292 ,58.7036 ,1.58098 ,0.78126 ,7.66570 
293 ,58.9115 ,1.58308 ,0.78126 ,7.66570 
294 ,59.1195 ,1.58518 ,0.75730 ,7.43065 
295 ,59.3437 ,1.58729 ,0.76072 ,7.46423 
296 ,59.5355 ,1.58932 ,0.75046 ,7.36349 
297 ,59.7276 ,1.59127 ,0.72308 ,7.09486 
298 ,59.9197 ,1.59314 ,0.71966 ,7.06129 
299 ,60.1118 ,1.59518 ,0.70597 ,6.92697 
300 ,60.3358 ,1.59734 ,0.70597 ,6.92697 
301 ,60.5279 ,1.59923 ,0.68201 ,6.69193 
302 ,60.7201 ,1.60117 ,0.66148 ,6.49046 
303 ,60.9121 ,1.60311 ,0.66833 ,6.55761 
304 ,61.1042 ,1.60506 ,0.64437 ,6.32256 
305 ,61.2962 ,1.60691 ,0.64095 ,6.28899 
306 ,61.4884 ,1.60885 ,0.62384 ,6.12109 
307 ,61.6805 ,1.61079 ,0.61015 ,5.98678 
308 ,61.8725 ,1.61268 ,0.61357 ,6.02036 
309 ,62.0645 ,1.61462 ,0.57935 ,5.68458 
310 ,62.2726 ,1.61666 ,0.58962 ,5.78531 
311 ,62.4647 ,1.61863 ,0.55882 ,5.48311 
312 ,62.6568 ,1.62053 ,0.56566 ,5.55026 
313 ,62.8489 ,1.62245 ,0.52802 ,5.18090 
314 ,63.0410 ,1.62436 ,0.52459 ,5.14732 
315 ,63.2650 ,1.62647 ,0.53828 ,5.28164 
316 ,63.4572 ,1.62854 ,0.51775 ,5.08017 
317 ,63.6493 ,1.63047 ,0.50064 ,4.91228 
318 ,63.8414 ,1.63236 ,0.47326 ,4.64365 
319 ,64.0174 ,1.63427 ,0.48353 ,4.74438 
320 ,64.2099 ,1.63606 ,0.48353 ,4.74438 
321 ,64.4174 ,1.63815 ,0.44931 ,4.40860 
322 ,64.6100 ,1.64007 ,0.45273 ,4.44218 
323 ,64.8018 ,1.64201 ,0.41509 ,4.07282 
324 ,65.0102 ,1.64404 ,0.42193 ,4.13997 
325 ,65.2022 ,1.64600 ,0.40824 ,4.00566 
326 ,65.4099 ,1.64804 ,0.40824 ,4.00566 
327 ,65.6021 ,1.65000 ,0.38086 ,3.73703 
328 ,65.7946 ,1.65192 ,0.39113 ,3.83777 
329 ,65.9862 ,1.65380 ,0.37402 ,3.66988 
330 ,66.1783 ,1.65574 ,0.35691 ,3.50199 
331 ,66.3704 ,1.65765 ,0.36033 ,3.53557 
332 ,66.5628 ,1.65953 ,0.32269 ,3.16620 
333 ,66.7709 ,1.66166 ,0.33295 ,3.26694 
334 ,66.9630 ,1.66357 ,0.30215 ,2.96473 
335 ,67.1705 ,1.66564 ,0.30558 ,2.99831 
336 ,67.3631 ,1.66756 ,0.28847 ,2.83042 
337 ,67.5547 ,1.66962 ,0.29189 ,2.86400 
338 ,67.7472 ,1.67142 ,0.27478 ,2.69611 
339 ,67.9552 ,1.67351 ,0.24398 ,2.39390 
340 ,68.1471 ,1.67543 ,0.25767 ,2.52822 
341 ,68.3396 ,1.67734 ,0.22344 ,2.19243 
342 ,68.5476 ,1.67945 ,0.23371 ,2.29317 
343 ,68.7716 ,1.68166 ,0.22002 ,2.15885 
344 ,68.9800 ,1.68375 ,0.18922 ,1.85665 
345 ,69.1554 ,1.68563 ,0.19949 ,1.95738 
346 ,69.3478 ,1.68740 ,0.18922 ,1.85665 
347 ,69.5559 ,1.68938 ,0.16527 ,1.62160 
348 ,69.7479 ,1.69144 ,0.15842 ,1.55445 
349 ,69.9560 ,1.69349 ,0.13105 ,1.28582 
350 ,70.1642 ,1.69553 ,0.13789 ,1.35298 
351 ,70.3562 ,1.69747 ,0.12078 ,1.18508 
352 ,70.5484 ,1.69947 ,0.12762 ,1.25224 
353 ,70.7564 ,1.70149 ,0.09340 ,0.91646 
354 ,70.9323 ,1.70337 ,0.10367 ,1.01719 
355 ,71.1247 ,1.70519 ,0.07971 ,0.78214 
356 ,71.3327 ,1.70725 ,0.07629 ,0.74857 
357 ,71.5409 ,1.70938 ,0.05234 ,0.51352 
358 ,71.7488 ,1.71133 ,0.06602 ,0.64783 
359 ,71.9566 ,1.71347 ,0.03522 ,0.34563 
360 ,72.1486 ,1.71544 ,0.03865 ,0.37920 
361 ,72.3895 ,1.71780 ,0.01811 ,0.17773 
362 ,72.5972 ,1.71990 ,-0.00242 ,-0.02373 
363 ,72.7894 ,1.72183 ,0.01127 ,0.11058 
364 ,72.9812 ,1.72376 ,-0.02637 ,-0.25878 
365 ,73.1570 ,1.72562 ,-0.01269 ,-0.12447 
366 ,73.3655 ,1.72747 ,-0.03322 ,-0.32594 
367 ,73.5576 ,1.72949 ,-0.05375 ,-0.52741 
368 ,73.7657 ,1.73152 ,-0.05375 ,-0.52741 
369 ,73.9578 ,1.73354 ,-0.07771 ,-0.76246 
370 ,74.1494 ,1.73554 ,-0.06402 ,-0.62814 
371 ,74.3580 ,1.73747 ,-0.09140 ,-0.89677 
372 ,74.5659 ,1.73953 ,-0.08455 ,-0.82961 
373 ,74.7582 ,1.74153 ,-0.11535 ,-1.13182 
374 ,74.9502 ,1.74340 ,-0.11877 ,-1.16540 
375 ,75.1421 ,1.74534 ,-0.12219 ,-1.19898 
376 ,75.3660 ,1.74754 ,-0.13931 ,-1.36687 
377 ,75.5905 ,1.74969 ,-0.15299 ,-1.50118 
378 ,75.7826 ,1.75176 ,-0.15984 ,-1.56834 
379 ,75.9906 ,1.75383 ,-0.15642 ,-1.53476 
380 ,76.1827 ,1.75577 ,-0.18379 ,-1.80338 
381 ,76.3584 ,1.75761 ,-0.20433 ,-2.00485 
382 ,76.5508 ,1.75942 ,-0.18379 ,-1.80338 
383 ,76.7588 ,1.76153 ,-0.21117 ,-2.07201 
384 ,76.9670 ,1.76351 ,-0.20433 ,-2.00485 
385 ,77.1746 ,1.76564 ,-0.23170 ,-2.27348 
386 ,77.3669 ,1.76755 ,-0.22486 ,-2.20632 
387 ,77.5430 ,1.76947 ,-0.26250 ,-2.57569 
388 ,77.7352 ,1.77121 ,-0.25908 ,-2.54211 
389 ,77.9271 ,1.77320 ,-0.26593 ,-2.60926 
390 ,78.1353 ,1.77523 ,-0.29330 ,-2.87789 
391 ,78.3273 ,1.77714 ,-0.26935 ,-2.64284 
392 ,78.5197 ,1.77912 ,-0.30357 ,-2.97863 
393 ,78.7278 ,1.78121 ,-0.30015 ,-2.94505 
394 ,78.9353 ,1.78323 ,-0.32752 ,-3.21367 
395 ,79.1279 ,1.78511 ,-0.31384 ,-3.07936 
396 ,79.3199 ,1.78712 ,-0.34121 ,-3.34799 
397 ,79.5278 ,1.78916 ,-0.34121 ,-3.34799 
398 ,79.7519 ,1.79119 ,-0.36175 ,-3.54946 
399 ,79.9601 ,1.79352 ,-0.37544 ,-3.68377 
400 ,80.1518 ,1.79540 ,-0.37886 ,-3.71735 
401 ,80.3441 ,1.79741 ,-0.37886 ,-3.71735 
402 ,80.5522 ,1.79941 ,-0.39939 ,-3.91882 
403 ,80.7601 ,1.80147 ,-0.40623 ,-3.98597 
404 ,80.9685 ,1.80351 ,-0.41992 ,-4.12029 
405 ,81.1766 ,1.80561 ,-0.44046 ,-4.32176 
406 ,81.3687 ,1.80754 ,-0.42335 ,-4.15387 
407 ,81.5768 ,1.80958 ,-0.46441 ,-4.55681 
408 ,81.7688 ,1.81157 ,-0.44730 ,-4.38891 
409 ,81.9768 ,1.81368 ,-0.46441 ,-4.55681 
410 ,82.1689 ,1.81556 ,-0.46441 ,-4.55681 
411 ,82.3607 ,1.81754 ,-0.48837 ,-4.79185 
412 ,82.5531 ,1.81938 ,-0.50548 ,-4.95975 
413 ,82.7452 ,1.82139 ,-0.49521 ,-4.85901 
414 ,82.9370 ,1.82326 ,-0.50548 ,-4.95975 
415 ,83.1453 ,1.82530 ,-0.50548 ,-4.95975 
416 ,83.3533 ,1.82743 ,-0.52943 ,-5.19479 
417 ,83.5454 ,1.82935 ,-0.52943 ,-5.19479 
418 ,83.7536 ,1.83139 ,-0.55339 ,-5.42984 
419 ,83.9454 ,1.83331 ,-0.54654 ,-5.36268 
420 ,84.1377 ,1.83522 ,-0.57050 ,-5.59773 
421 ,84.3779 ,1.83770 ,-0.58419 ,-5.73205 
422 ,84.5860 ,1.83971 ,-0.57392 ,-5.63131 
423 ,84.7781 ,1.84162 ,-0.60130 ,-5.89994 
424 ,84.9862 ,1.84371 ,-0.59788 ,-5.86636 
425 ,85.1618 ,1.84562 ,-0.62183 ,-6.10141 
426 ,85.3542 ,1.84741 ,-0.63210 ,-6.20214 
427 ,85.5624 ,1.84949 ,-0.61841 ,-6.06783 
428 ,85.7544 ,1.85140 ,-0.64921 ,-6.37003 
429 ,85.9625 ,1.85347 ,-0.64921 ,-6.37003 
430 ,86.1545 ,1.85545 ,-0.65263 ,-6.40361 
431 ,86.3626 ,1.85747 ,-0.65947 ,-6.47077 
432 ,86.5546 ,1.85939 ,-0.68343 ,-6.70582 
433 ,86.7468 ,1.86134 ,-0.68001 ,-6.67224 
434 ,86.9549 ,1.86341 ,-0.70396 ,-6.90729 
435 ,87.1467 ,1.86531 ,-0.68685 ,-6.73940 
436 ,87.3547 ,1.86752 ,-0.71423 ,-7.00802 
437 ,87.5631 ,1.86948 ,-0.71423 ,-7.00802 
438 ,87.7713 ,1.87157 ,-0.71765 ,-7.04160 
439 ,87.9631 ,1.87354 ,-0.74503 ,-7.31023 
440 ,88.1710 ,1.87557 ,-0.74845 ,-7.34380 
441 ,88.3633 ,1.87748 ,-0.74503 ,-7.31023 
442 ,88.5555 ,1.87955 ,-0.77925 ,-7.64601 
443 ,88.7474 ,1.88137 ,-0.76214 ,-7.47812 
444 ,88.9556 ,1.88340 ,-0.78952 ,-7.74674 
445 ,89.1477 ,1.88538 ,-0.78952 ,-7.74674 
446 ,89.3398 ,1.88727 ,-0.79978 ,-7.84748 
447 ,89.5315 ,1.88915 ,-0.82032 ,-8.04895 
448 ,89.7241 ,1.89108 ,-0.81005 ,-7.94821 
449 ,89.9322 ,1.89320 ,-0.83058 ,-8.14968 
450 ,90.1242 ,1.89507 ,-0.82716 ,-8.11611 
451 ,90.3160 ,1.89702 ,-0.85454 ,-8.38473 
452 ,90.5244 ,1.89908 ,-0.85796 ,-8.41831 
453 ,90.7324 ,1.90113 ,-0.87849 ,-8.61978 
454 ,90.9564 ,1.90342 ,-0.86823 ,-8.51904 
455 ,91.1484 ,1.90535 ,-0.88534 ,-8.68694 
456 ,91.3566 ,1.90742 ,-0.90245 ,-8.85483 
457 ,91.5487 ,1.90933 ,-0.90245 ,-8.85483 
458 ,91.7405 ,1.91123 ,-0.90245 ,-8.85483 
459 ,91.9330 ,1.91325 ,-0.92640 ,-9.08988 
460 ,92.1409 ,1.91524 ,-0.92298 ,-9.05630 
461 ,92.3333 ,1.91721 ,-0.94694 ,-9.29135 
462 ,92.5410 ,1.91927 ,-0.92983 ,-9.12345 
463 ,92.7334 ,1.92118 ,-0.95378 ,-9.35850 
