Data stamp = , 02-05-2022 01:45:01 343

Calibration Values: 
Slope = , 26.54 , g/V 
Offset Voltage at no contact = , -0.501760 , V 

No , Time , Stage Position ,   Mass , Force 
   ,  (s) ,      (mm)      ,   (g)  , (mN)  

1 ,0.0000 ,0.99953 ,5.34301 ,52.42557 
2 ,0.2185 ,0.99962 ,5.34985 ,52.49273 
3 ,0.7632 ,1.00176 ,5.36354 ,52.62704 
4 ,0.9713 ,1.00401 ,5.36354 ,52.62704 
5 ,1.1792 ,1.00608 ,5.34985 ,52.49273 
6 ,1.3714 ,1.00797 ,5.34985 ,52.49273 
7 ,1.5635 ,1.00988 ,5.32589 ,52.25768 
8 ,1.7716 ,1.01194 ,5.31221 ,52.12337 
9 ,1.9796 ,1.01408 ,5.27798 ,51.78758 
10 ,2.1718 ,1.01599 ,5.27456 ,51.75401 
11 ,2.3959 ,1.01816 ,5.23350 ,51.35107 
12 ,2.5878 ,1.02014 ,5.23350 ,51.35107 
13 ,2.7799 ,1.02204 ,5.20612 ,51.08244 
14 ,2.9715 ,1.02399 ,5.18216 ,50.84739 
15 ,3.1796 ,1.02600 ,5.16848 ,50.71308 
16 ,3.3717 ,1.02803 ,5.15821 ,50.61234 
17 ,3.5641 ,1.02997 ,5.12056 ,50.24298 
18 ,3.7722 ,1.03204 ,5.11030 ,50.14225 
19 ,3.9803 ,1.03408 ,5.07950 ,49.84004 
20 ,4.1725 ,1.03602 ,5.07608 ,49.80646 
21 ,4.3647 ,1.03797 ,5.05897 ,49.63857 
22 ,4.5727 ,1.04002 ,5.03501 ,49.40352 
23 ,4.7649 ,1.04196 ,5.01790 ,49.23563 
24 ,4.9567 ,1.04381 ,4.97683 ,48.83269 
25 ,5.1650 ,1.04593 ,4.98710 ,48.93343 
26 ,5.3569 ,1.04782 ,4.94603 ,48.53049 
27 ,5.5490 ,1.04970 ,4.95288 ,48.59764 
28 ,5.7411 ,1.05166 ,4.91523 ,48.22828 
29 ,5.9333 ,1.05365 ,4.90839 ,48.16113 
30 ,6.1574 ,1.05580 ,4.86732 ,47.75819 
31 ,6.3653 ,1.05795 ,4.87075 ,47.79177 
32 ,6.5574 ,1.05980 ,4.83995 ,47.48956 
33 ,6.7494 ,1.06174 ,4.83652 ,47.45598 
34 ,6.9577 ,1.06383 ,4.79888 ,47.08662 
35 ,7.1653 ,1.06593 ,4.79888 ,47.08662 
36 ,7.3576 ,1.06782 ,4.76124 ,46.71726 
37 ,7.5495 ,1.06974 ,4.74755 ,46.58295 
38 ,7.7419 ,1.07165 ,4.73728 ,46.48221 
39 ,7.9340 ,1.07359 ,4.72702 ,46.38148 
40 ,8.1260 ,1.07555 ,4.70648 ,46.18001 
41 ,8.3178 ,1.07743 ,4.68937 ,46.01212 
42 ,8.5101 ,1.07936 ,4.67226 ,45.84422 
43 ,8.7182 ,1.08148 ,4.65173 ,45.64275 
44 ,8.9265 ,1.08349 ,4.64146 ,45.54202 
45 ,9.1185 ,1.08544 ,4.59697 ,45.10550 
46 ,9.2941 ,1.08732 ,4.59355 ,45.07192 
47 ,9.4868 ,1.08916 ,4.59013 ,45.03835 
48 ,9.6948 ,1.09123 ,4.55249 ,44.66898 
49 ,9.8868 ,1.09311 ,4.55591 ,44.70256 
50 ,10.0790 ,1.09502 ,4.52511 ,44.40036 
51 ,10.3031 ,1.09725 ,4.50457 ,44.19889 
52 ,10.4951 ,1.09920 ,4.47378 ,43.89668 
53 ,10.7032 ,1.10121 ,4.47035 ,43.86310 
54 ,10.8952 ,1.10320 ,4.44982 ,43.66163 
55 ,11.0873 ,1.10508 ,4.43955 ,43.56090 
56 ,11.2793 ,1.10703 ,4.42244 ,43.39301 
57 ,11.5031 ,1.10929 ,4.39849 ,43.15796 
58 ,11.6956 ,1.11120 ,4.37111 ,42.88933 
59 ,11.9036 ,1.11325 ,4.37795 ,42.95649 
60 ,12.0958 ,1.11519 ,4.33689 ,42.55355 
61 ,12.2876 ,1.11711 ,4.33347 ,42.51997 
62 ,12.4797 ,1.11907 ,4.29924 ,42.18419 
63 ,12.6877 ,1.12111 ,4.30609 ,42.25135 
64 ,12.8961 ,1.12322 ,4.26502 ,41.84841 
65 ,13.0877 ,1.12512 ,4.26845 ,41.88198 
66 ,13.2802 ,1.12707 ,4.23765 ,41.57978 
67 ,13.4719 ,1.12898 ,4.23080 ,41.51262 
68 ,13.6478 ,1.13079 ,4.21711 ,41.37831 
69 ,13.8403 ,1.13268 ,4.18631 ,41.07611 
70 ,14.0480 ,1.13468 ,4.17262 ,40.94179 
71 ,14.2403 ,1.13659 ,4.15551 ,40.77390 
72 ,14.4326 ,1.13854 ,4.14183 ,40.63959 
73 ,14.6245 ,1.14052 ,4.12471 ,40.47170 
74 ,14.8165 ,1.14239 ,4.08707 ,40.10233 
75 ,15.0087 ,1.14434 ,4.09734 ,40.20307 
76 ,15.2169 ,1.14640 ,4.05969 ,39.83371 
77 ,15.4089 ,1.14834 ,4.06996 ,39.93444 
78 ,15.6171 ,1.15042 ,4.03232 ,39.56508 
79 ,15.8092 ,1.15233 ,4.02205 ,39.46435 
80 ,16.0333 ,1.15443 ,4.00494 ,39.29646 
81 ,16.2574 ,1.15667 ,3.98098 ,39.06141 
82 ,16.4492 ,1.15870 ,3.97756 ,39.02783 
83 ,16.6577 ,1.16077 ,3.94334 ,38.69205 
84 ,16.8494 ,1.16278 ,3.92623 ,38.52415 
85 ,17.0578 ,1.16478 ,3.90570 ,38.32268 
86 ,17.2659 ,1.16686 ,3.90912 ,38.35626 
87 ,17.4899 ,1.16900 ,3.87147 ,37.98690 
88 ,17.6816 ,1.17104 ,3.85436 ,37.81901 
89 ,17.8743 ,1.17298 ,3.83725 ,37.65112 
90 ,18.0818 ,1.17502 ,3.82699 ,37.55038 
91 ,18.2901 ,1.17705 ,3.81330 ,37.41607 
92 ,18.4821 ,1.17902 ,3.78934 ,37.18102 
93 ,18.6903 ,1.18098 ,3.76881 ,36.97955 
94 ,18.8823 ,1.18308 ,3.75854 ,36.87882 
95 ,19.0747 ,1.18502 ,3.74485 ,36.74450 
96 ,19.2825 ,1.18708 ,3.72774 ,36.57661 
97 ,19.4907 ,1.18916 ,3.71405 ,36.44230 
98 ,19.6987 ,1.19120 ,3.67641 ,36.07294 
99 ,19.9069 ,1.19330 ,3.66957 ,36.00578 
100 ,20.1150 ,1.19541 ,3.64561 ,35.77073 
101 ,20.3070 ,1.19728 ,3.63877 ,35.70358 
102 ,20.4989 ,1.19920 ,3.61481 ,35.46853 
103 ,20.6909 ,1.20113 ,3.59428 ,35.26706 
104 ,20.8831 ,1.20302 ,3.58401 ,35.16632 
105 ,21.0753 ,1.20496 ,3.55663 ,34.89770 
106 ,21.2674 ,1.20687 ,3.55321 ,34.86412 
107 ,21.4756 ,1.20891 ,3.52584 ,34.59549 
108 ,21.6831 ,1.21102 ,3.52241 ,34.56192 
109 ,21.8758 ,1.21298 ,3.49161 ,34.25971 
110 ,22.0678 ,1.21489 ,3.49846 ,34.32687 
111 ,22.2597 ,1.21677 ,3.46766 ,34.02466 
112 ,22.4354 ,1.21871 ,3.46081 ,33.95751 
113 ,22.6279 ,1.22047 ,3.45397 ,33.89035 
114 ,22.8199 ,1.22241 ,3.41633 ,33.52099 
115 ,23.0121 ,1.22429 ,3.40606 ,33.42025 
116 ,23.2202 ,1.22631 ,3.39237 ,33.28594 
117 ,23.4441 ,1.22859 ,3.38553 ,33.21878 
118 ,23.6524 ,1.23073 ,3.34104 ,32.78227 
119 ,23.8601 ,1.23279 ,3.33077 ,32.68153 
120 ,24.0521 ,1.23468 ,3.30339 ,32.41290 
121 ,24.2441 ,1.23662 ,3.31366 ,32.51364 
122 ,24.4362 ,1.23854 ,3.27602 ,32.14428 
123 ,24.6283 ,1.24045 ,3.26233 ,32.00996 
124 ,24.8045 ,1.24236 ,3.24864 ,31.87565 
125 ,24.9965 ,1.24418 ,3.23153 ,31.70776 
126 ,25.1886 ,1.24605 ,3.22811 ,31.67418 
127 ,25.3807 ,1.24797 ,3.21100 ,31.50629 
128 ,25.5728 ,1.24993 ,3.18020 ,31.20409 
129 ,25.7647 ,1.25188 ,3.19046 ,31.30482 
130 ,25.9569 ,1.25375 ,3.14597 ,30.86830 
131 ,26.1329 ,1.25564 ,3.14940 ,30.90188 
132 ,26.3251 ,1.25739 ,3.12886 ,30.70041 
133 ,26.5011 ,1.25931 ,3.09806 ,30.39821 
134 ,26.6932 ,1.26111 ,3.09464 ,30.36463 
135 ,26.8852 ,1.26306 ,3.08780 ,30.29747 
136 ,27.0774 ,1.26493 ,3.06042 ,30.02884 
137 ,27.2532 ,1.26685 ,3.04673 ,29.89453 
138 ,27.4454 ,1.26864 ,3.05358 ,29.96169 
139 ,27.6374 ,1.27054 ,3.01251 ,29.55875 
140 ,27.8296 ,1.27248 ,3.01935 ,29.62590 
141 ,28.0377 ,1.27450 ,2.98171 ,29.25654 
142 ,28.2138 ,1.27644 ,2.98171 ,29.25654 
143 ,28.4058 ,1.27822 ,2.95776 ,29.02150 
144 ,28.6144 ,1.28023 ,2.93038 ,28.75287 
145 ,28.8225 ,1.28243 ,2.92353 ,28.68571 
146 ,29.0144 ,1.28444 ,2.91669 ,28.61856 
147 ,29.2065 ,1.28625 ,2.89958 ,28.45066 
148 ,29.3986 ,1.28814 ,2.86193 ,28.08130 
149 ,29.6226 ,1.29037 ,2.85509 ,28.01415 
150 ,29.8307 ,1.29252 ,2.84482 ,27.91341 
151 ,30.0227 ,1.29446 ,2.82771 ,27.74552 
152 ,30.2311 ,1.29648 ,2.81745 ,27.64479 
153 ,30.4387 ,1.29857 ,2.78322 ,27.30900 
154 ,30.6311 ,1.30046 ,2.79007 ,27.37616 
155 ,30.8554 ,1.30266 ,2.76954 ,27.17469 
156 ,31.0634 ,1.30479 ,2.75243 ,27.00680 
157 ,31.2555 ,1.30673 ,2.72505 ,26.73817 
158 ,31.4635 ,1.30881 ,2.71136 ,26.60386 
159 ,31.6557 ,1.31074 ,2.69083 ,26.40239 
160 ,31.8476 ,1.31269 ,2.69083 ,26.40239 
161 ,32.0396 ,1.31458 ,2.66687 ,26.16734 
162 ,32.2474 ,1.31661 ,2.66003 ,26.10018 
163 ,32.4398 ,1.31855 ,2.63949 ,25.89871 
164 ,32.6159 ,1.32047 ,2.62923 ,25.79798 
165 ,32.8081 ,1.32221 ,2.62581 ,25.76440 
166 ,33.0001 ,1.32419 ,2.58132 ,25.32788 
167 ,33.1924 ,1.32608 ,2.57789 ,25.29430 
168 ,33.4002 ,1.32815 ,2.55394 ,25.05926 
169 ,33.5925 ,1.33008 ,2.54710 ,24.99210 
170 ,33.7845 ,1.33200 ,2.53341 ,24.85779 
171 ,33.9927 ,1.33409 ,2.50945 ,24.62274 
172 ,34.1848 ,1.33602 ,2.51287 ,24.65632 
173 ,34.3924 ,1.33809 ,2.48207 ,24.35411 
174 ,34.6009 ,1.34016 ,2.47181 ,24.25338 
175 ,34.8086 ,1.34232 ,2.44785 ,24.01833 
176 ,35.0170 ,1.34432 ,2.41363 ,23.68255 
177 ,35.2089 ,1.34623 ,2.42732 ,23.81686 
178 ,35.4172 ,1.34830 ,2.39994 ,23.54823 
179 ,35.6093 ,1.35027 ,2.40336 ,23.58181 
180 ,35.8173 ,1.35236 ,2.37256 ,23.27961 
181 ,36.0254 ,1.35443 ,2.37256 ,23.27961 
182 ,36.2492 ,1.35663 ,2.34861 ,23.04456 
183 ,36.4577 ,1.35872 ,2.32808 ,22.84309 
184 ,36.6495 ,1.36063 ,2.32123 ,22.77593 
185 ,36.8416 ,1.36257 ,2.30412 ,22.60804 
186 ,37.0337 ,1.36448 ,2.29385 ,22.50731 
187 ,37.2259 ,1.36642 ,2.28017 ,22.37299 
188 ,37.4179 ,1.36831 ,2.24937 ,22.07079 
189 ,37.6101 ,1.37025 ,2.24594 ,22.03721 
190 ,37.8183 ,1.37226 ,2.23226 ,21.90290 
191 ,38.0261 ,1.37442 ,2.20830 ,21.66785 
192 ,38.2184 ,1.37634 ,2.18435 ,21.43280 
193 ,38.4263 ,1.37850 ,2.17750 ,21.36564 
194 ,38.6184 ,1.38032 ,2.15697 ,21.16417 
195 ,38.7940 ,1.38219 ,2.15355 ,21.13059 
196 ,39.0027 ,1.38405 ,2.15697 ,21.16417 
197 ,39.1947 ,1.38622 ,2.13301 ,20.92912 
198 ,39.3868 ,1.38800 ,2.11248 ,20.72766 
199 ,39.5949 ,1.38998 ,2.09195 ,20.52619 
200 ,39.7868 ,1.39200 ,2.09537 ,20.55976 
201 ,39.9790 ,1.39388 ,2.06457 ,20.25756 
202 ,40.1872 ,1.39606 ,2.06799 ,20.29114 
203 ,40.3793 ,1.39790 ,2.03719 ,19.98893 
204 ,40.5713 ,1.39982 ,2.03377 ,19.95535 
205 ,40.7635 ,1.40176 ,2.00639 ,19.68673 
206 ,40.9551 ,1.40371 ,1.99955 ,19.61957 
207 ,41.1635 ,1.40575 ,1.99613 ,19.58599 
208 ,41.3556 ,1.40768 ,1.95164 ,19.14948 
209 ,41.5795 ,1.40976 ,1.97217 ,19.35094 
210 ,41.7875 ,1.41199 ,1.95164 ,19.14948 
211 ,41.9797 ,1.41392 ,1.91057 ,18.74654 
212 ,42.1716 ,1.41590 ,1.90715 ,18.71296 
213 ,42.3640 ,1.41779 ,1.89346 ,18.57864 
214 ,42.5560 ,1.41964 ,1.87635 ,18.41075 
215 ,42.7481 ,1.42161 ,1.87635 ,18.41075 
216 ,42.9400 ,1.42354 ,1.84555 ,18.10855 
217 ,43.1319 ,1.42546 ,1.84897 ,18.14213 
218 ,43.3243 ,1.42734 ,1.83186 ,17.97423 
219 ,43.5324 ,1.42945 ,1.81475 ,17.80634 
220 ,43.7246 ,1.43139 ,1.80791 ,17.73919 
221 ,43.9327 ,1.43343 ,1.79080 ,17.57129 
222 ,44.1408 ,1.43550 ,1.77026 ,17.36983 
223 ,44.3486 ,1.43754 ,1.75657 ,17.23551 
224 ,44.5410 ,1.43954 ,1.72235 ,16.89973 
225 ,44.7489 ,1.44160 ,1.73946 ,17.06762 
226 ,44.9411 ,1.44355 ,1.71209 ,16.79899 
227 ,45.1489 ,1.44559 ,1.70524 ,16.73184 
228 ,45.3247 ,1.44748 ,1.67444 ,16.42963 
229 ,45.5173 ,1.44928 ,1.67102 ,16.39605 
230 ,45.7413 ,1.45148 ,1.65391 ,16.22816 
231 ,45.9335 ,1.45346 ,1.62653 ,15.95954 
232 ,46.1415 ,1.45549 ,1.62653 ,15.95954 
233 ,46.3336 ,1.45741 ,1.61627 ,15.85880 
234 ,46.5418 ,1.45955 ,1.60258 ,15.72449 
235 ,46.7496 ,1.46159 ,1.58889 ,15.59018 
236 ,46.9419 ,1.46353 ,1.57178 ,15.42228 
237 ,47.1499 ,1.46560 ,1.57520 ,15.45586 
238 ,47.3421 ,1.46754 ,1.53756 ,15.08650 
239 ,47.5500 ,1.46955 ,1.54098 ,15.12008 
240 ,47.7582 ,1.47159 ,1.52729 ,14.98577 
241 ,47.9500 ,1.47357 ,1.51702 ,14.88503 
242 ,48.1424 ,1.47560 ,1.48965 ,14.61640 
243 ,48.3345 ,1.47748 ,1.47253 ,14.44851 
244 ,48.5264 ,1.47939 ,1.47253 ,14.44851 
245 ,48.7347 ,1.48145 ,1.46227 ,14.34778 
246 ,48.9585 ,1.48362 ,1.44516 ,14.17989 
247 ,49.1508 ,1.48564 ,1.43489 ,14.07915 
248 ,49.3587 ,1.48760 ,1.41094 ,13.84410 
249 ,49.5510 ,1.48967 ,1.40751 ,13.81053 
250 ,49.7590 ,1.49165 ,1.36987 ,13.44116 
251 ,49.9672 ,1.49378 ,1.37671 ,13.50832 
252 ,50.1590 ,1.49570 ,1.34934 ,13.23969 
253 ,50.3673 ,1.49778 ,1.34934 ,13.23969 
254 ,50.5592 ,1.49969 ,1.32880 ,13.03822 
255 ,50.7670 ,1.50175 ,1.33565 ,13.10538 
256 ,50.9596 ,1.50369 ,1.30143 ,12.76960 
257 ,51.1674 ,1.50579 ,1.29800 ,12.73602 
258 ,51.3596 ,1.50767 ,1.27063 ,12.46739 
259 ,51.5519 ,1.50959 ,1.27405 ,12.50097 
260 ,51.7599 ,1.51162 ,1.24667 ,12.23235 
261 ,51.9519 ,1.51360 ,1.24667 ,12.23235 
262 ,52.1600 ,1.51568 ,1.21929 ,11.96372 
263 ,52.3519 ,1.51765 ,1.21245 ,11.89656 
264 ,52.5601 ,1.51969 ,1.18507 ,11.62794 
265 ,52.7523 ,1.52157 ,1.20218 ,11.79583 
266 ,52.9599 ,1.52369 ,1.15770 ,11.35931 
267 ,53.1524 ,1.52564 ,1.16454 ,11.42647 
268 ,53.3605 ,1.52765 ,1.14401 ,11.22500 
269 ,53.5845 ,1.52992 ,1.13716 ,11.15784 
270 ,53.8088 ,1.53210 ,1.12005 ,10.98995 
271 ,54.0165 ,1.53422 ,1.09610 ,10.75490 
272 ,54.2249 ,1.53626 ,1.08583 ,10.65416 
273 ,54.4328 ,1.53842 ,1.07556 ,10.55343 
274 ,54.6570 ,1.54061 ,1.05503 ,10.35196 
275 ,54.8487 ,1.54260 ,1.04819 ,10.28480 
276 ,55.0410 ,1.54453 ,1.02423 ,10.04976 
277 ,55.2492 ,1.54654 ,1.02765 ,10.08333 
278 ,55.4574 ,1.54865 ,1.01054 ,9.91544 
279 ,55.6493 ,1.55056 ,1.00370 ,9.84829 
280 ,55.8410 ,1.55246 ,0.97632 ,9.57966 
281 ,56.0336 ,1.55440 ,0.97290 ,9.54608 
282 ,56.2412 ,1.55647 ,0.95921 ,9.41177 
283 ,56.4497 ,1.55843 ,0.95579 ,9.37819 
284 ,56.6417 ,1.56046 ,0.92499 ,9.07598 
285 ,56.8338 ,1.56243 ,0.92157 ,9.04241 
286 ,57.0419 ,1.56448 ,0.89761 ,8.80736 
287 ,57.2498 ,1.56658 ,0.90103 ,8.84094 
288 ,57.4579 ,1.56868 ,0.87023 ,8.53873 
289 ,57.6663 ,1.57068 ,0.87366 ,8.57231 
290 ,57.8579 ,1.57263 ,0.85654 ,8.40442 
291 ,58.0504 ,1.57455 ,0.84970 ,8.33726 
292 ,58.2264 ,1.57649 ,0.82575 ,8.10221 
293 ,58.4181 ,1.57820 ,0.82232 ,8.06864 
294 ,58.6102 ,1.58012 ,0.80863 ,7.93432 
295 ,58.8023 ,1.58212 ,0.79495 ,7.80001 
296 ,58.9944 ,1.58400 ,0.78468 ,7.69927 
297 ,59.1870 ,1.58594 ,0.76757 ,7.53138 
298 ,59.3786 ,1.58786 ,0.75730 ,7.43065 
299 ,59.6030 ,1.59011 ,0.74019 ,7.26276 
300 ,59.8112 ,1.59218 ,0.73677 ,7.22918 
301 ,60.0191 ,1.59420 ,0.70597 ,6.92697 
302 ,60.2112 ,1.59617 ,0.71281 ,6.99413 
303 ,60.4034 ,1.59811 ,0.68886 ,6.75908 
304 ,60.5951 ,1.60000 ,0.69913 ,6.85982 
305 ,60.7877 ,1.60193 ,0.67859 ,6.65835 
306 ,60.9794 ,1.60385 ,0.66490 ,6.52403 
307 ,61.1718 ,1.60576 ,0.66833 ,6.55761 
308 ,61.3798 ,1.60784 ,0.62384 ,6.12109 
309 ,61.5720 ,1.60977 ,0.63410 ,6.22183 
310 ,61.7638 ,1.61166 ,0.59988 ,5.88605 
311 ,61.9717 ,1.61378 ,0.60673 ,5.95320 
312 ,62.1642 ,1.61569 ,0.58962 ,5.78531 
313 ,62.3726 ,1.61780 ,0.58962 ,5.78531 
314 ,62.5644 ,1.61974 ,0.56224 ,5.51668 
315 ,62.7561 ,1.62162 ,0.56224 ,5.51668 
316 ,62.9485 ,1.62357 ,0.54171 ,5.31522 
317 ,63.1726 ,1.62567 ,0.53144 ,5.21448 
318 ,63.3808 ,1.62783 ,0.51433 ,5.04659 
319 ,63.5884 ,1.62985 ,0.50406 ,4.94585 
320 ,63.7963 ,1.63192 ,0.48695 ,4.77796 
321 ,64.0208 ,1.63414 ,0.48011 ,4.71081 
322 ,64.2611 ,1.63668 ,0.46300 ,4.54291 
323 ,64.4532 ,1.63861 ,0.46984 ,4.61007 
324 ,64.6613 ,1.64061 ,0.43220 ,4.24071 
325 ,64.8533 ,1.64253 ,0.44931 ,4.40860 
326 ,65.0612 ,1.64463 ,0.40824 ,4.00566 
327 ,65.2693 ,1.64672 ,0.42193 ,4.13997 
328 ,65.4773 ,1.64883 ,0.38771 ,3.80419 
329 ,65.6698 ,1.65074 ,0.40824 ,4.00566 
330 ,65.8778 ,1.65280 ,0.37744 ,3.70346 
331 ,66.0694 ,1.65475 ,0.37402 ,3.66988 
332 ,66.2618 ,1.65661 ,0.35691 ,3.50199 
333 ,66.4539 ,1.65855 ,0.34322 ,3.36767 
334 ,66.6458 ,1.66052 ,0.32953 ,3.23336 
335 ,66.8381 ,1.66240 ,0.33638 ,3.30052 
336 ,67.0300 ,1.66435 ,0.30900 ,3.03189 
337 ,67.2383 ,1.66641 ,0.29873 ,2.93116 
338 ,67.4463 ,1.66849 ,0.27820 ,2.72969 
339 ,67.6383 ,1.67042 ,0.27820 ,2.72969 
340 ,67.8305 ,1.67233 ,0.27135 ,2.66253 
341 ,68.0385 ,1.67443 ,0.26109 ,2.56179 
342 ,68.2303 ,1.67634 ,0.25424 ,2.49464 
343 ,68.4229 ,1.67823 ,0.21660 ,2.12528 
344 ,68.6148 ,1.68018 ,0.22687 ,2.22601 
345 ,68.8070 ,1.68206 ,0.20633 ,2.02454 
346 ,68.9988 ,1.68399 ,0.20633 ,2.02454 
347 ,69.1751 ,1.68588 ,0.19949 ,1.95738 
348 ,69.3830 ,1.68778 ,0.17211 ,1.68876 
349 ,69.5752 ,1.68974 ,0.18922 ,1.85665 
350 ,69.7672 ,1.69170 ,0.16185 ,1.58802 
351 ,69.9594 ,1.69362 ,0.16185 ,1.58802 
352 ,70.1674 ,1.69571 ,0.13105 ,1.28582 
353 ,70.3595 ,1.69760 ,0.12078 ,1.18508 
354 ,70.5834 ,1.69971 ,0.12078 ,1.18508 
355 ,70.7918 ,1.70194 ,0.11393 ,1.11793 
356 ,71.0159 ,1.70398 ,0.08656 ,0.84930 
357 ,71.2238 ,1.70627 ,0.06602 ,0.64783 
358 ,71.4161 ,1.70817 ,0.07287 ,0.71499 
359 ,71.6240 ,1.71025 ,0.05918 ,0.58067 
360 ,71.8320 ,1.71231 ,0.05576 ,0.54710 
361 ,72.0243 ,1.71429 ,0.03522 ,0.34563 
362 ,72.2321 ,1.71632 ,0.04207 ,0.41278 
363 ,72.4244 ,1.71828 ,0.01469 ,0.14416 
364 ,72.6322 ,1.72035 ,0.02838 ,0.27847 
365 ,72.8246 ,1.72225 ,-0.00584 ,-0.05731 
366 ,73.0167 ,1.72419 ,0.00100 ,0.00984 
367 ,73.2085 ,1.72610 ,-0.02295 ,-0.22520 
368 ,73.4327 ,1.72821 ,-0.02295 ,-0.22520 
369 ,73.6248 ,1.73026 ,-0.05033 ,-0.49383 
370 ,73.8331 ,1.73232 ,-0.04006 ,-0.39310 
371 ,74.0409 ,1.73439 ,-0.06744 ,-0.66172 
372 ,74.2331 ,1.73630 ,-0.06402 ,-0.62814 
373 ,74.4251 ,1.73822 ,-0.08797 ,-0.86319 
374 ,74.6173 ,1.74019 ,-0.08113 ,-0.79604 
375 ,74.8411 ,1.74242 ,-0.10166 ,-0.99751 
376 ,75.0331 ,1.74432 ,-0.10851 ,-1.06466 
377 ,75.2252 ,1.74622 ,-0.12562 ,-1.23255 
378 ,75.4337 ,1.74828 ,-0.12562 ,-1.23255 
379 ,75.6416 ,1.75038 ,-0.15642 ,-1.53476 
380 ,75.8333 ,1.75246 ,-0.15642 ,-1.53476 
381 ,76.0260 ,1.75427 ,-0.17695 ,-1.73623 
382 ,76.2336 ,1.75634 ,-0.17011 ,-1.66907 
383 ,76.4261 ,1.75826 ,-0.19748 ,-1.93770 
384 ,76.6342 ,1.76035 ,-0.19064 ,-1.87054 
385 ,76.8263 ,1.76226 ,-0.21459 ,-2.10559 
386 ,77.0183 ,1.76420 ,-0.21117 ,-2.07201 
387 ,77.2263 ,1.76628 ,-0.23513 ,-2.30706 
388 ,77.4184 ,1.76815 ,-0.23855 ,-2.34064 
389 ,77.6266 ,1.77027 ,-0.24881 ,-2.44137 
390 ,77.8185 ,1.77217 ,-0.25908 ,-2.54211 
391 ,78.0103 ,1.77409 ,-0.25908 ,-2.54211 
392 ,78.2028 ,1.77600 ,-0.29330 ,-2.87789 
393 ,78.4108 ,1.77804 ,-0.27961 ,-2.74358 
394 ,78.6030 ,1.78000 ,-0.31726 ,-3.11294 
395 ,78.8110 ,1.78210 ,-0.30357 ,-2.97863 
396 ,79.0190 ,1.78415 ,-0.32068 ,-3.14652 
397 ,79.2111 ,1.78612 ,-0.31384 ,-3.07936 
398 ,79.3872 ,1.78800 ,-0.33437 ,-3.28083 
399 ,79.5794 ,1.78976 ,-0.35148 ,-3.44872 
400 ,79.7714 ,1.79172 ,-0.34806 ,-3.41514 
401 ,79.9473 ,1.79360 ,-0.36517 ,-3.58303 
402 ,80.1392 ,1.79537 ,-0.36517 ,-3.58303 
403 ,80.3476 ,1.79747 ,-0.37886 ,-3.71735 
404 ,80.5556 ,1.79948 ,-0.38570 ,-3.78450 
405 ,80.7477 ,1.80147 ,-0.40281 ,-3.95240 
406 ,80.9394 ,1.80335 ,-0.41650 ,-4.08671 
407 ,81.1317 ,1.80526 ,-0.40623 ,-3.98597 
408 ,81.3075 ,1.80718 ,-0.44388 ,-4.35534 
409 ,81.4999 ,1.80896 ,-0.44046 ,-4.32176 
410 ,81.7081 ,1.81101 ,-0.45757 ,-4.48965 
411 ,81.9000 ,1.81295 ,-0.45757 ,-4.48965 
412 ,82.0923 ,1.81493 ,-0.47126 ,-4.62396 
413 ,82.3002 ,1.81692 ,-0.47468 ,-4.65754 
414 ,82.4922 ,1.81888 ,-0.48152 ,-4.72470 
415 ,82.7004 ,1.82095 ,-0.48494 ,-4.75828 
416 ,82.8926 ,1.82289 ,-0.50548 ,-4.95975 
417 ,83.0847 ,1.82485 ,-0.52259 ,-5.12764 
418 ,83.2927 ,1.82689 ,-0.51574 ,-5.06048 
419 ,83.4843 ,1.82891 ,-0.54997 ,-5.39626 
420 ,83.6771 ,1.83069 ,-0.53285 ,-5.22837 
421 ,83.8847 ,1.83279 ,-0.56365 ,-5.53058 
422 ,84.0930 ,1.83492 ,-0.55681 ,-5.46342 
423 ,84.2852 ,1.83684 ,-0.58761 ,-5.76562 
424 ,84.4929 ,1.83888 ,-0.57734 ,-5.66489 
425 ,84.7173 ,1.84097 ,-0.59103 ,-5.79920 
426 ,84.9092 ,1.84318 ,-0.61156 ,-6.00067 
427 ,85.1175 ,1.84513 ,-0.60130 ,-5.89994 
428 ,85.3255 ,1.84719 ,-0.62868 ,-6.16856 
429 ,85.5175 ,1.84913 ,-0.63210 ,-6.20214 
430 ,85.7096 ,1.85105 ,-0.65263 ,-6.40361 
431 ,85.9014 ,1.85296 ,-0.64921 ,-6.37003 
432 ,86.0939 ,1.85487 ,-0.65263 ,-6.40361 
433 ,86.3018 ,1.85698 ,-0.68001 ,-6.67224 
434 ,86.4936 ,1.85892 ,-0.66632 ,-6.53793 
435 ,86.6857 ,1.86079 ,-0.70396 ,-6.90729 
436 ,86.8783 ,1.86277 ,-0.69712 ,-6.84013 
437 ,87.0863 ,1.86481 ,-0.71765 ,-7.04160 
438 ,87.2784 ,1.86672 ,-0.70396 ,-6.90729 
439 ,87.4862 ,1.86879 ,-0.72792 ,-7.14233 
440 ,87.6788 ,1.87071 ,-0.72107 ,-7.07518 
441 ,87.8864 ,1.87278 ,-0.74503 ,-7.31023 
442 ,88.0783 ,1.87475 ,-0.73134 ,-7.17591 
443 ,88.2708 ,1.87660 ,-0.75872 ,-7.44454 
444 ,88.4785 ,1.87869 ,-0.76556 ,-7.51170 
445 ,88.6711 ,1.88067 ,-0.77583 ,-7.61243 
446 ,88.8786 ,1.88271 ,-0.77583 ,-7.61243 
447 ,89.0711 ,1.88469 ,-0.79978 ,-7.84748 
448 ,89.2790 ,1.88675 ,-0.79294 ,-7.78032 
449 ,89.4549 ,1.88861 ,-0.81689 ,-8.01537 
450 ,89.6474 ,1.89042 ,-0.83401 ,-8.18326 
451 ,89.8554 ,1.89248 ,-0.83401 ,-8.18326 
452 ,90.0472 ,1.89453 ,-0.84085 ,-8.25042 
453 ,90.2394 ,1.89629 ,-0.83743 ,-8.21684 
454 ,90.4634 ,1.89852 ,-0.86481 ,-8.48547 
455 ,90.6717 ,1.90061 ,-0.87165 ,-8.55262 
456 ,90.8801 ,1.90274 ,-0.87507 ,-8.58620 
457 ,91.0715 ,1.90469 ,-0.88534 ,-8.68694 
458 ,91.2641 ,1.90659 ,-0.88876 ,-8.72051 
459 ,91.4721 ,1.90865 ,-0.89903 ,-8.82125 
460 ,91.6643 ,1.91054 ,-0.91956 ,-9.02272 
461 ,91.8563 ,1.91249 ,-0.91272 ,-8.95556 
462 ,92.0482 ,1.91457 ,-0.92298 ,-9.05630 
463 ,92.2402 ,1.91631 ,-0.91956 ,-9.02272 
