Data stamp = , 29-04-2022 20:16:36 984

Calibration Values: 
Slope = , 26.54 , g/V 
Offset Voltage at no contact = , -0.501760 , V 

No , Time , Stage Position ,   Mass , Force 
   ,  (s) ,      (mm)      ,   (g)  , (mN)  

1 ,0.0000 ,0.99948 ,5.42172 ,53.19787 
2 ,0.2198 ,0.99956 ,5.42514 ,53.23145 
3 ,0.8441 ,1.00198 ,5.42856 ,53.26503 
4 ,1.0683 ,1.00472 ,5.41829 ,53.16429 
5 ,1.2765 ,1.00691 ,5.42514 ,53.23145 
6 ,1.4683 ,1.00879 ,5.40460 ,53.02998 
7 ,1.7243 ,1.01127 ,5.37381 ,52.72778 
8 ,1.9327 ,1.01345 ,5.36354 ,52.62704 
9 ,2.1566 ,1.01571 ,5.33274 ,52.32484 
10 ,2.3648 ,1.01768 ,5.31563 ,52.15694 
11 ,2.5572 ,1.01978 ,5.30536 ,52.05621 
12 ,2.7488 ,1.02164 ,5.27798 ,51.78758 
13 ,2.9409 ,1.02352 ,5.27114 ,51.72043 
14 ,3.1327 ,1.02558 ,5.23692 ,51.38464 
15 ,3.3090 ,1.02734 ,5.22665 ,51.28391 
16 ,3.5012 ,1.02921 ,5.20270 ,51.04886 
17 ,3.7095 ,1.03129 ,5.18559 ,50.88097 
18 ,3.9011 ,1.03314 ,5.16505 ,50.67950 
19 ,4.1094 ,1.03526 ,5.14110 ,50.44445 
20 ,4.3178 ,1.03733 ,5.13083 ,50.34372 
21 ,4.5096 ,1.03925 ,5.10003 ,50.04151 
22 ,4.7019 ,1.04119 ,5.10003 ,50.04151 
23 ,4.8940 ,1.04316 ,5.07265 ,49.77289 
24 ,5.0856 ,1.04502 ,5.04870 ,49.53784 
25 ,5.2780 ,1.04696 ,5.04870 ,49.53784 
26 ,5.4704 ,1.04893 ,5.01790 ,49.23563 
27 ,5.6620 ,1.05090 ,5.01106 ,49.16848 
28 ,5.8702 ,1.05284 ,4.98026 ,48.86627 
29 ,6.0786 ,1.05495 ,4.97341 ,48.79911 
30 ,6.2703 ,1.05687 ,4.93919 ,48.46333 
31 ,6.4626 ,1.05883 ,4.93577 ,48.42975 
32 ,6.6707 ,1.06077 ,4.91181 ,48.19471 
33 ,6.8788 ,1.06292 ,4.88786 ,47.95966 
34 ,7.0706 ,1.06489 ,4.84679 ,47.55672 
35 ,7.2786 ,1.06686 ,4.86732 ,47.75819 
36 ,7.4546 ,1.06880 ,4.81257 ,47.22093 
37 ,7.6632 ,1.07079 ,4.82284 ,47.32167 
38 ,7.8714 ,1.07289 ,4.77150 ,46.81800 
39 ,8.0790 ,1.07492 ,4.77493 ,46.85157 
40 ,8.2714 ,1.07690 ,4.74070 ,46.51579 
41 ,8.4795 ,1.07898 ,4.75097 ,46.61653 
42 ,8.6553 ,1.08087 ,4.69964 ,46.11285 
43 ,8.8476 ,1.08264 ,4.68253 ,45.94496 
44 ,9.0716 ,1.08474 ,4.67226 ,45.84422 
45 ,9.2637 ,1.08681 ,4.66542 ,45.77707 
46 ,9.4555 ,1.08875 ,4.64488 ,45.57560 
47 ,9.6480 ,1.09067 ,4.61408 ,45.27339 
48 ,9.8557 ,1.09274 ,4.60040 ,45.13908 
49 ,10.0797 ,1.09493 ,4.59355 ,45.07192 
50 ,10.2722 ,1.09690 ,4.56275 ,44.76972 
51 ,10.4958 ,1.09906 ,4.54906 ,44.63541 
52 ,10.6885 ,1.10110 ,4.52853 ,44.43394 
53 ,10.8965 ,1.10312 ,4.52511 ,44.40036 
54 ,11.1045 ,1.10519 ,4.49773 ,44.13173 
55 ,11.2962 ,1.10714 ,4.47035 ,43.86310 
56 ,11.4888 ,1.10901 ,4.44640 ,43.62806 
57 ,11.6968 ,1.11111 ,4.43613 ,43.52732 
58 ,11.8888 ,1.11298 ,4.41902 ,43.35943 
59 ,12.0809 ,1.11493 ,4.41218 ,43.29227 
60 ,12.2730 ,1.11688 ,4.37111 ,42.88933 
61 ,12.4652 ,1.11882 ,4.37111 ,42.88933 
62 ,12.6572 ,1.12074 ,4.35400 ,42.72144 
63 ,12.8493 ,1.12268 ,4.33347 ,42.51997 
64 ,13.0574 ,1.12471 ,4.30609 ,42.25135 
65 ,13.2494 ,1.12665 ,4.28556 ,42.04988 
66 ,13.4574 ,1.12861 ,4.27871 ,41.98272 
67 ,13.6495 ,1.13066 ,4.26160 ,41.81483 
68 ,13.8412 ,1.13249 ,4.25133 ,41.71409 
69 ,14.0338 ,1.13452 ,4.22738 ,41.47905 
70 ,14.2417 ,1.13647 ,4.20342 ,41.24400 
71 ,14.4659 ,1.13870 ,4.17947 ,41.00895 
72 ,14.6581 ,1.14074 ,4.17947 ,41.00895 
73 ,14.8659 ,1.14281 ,4.15551 ,40.77390 
74 ,15.0739 ,1.14488 ,4.13156 ,40.53885 
75 ,15.2663 ,1.14681 ,4.12471 ,40.47170 
76 ,15.4582 ,1.14876 ,4.10076 ,40.23665 
77 ,15.6664 ,1.15077 ,4.08023 ,40.03518 
78 ,15.8745 ,1.15278 ,4.07338 ,39.96802 
79 ,16.0504 ,1.15476 ,4.05285 ,39.76655 
80 ,16.2425 ,1.15654 ,4.03916 ,39.63224 
81 ,16.4346 ,1.15848 ,4.01178 ,39.36361 
82 ,16.6428 ,1.16042 ,3.99809 ,39.22930 
83 ,16.8349 ,1.16250 ,3.97756 ,39.02783 
84 ,17.0267 ,1.16443 ,3.95018 ,38.75920 
85 ,17.2351 ,1.16642 ,3.94676 ,38.72562 
86 ,17.4432 ,1.16858 ,3.93650 ,38.62489 
87 ,17.6352 ,1.17050 ,3.90570 ,38.32268 
88 ,17.8274 ,1.17239 ,3.89543 ,38.22195 
89 ,18.0514 ,1.17453 ,3.86463 ,37.91975 
90 ,18.2596 ,1.17671 ,3.86463 ,37.91975 
91 ,18.4675 ,1.17877 ,3.83041 ,37.58396 
92 ,18.6597 ,1.18066 ,3.82356 ,37.51681 
93 ,18.8678 ,1.18286 ,3.80645 ,37.34891 
94 ,19.0759 ,1.18477 ,3.79961 ,37.28176 
95 ,19.2675 ,1.18677 ,3.76539 ,36.94597 
96 ,19.4595 ,1.18871 ,3.76539 ,36.94597 
97 ,19.6517 ,1.19065 ,3.73117 ,36.61019 
98 ,19.8438 ,1.19256 ,3.73117 ,36.61019 
99 ,20.0358 ,1.19447 ,3.70037 ,36.30799 
100 ,20.2278 ,1.19641 ,3.66957 ,36.00578 
101 ,20.4199 ,1.19832 ,3.66614 ,35.97220 
102 ,20.5960 ,1.20018 ,3.64219 ,35.73716 
103 ,20.7881 ,1.20194 ,3.63192 ,35.63642 
104 ,20.9802 ,1.20387 ,3.61823 ,35.50211 
105 ,21.1723 ,1.20582 ,3.59086 ,35.23348 
106 ,21.3646 ,1.20775 ,3.58059 ,35.13275 
107 ,21.5565 ,1.20967 ,3.56348 ,34.96485 
108 ,21.7485 ,1.21156 ,3.53952 ,34.72981 
109 ,21.9244 ,1.21350 ,3.55321 ,34.86412 
110 ,22.1006 ,1.21525 ,3.52241 ,34.56192 
111 ,22.2767 ,1.21700 ,3.50188 ,34.36045 
112 ,22.4848 ,1.21885 ,3.48135 ,34.15898 
113 ,22.6769 ,1.22094 ,3.47108 ,34.05824 
114 ,22.8689 ,1.22277 ,3.45397 ,33.89035 
115 ,23.0450 ,1.22467 ,3.45055 ,33.85677 
116 ,23.2369 ,1.22648 ,3.43686 ,33.72246 
117 ,23.4291 ,1.22837 ,3.40606 ,33.42025 
118 ,23.6052 ,1.23029 ,3.41633 ,33.52099 
119 ,23.7973 ,1.23212 ,3.38553 ,33.21878 
120 ,23.9734 ,1.23394 ,3.36157 ,32.98374 
121 ,24.1656 ,1.23570 ,3.35130 ,32.88300 
122 ,24.3416 ,1.23763 ,3.34104 ,32.78227 
123 ,24.5341 ,1.23940 ,3.31024 ,32.48006 
124 ,24.7258 ,1.24130 ,3.31024 ,32.48006 
125 ,24.9180 ,1.24327 ,3.29655 ,32.34575 
126 ,25.1261 ,1.24532 ,3.26917 ,32.07712 
127 ,25.3184 ,1.24727 ,3.25891 ,31.97639 
128 ,25.5265 ,1.24929 ,3.23837 ,31.77492 
129 ,25.7506 ,1.25150 ,3.21100 ,31.50629 
130 ,25.9426 ,1.25353 ,3.21100 ,31.50629 
131 ,26.1348 ,1.25545 ,3.17677 ,31.17051 
132 ,26.3268 ,1.25732 ,3.15966 ,31.00262 
133 ,26.5349 ,1.25944 ,3.15624 ,30.96904 
134 ,26.7270 ,1.26140 ,3.14255 ,30.83472 
135 ,26.9186 ,1.26337 ,3.12202 ,30.63325 
136 ,27.1111 ,1.26519 ,3.10149 ,30.43178 
137 ,27.3192 ,1.26727 ,3.10833 ,30.49894 
138 ,27.5114 ,1.26918 ,3.06726 ,30.09600 
139 ,27.7192 ,1.27128 ,3.06042 ,30.02884 
140 ,27.9271 ,1.27335 ,3.02962 ,29.72664 
141 ,28.1195 ,1.27523 ,3.02620 ,29.69306 
142 ,28.3114 ,1.27718 ,3.00224 ,29.45801 
143 ,28.5036 ,1.27908 ,3.00224 ,29.45801 
144 ,28.6956 ,1.28103 ,2.97487 ,29.18939 
145 ,28.9038 ,1.28307 ,2.98171 ,29.25654 
146 ,29.0956 ,1.28505 ,2.95776 ,29.02150 
147 ,29.2880 ,1.28698 ,2.93722 ,28.82003 
148 ,29.4799 ,1.28887 ,2.92011 ,28.65213 
149 ,29.7202 ,1.29122 ,2.90300 ,28.48424 
150 ,29.9124 ,1.29323 ,2.88247 ,28.28277 
151 ,30.1203 ,1.29527 ,2.87905 ,28.24919 
152 ,30.3284 ,1.29736 ,2.84482 ,27.91341 
153 ,30.5364 ,1.29945 ,2.81745 ,27.64479 
154 ,30.7286 ,1.30135 ,2.81060 ,27.57763 
155 ,30.9206 ,1.30326 ,2.81745 ,27.64479 
156 ,31.1126 ,1.30529 ,2.79007 ,27.37616 
157 ,31.3043 ,1.30708 ,2.77980 ,27.27542 
158 ,31.4968 ,1.30906 ,2.75927 ,27.07395 
159 ,31.7045 ,1.31104 ,2.75927 ,27.07395 
160 ,31.8970 ,1.31310 ,2.72505 ,26.73817 
161 ,32.1052 ,1.31511 ,2.71478 ,26.63744 
162 ,32.2971 ,1.31705 ,2.69083 ,26.40239 
163 ,32.4893 ,1.31897 ,2.67029 ,26.20092 
164 ,32.6973 ,1.32103 ,2.66003 ,26.10018 
165 ,32.8895 ,1.32298 ,2.65318 ,26.03303 
166 ,33.0975 ,1.32508 ,2.62923 ,25.79798 
167 ,33.3056 ,1.32710 ,2.63265 ,25.83156 
168 ,33.4971 ,1.32898 ,2.58816 ,25.39504 
169 ,33.6898 ,1.33097 ,2.58816 ,25.39504 
170 ,33.8814 ,1.33295 ,2.58132 ,25.32788 
171 ,34.0739 ,1.33482 ,2.55394 ,25.05926 
172 ,34.2819 ,1.33688 ,2.54710 ,24.99210 
173 ,34.4901 ,1.33890 ,2.52998 ,24.82421 
174 ,34.6979 ,1.34102 ,2.50261 ,24.55558 
175 ,34.9062 ,1.34314 ,2.48550 ,24.38769 
176 ,35.1143 ,1.34506 ,2.48207 ,24.35411 
177 ,35.3065 ,1.34710 ,2.46496 ,24.18622 
178 ,35.4984 ,1.34904 ,2.44443 ,23.98475 
179 ,35.7061 ,1.35110 ,2.44101 ,23.95117 
180 ,35.8985 ,1.35303 ,2.42390 ,23.78328 
181 ,36.1066 ,1.35502 ,2.39994 ,23.54823 
182 ,36.2986 ,1.35704 ,2.39994 ,23.54823 
183 ,36.5069 ,1.35901 ,2.36230 ,23.17887 
184 ,36.7145 ,1.36121 ,2.35203 ,23.07814 
185 ,36.9070 ,1.36314 ,2.33834 ,22.94382 
186 ,37.1151 ,1.36522 ,2.32465 ,22.80951 
187 ,37.3231 ,1.36732 ,2.32465 ,22.80951 
188 ,37.4992 ,1.36913 ,2.27674 ,22.33941 
189 ,37.6912 ,1.37095 ,2.28359 ,22.40657 
190 ,37.8831 ,1.37287 ,2.27332 ,22.30584 
191 ,38.0755 ,1.37474 ,2.23568 ,21.93647 
192 ,38.2676 ,1.37671 ,2.24252 ,22.00363 
193 ,38.4594 ,1.37860 ,2.21857 ,21.76858 
194 ,38.6516 ,1.38055 ,2.21172 ,21.70143 
195 ,38.8439 ,1.38243 ,2.21515 ,21.73500 
196 ,39.0358 ,1.38442 ,2.18435 ,21.43280 
197 ,39.2441 ,1.38650 ,2.18435 ,21.43280 
198 ,39.4521 ,1.38856 ,2.14328 ,21.02986 
199 ,39.6442 ,1.39054 ,2.14670 ,21.06344 
200 ,39.8522 ,1.39255 ,2.12275 ,20.82839 
201 ,40.0602 ,1.39462 ,2.10564 ,20.66050 
202 ,40.2524 ,1.39653 ,2.09195 ,20.52619 
203 ,40.4604 ,1.39861 ,2.09537 ,20.55976 
204 ,40.6524 ,1.40055 ,2.05773 ,20.19040 
205 ,40.8447 ,1.40243 ,2.05430 ,20.15682 
206 ,41.0526 ,1.40450 ,2.02693 ,19.88820 
207 ,41.2449 ,1.40653 ,2.03377 ,19.95535 
208 ,41.4529 ,1.40860 ,1.99955 ,19.61957 
209 ,41.6612 ,1.41064 ,1.99270 ,19.55241 
210 ,41.8530 ,1.41259 ,1.97559 ,19.38452 
211 ,42.0452 ,1.41444 ,1.98244 ,19.45168 
212 ,42.2368 ,1.41641 ,1.94137 ,19.04874 
213 ,42.4453 ,1.41838 ,1.93795 ,19.01516 
214 ,42.6374 ,1.42043 ,1.91742 ,18.81369 
215 ,42.8295 ,1.42234 ,1.90031 ,18.64580 
216 ,43.0212 ,1.42432 ,1.87635 ,18.41075 
217 ,43.2136 ,1.42612 ,1.86608 ,18.31002 
218 ,43.4051 ,1.42813 ,1.87635 ,18.41075 
219 ,43.6137 ,1.43017 ,1.83871 ,18.04139 
220 ,43.8378 ,1.43234 ,1.83528 ,18.00781 
221 ,44.0297 ,1.43435 ,1.82160 ,17.87350 
222 ,44.2380 ,1.43638 ,1.80791 ,17.73919 
223 ,44.4456 ,1.43839 ,1.78737 ,17.53772 
224 ,44.6381 ,1.44036 ,1.77369 ,17.40340 
225 ,44.8303 ,1.44231 ,1.76000 ,17.26909 
226 ,45.0224 ,1.44420 ,1.75657 ,17.23551 
227 ,45.2305 ,1.44629 ,1.73262 ,17.00046 
228 ,45.4226 ,1.44826 ,1.73604 ,17.03404 
229 ,45.6307 ,1.45031 ,1.70182 ,16.69826 
230 ,45.8385 ,1.45240 ,1.70524 ,16.73184 
231 ,46.0306 ,1.45432 ,1.67444 ,16.42963 
232 ,46.2388 ,1.45629 ,1.67786 ,16.46321 
233 ,46.4630 ,1.45846 ,1.65391 ,16.22816 
234 ,46.6549 ,1.46053 ,1.62995 ,15.99311 
235 ,46.8472 ,1.46250 ,1.62311 ,15.92596 
236 ,47.0552 ,1.46458 ,1.59916 ,15.69091 
237 ,47.2474 ,1.46646 ,1.61284 ,15.82522 
238 ,47.4553 ,1.46855 ,1.56836 ,15.38871 
239 ,47.6470 ,1.47046 ,1.59231 ,15.62375 
240 ,47.8395 ,1.47242 ,1.55467 ,15.25439 
241 ,48.0314 ,1.47429 ,1.54098 ,15.12008 
242 ,48.2237 ,1.47627 ,1.53071 ,15.01934 
243 ,48.4158 ,1.47815 ,1.49649 ,14.68356 
244 ,48.6237 ,1.48025 ,1.51702 ,14.88503 
245 ,48.7996 ,1.48206 ,1.48622 ,14.58283 
246 ,48.9917 ,1.48392 ,1.45885 ,14.31420 
247 ,49.1842 ,1.48579 ,1.46911 ,14.41493 
248 ,49.3760 ,1.48777 ,1.44174 ,14.14631 
249 ,49.5841 ,1.48984 ,1.43147 ,14.04557 
250 ,49.7922 ,1.49193 ,1.41436 ,13.87768 
251 ,49.9843 ,1.49394 ,1.42462 ,13.97842 
252 ,50.1921 ,1.49588 ,1.39383 ,13.67621 
253 ,50.4003 ,1.49792 ,1.38356 ,13.57548 
254 ,50.6085 ,1.50006 ,1.37671 ,13.50832 
255 ,50.8007 ,1.50200 ,1.33907 ,13.13896 
256 ,50.9926 ,1.50392 ,1.35276 ,13.27327 
257 ,51.1849 ,1.50582 ,1.34934 ,13.23969 
258 ,51.3767 ,1.50775 ,1.31854 ,12.93749 
259 ,51.5688 ,1.50965 ,1.33565 ,13.10538 
260 ,51.7609 ,1.51159 ,1.32196 ,12.97107 
261 ,51.9533 ,1.51351 ,1.31512 ,12.90391 
262 ,52.1449 ,1.51545 ,1.32196 ,12.97107 
263 ,52.3372 ,1.51736 ,1.30827 ,12.83675 
264 ,52.5293 ,1.51927 ,1.31512 ,12.90391 
265 ,52.7212 ,1.52116 ,1.30485 ,12.80318 
266 ,52.9135 ,1.52312 ,1.28774 ,12.63528 
267 ,53.1213 ,1.52517 ,1.29458 ,12.70244 
268 ,53.3136 ,1.52717 ,1.27747 ,12.53455 
269 ,53.5058 ,1.52906 ,1.27063 ,12.46739 
270 ,53.6980 ,1.53094 ,1.25009 ,12.26592 
271 ,53.8897 ,1.53290 ,1.26036 ,12.36666 
272 ,54.0822 ,1.53481 ,1.23298 ,12.09803 
273 ,54.2577 ,1.53664 ,1.21245 ,11.89656 
274 ,54.4500 ,1.53846 ,1.20218 ,11.79583 
275 ,54.6579 ,1.54059 ,1.17138 ,11.49362 
276 ,54.8505 ,1.54244 ,1.18850 ,11.66151 
277 ,55.0425 ,1.54441 ,1.17481 ,11.52720 
278 ,55.2505 ,1.54647 ,1.16796 ,11.46004 
279 ,55.4266 ,1.54835 ,1.14058 ,11.19142 
280 ,55.6347 ,1.55018 ,1.12005 ,10.98995 
281 ,55.8107 ,1.55217 ,1.13374 ,11.12426 
282 ,56.0023 ,1.55399 ,1.09267 ,10.72132 
283 ,56.1949 ,1.55593 ,1.09267 ,10.72132 
284 ,56.4027 ,1.55797 ,1.08241 ,10.62059 
285 ,56.5950 ,1.55992 ,1.04819 ,10.28480 
286 ,56.8031 ,1.56199 ,1.04819 ,10.28480 
287 ,56.9950 ,1.56387 ,1.02081 ,10.01618 
288 ,57.1872 ,1.56587 ,1.02765 ,10.08333 
289 ,57.3795 ,1.56776 ,1.01054 ,9.91544 
290 ,57.5713 ,1.56980 ,1.00370 ,9.84829 
291 ,57.7636 ,1.57161 ,0.99343 ,9.74755 
292 ,57.9717 ,1.57356 ,0.96948 ,9.51250 
293 ,58.1797 ,1.57576 ,0.94210 ,9.24388 
294 ,58.3878 ,1.57775 ,0.93868 ,9.21030 
295 ,58.5797 ,1.57979 ,0.92841 ,9.10956 
296 ,58.7718 ,1.58173 ,0.92157 ,9.04241 
297 ,58.9643 ,1.58362 ,0.91130 ,8.94167 
298 ,59.1563 ,1.58554 ,0.88734 ,8.70662 
299 ,59.3483 ,1.58744 ,0.89077 ,8.74020 
300 ,59.5403 ,1.58935 ,0.87023 ,8.53873 
301 ,59.7160 ,1.59121 ,0.84970 ,8.33726 
302 ,59.9245 ,1.59308 ,0.86339 ,8.47158 
303 ,60.1326 ,1.59528 ,0.83601 ,8.20295 
304 ,60.3246 ,1.59715 ,0.81890 ,8.03506 
305 ,60.5167 ,1.59908 ,0.80179 ,7.86717 
306 ,60.7088 ,1.60102 ,0.80521 ,7.90074 
307 ,60.9169 ,1.60315 ,0.77784 ,7.63212 
308 ,61.1250 ,1.60521 ,0.78126 ,7.66570 
309 ,61.3171 ,1.60713 ,0.75388 ,7.39707 
310 ,61.5411 ,1.60929 ,0.75730 ,7.43065 
311 ,61.7492 ,1.61143 ,0.73677 ,7.22918 
312 ,61.9408 ,1.61330 ,0.72992 ,7.16202 
313 ,62.1333 ,1.61523 ,0.69913 ,6.85982 
314 ,62.3253 ,1.61716 ,0.70255 ,6.89340 
315 ,62.5175 ,1.61914 ,0.67517 ,6.62477 
316 ,62.7097 ,1.62101 ,0.68544 ,6.72550 
317 ,62.9176 ,1.62313 ,0.65464 ,6.42330 
318 ,63.1097 ,1.62510 ,0.64779 ,6.35614 
319 ,63.3177 ,1.62710 ,0.63410 ,6.22183 
320 ,63.5098 ,1.62902 ,0.64095 ,6.28899 
321 ,63.7018 ,1.63101 ,0.62042 ,6.08752 
322 ,63.8942 ,1.63296 ,0.59304 ,5.81889 
323 ,64.0856 ,1.63478 ,0.59988 ,5.88605 
324 ,64.2783 ,1.63672 ,0.57251 ,5.61742 
325 ,64.4541 ,1.63861 ,0.56224 ,5.51668 
326 ,64.6465 ,1.64038 ,0.55882 ,5.48311 
327 ,64.8543 ,1.64237 ,0.53828 ,5.28164 
328 ,65.0626 ,1.64452 ,0.52802 ,5.18090 
329 ,65.2546 ,1.64651 ,0.51091 ,5.01301 
330 ,65.4625 ,1.64857 ,0.51091 ,5.01301 
331 ,65.6550 ,1.65046 ,0.48011 ,4.71081 
332 ,65.8631 ,1.65255 ,0.50064 ,4.91228 
333 ,66.0549 ,1.65450 ,0.45615 ,4.47576 
334 ,66.2467 ,1.65640 ,0.47326 ,4.64365 
335 ,66.4393 ,1.65836 ,0.43220 ,4.24071 
336 ,66.6310 ,1.66027 ,0.44246 ,4.34144 
337 ,66.8393 ,1.66228 ,0.41509 ,4.07282 
338 ,67.0313 ,1.66422 ,0.41851 ,4.10640 
339 ,67.2395 ,1.66632 ,0.40140 ,3.93850 
340 ,67.4476 ,1.66830 ,0.39113 ,3.83777 
341 ,67.6393 ,1.67030 ,0.38429 ,3.77061 
342 ,67.8478 ,1.67231 ,0.36718 ,3.60272 
343 ,68.0398 ,1.67431 ,0.36033 ,3.53557 
344 ,68.2318 ,1.67622 ,0.34664 ,3.40125 
345 ,68.4236 ,1.67810 ,0.33980 ,3.33410 
346 ,68.6161 ,1.68007 ,0.31926 ,3.13263 
347 ,68.8241 ,1.68215 ,0.31584 ,3.09905 
348 ,69.0159 ,1.68410 ,0.30215 ,2.96473 
349 ,69.2084 ,1.68601 ,0.30215 ,2.96473 
350 ,69.4324 ,1.68811 ,0.26451 ,2.59537 
351 ,69.6244 ,1.69017 ,0.27820 ,2.72969 
352 ,69.8164 ,1.69206 ,0.26451 ,2.59537 
353 ,70.0081 ,1.69403 ,0.25082 ,2.46106 
354 ,70.2001 ,1.69591 ,0.23029 ,2.25959 
355 ,70.3922 ,1.69783 ,0.22344 ,2.19243 
356 ,70.6003 ,1.70003 ,0.19949 ,1.95738 
357 ,70.8090 ,1.70200 ,0.20976 ,2.05812 
358 ,71.0650 ,1.70452 ,0.20291 ,1.99096 
359 ,71.2730 ,1.70659 ,0.17896 ,1.75592 
360 ,71.4492 ,1.70849 ,0.17553 ,1.72234 
361 ,71.6572 ,1.71044 ,0.15158 ,1.48729 
362 ,71.8493 ,1.71238 ,0.14816 ,1.45371 
363 ,72.0575 ,1.71446 ,0.11736 ,1.15151 
364 ,72.2655 ,1.71643 ,0.14473 ,1.42013 
365 ,72.4577 ,1.71847 ,0.09682 ,0.95004 
366 ,72.6496 ,1.72040 ,0.10709 ,1.05077 
367 ,72.8412 ,1.72226 ,0.08998 ,0.88288 
368 ,73.0175 ,1.72417 ,0.08314 ,0.81572 
369 ,73.2099 ,1.72594 ,0.07287 ,0.71499 
370 ,73.4018 ,1.72789 ,0.05576 ,0.54710 
371 ,73.6100 ,1.73002 ,0.05576 ,0.54710 
372 ,73.8020 ,1.73190 ,0.04549 ,0.44636 
373 ,73.9782 ,1.73378 ,0.02154 ,0.21131 
374 ,74.1703 ,1.73560 ,0.03180 ,0.31205 
375 ,74.3783 ,1.73763 ,0.00443 ,0.04342 
376 ,74.5705 ,1.73961 ,0.00443 ,0.04342 
377 ,74.7624 ,1.74150 ,-0.01611 ,-0.15805 
378 ,74.9542 ,1.74340 ,-0.02637 ,-0.25878 
379 ,75.1466 ,1.74534 ,-0.01611 ,-0.15805 
380 ,75.3547 ,1.74742 ,-0.05375 ,-0.52741 
381 ,75.5629 ,1.74946 ,-0.04691 ,-0.46025 
382 ,75.7706 ,1.75160 ,-0.05717 ,-0.56099 
383 ,75.9631 ,1.75353 ,-0.07771 ,-0.76246 
384 ,76.1709 ,1.75561 ,-0.09140 ,-0.89677 
385 ,76.3791 ,1.75770 ,-0.10166 ,-0.99751 
386 ,76.5708 ,1.75961 ,-0.10508 ,-1.03108 
387 ,76.7636 ,1.76149 ,-0.10508 ,-1.03108 
388 ,76.9553 ,1.76345 ,-0.12904 ,-1.26613 
389 ,77.1470 ,1.76536 ,-0.12219 ,-1.19898 
390 ,77.3393 ,1.76733 ,-0.15299 ,-1.50118 
391 ,77.5636 ,1.76940 ,-0.14957 ,-1.46760 
392 ,77.7875 ,1.77167 ,-0.16668 ,-1.63549 
393 ,77.9795 ,1.77364 ,-0.17695 ,-1.73623 
394 ,78.1719 ,1.77565 ,-0.18379 ,-1.80338 
395 ,78.3798 ,1.77769 ,-0.19748 ,-1.93770 
396 ,78.5879 ,1.77969 ,-0.18722 ,-1.83696 
397 ,78.7801 ,1.78166 ,-0.20775 ,-2.03843 
398 ,78.9879 ,1.78377 ,-0.21459 ,-2.10559 
399 ,79.1802 ,1.78570 ,-0.23170 ,-2.27348 
400 ,79.3718 ,1.78758 ,-0.23855 ,-2.34064 
401 ,79.5643 ,1.78949 ,-0.24881 ,-2.44137 
402 ,79.7565 ,1.79141 ,-0.27619 ,-2.71000 
403 ,79.9483 ,1.79338 ,-0.26250 ,-2.57569 
404 ,80.1406 ,1.79527 ,-0.27277 ,-2.67642 
405 ,80.3328 ,1.79722 ,-0.29673 ,-2.91147 
406 ,80.5246 ,1.79912 ,-0.29330 ,-2.87789 
407 ,80.7164 ,1.80101 ,-0.31041 ,-3.04578 
408 ,80.9089 ,1.80294 ,-0.31384 ,-3.07936 
409 ,81.1009 ,1.80488 ,-0.31726 ,-3.11294 
410 ,81.2930 ,1.80679 ,-0.34121 ,-3.34799 
411 ,81.4850 ,1.80870 ,-0.34806 ,-3.41514 
412 ,81.6933 ,1.81082 ,-0.36859 ,-3.61661 
413 ,81.9173 ,1.81294 ,-0.37201 ,-3.65019 
414 ,82.1253 ,1.81514 ,-0.35832 ,-3.51588 
415 ,82.3175 ,1.81702 ,-0.39255 ,-3.85166 
416 ,82.5256 ,1.81915 ,-0.38912 ,-3.81808 
417 ,82.7176 ,1.82104 ,-0.41650 ,-4.08671 
418 ,82.9253 ,1.82308 ,-0.40966 ,-4.01955 
419 ,83.1174 ,1.82501 ,-0.44730 ,-4.38891 
420 ,83.3095 ,1.82689 ,-0.44046 ,-4.32176 
421 ,83.5018 ,1.82887 ,-0.44046 ,-4.32176 
422 ,83.6939 ,1.83087 ,-0.47468 ,-4.65754 
423 ,83.9022 ,1.83291 ,-0.45757 ,-4.48965 
424 ,84.1103 ,1.83495 ,-0.47126 ,-4.62396 
425 ,84.3022 ,1.83693 ,-0.48152 ,-4.72470 
426 ,84.5103 ,1.83897 ,-0.50548 ,-4.95975 
427 ,84.7023 ,1.84091 ,-0.49521 ,-4.85901 
428 ,84.8785 ,1.84272 ,-0.52601 ,-5.16121 
429 ,85.0705 ,1.84452 ,-0.52601 ,-5.16121 
430 ,85.2628 ,1.84649 ,-0.52601 ,-5.16121 
431 ,85.4703 ,1.84850 ,-0.55339 ,-5.42984 
432 ,85.6627 ,1.85043 ,-0.54997 ,-5.39626 
433 ,85.8549 ,1.85239 ,-0.57050 ,-5.59773 
434 ,86.0631 ,1.85449 ,-0.57734 ,-5.66489 
435 ,86.2708 ,1.85655 ,-0.58761 ,-5.76562 
436 ,86.4630 ,1.85847 ,-0.58419 ,-5.73205 
437 ,86.6549 ,1.86041 ,-0.59788 ,-5.86636 
438 ,86.8473 ,1.86232 ,-0.60814 ,-5.96709 
439 ,87.0389 ,1.86424 ,-0.62525 ,-6.13499 
440 ,87.2311 ,1.86614 ,-0.62183 ,-6.10141 
441 ,87.4231 ,1.86805 ,-0.62525 ,-6.13499 
442 ,87.5996 ,1.86994 ,-0.64921 ,-6.37003 
443 ,87.8076 ,1.87200 ,-0.65263 ,-6.40361 
444 ,87.9995 ,1.87383 ,-0.65947 ,-6.47077 
445 ,88.1916 ,1.87585 ,-0.66290 ,-6.50435 
446 ,88.3839 ,1.87767 ,-0.65947 ,-6.47077 
447 ,88.5759 ,1.87969 ,-0.70396 ,-6.90729 
448 ,88.7837 ,1.88165 ,-0.69027 ,-6.77297 
449 ,88.9762 ,1.88354 ,-0.72107 ,-7.07518 
450 ,89.1678 ,1.88549 ,-0.71765 ,-7.04160 
451 ,89.3602 ,1.88748 ,-0.72792 ,-7.14233 
452 ,89.5681 ,1.88944 ,-0.73134 ,-7.17591 
453 ,89.7608 ,1.89144 ,-0.74161 ,-7.27665 
454 ,89.9685 ,1.89338 ,-0.75872 ,-7.44454 
455 ,90.1607 ,1.89542 ,-0.75872 ,-7.44454 
456 ,90.3687 ,1.89755 ,-0.77925 ,-7.64601 
457 ,90.5609 ,1.89944 ,-0.78952 ,-7.74674 
458 ,90.7689 ,1.90141 ,-0.80663 ,-7.91464 
459 ,90.9609 ,1.90348 ,-0.80321 ,-7.88106 
460 ,91.1691 ,1.90540 ,-0.82374 ,-8.08253 
461 ,91.3608 ,1.90745 ,-0.81347 ,-7.98179 
462 ,91.5531 ,1.90937 ,-0.83743 ,-8.21684 
463 ,91.7614 ,1.91142 ,-0.84427 ,-8.28400 
