Data stamp = , 30-04-2022 23:43:51 869

Calibration Values: 
Slope = , 26.54 , g/V 
Offset Voltage at no contact = , -0.501760 , V 

No , Time , Stage Position ,   Mass , Force 
   ,  (s) ,      (mm)      ,   (g)  , (mN)  

1 ,0.0000 ,0.99948 ,5.42856 ,53.26503 
2 ,0.2125 ,0.99955 ,5.43198 ,53.29861 
3 ,0.7249 ,1.00152 ,5.40460 ,53.02998 
4 ,0.9492 ,1.00361 ,5.41829 ,53.16429 
5 ,1.1413 ,1.00561 ,5.39434 ,52.92925 
6 ,1.3489 ,1.00762 ,5.41829 ,53.16429 
7 ,1.5412 ,1.00953 ,5.37038 ,52.69420 
8 ,1.7335 ,1.01150 ,5.37723 ,52.76135 
9 ,1.9254 ,1.01339 ,5.34301 ,52.42557 
10 ,2.1177 ,1.01535 ,5.32932 ,52.29126 
11 ,2.3096 ,1.01730 ,5.32589 ,52.25768 
12 ,2.5019 ,1.01918 ,5.27798 ,51.78758 
13 ,2.6938 ,1.02119 ,5.28141 ,51.82116 
14 ,2.8860 ,1.02309 ,5.26430 ,51.65327 
15 ,3.0940 ,1.02506 ,5.23350 ,51.35107 
16 ,3.2862 ,1.02704 ,5.21981 ,51.21675 
17 ,3.4940 ,1.02915 ,5.19243 ,50.94813 
18 ,3.6864 ,1.03106 ,5.16163 ,50.64592 
19 ,3.8943 ,1.03310 ,5.14794 ,50.51161 
20 ,4.0865 ,1.03507 ,5.13425 ,50.37729 
21 ,4.2785 ,1.03701 ,5.10003 ,50.04151 
22 ,4.4543 ,1.03884 ,5.10688 ,50.10867 
23 ,4.6303 ,1.04059 ,5.07950 ,49.84004 
24 ,4.8228 ,1.04239 ,5.05897 ,49.63857 
25 ,5.0469 ,1.04467 ,5.05554 ,49.60499 
26 ,5.2548 ,1.04670 ,5.03159 ,49.36995 
27 ,5.4468 ,1.04867 ,4.98710 ,48.93343 
28 ,5.6547 ,1.05059 ,4.96999 ,48.76554 
29 ,5.8312 ,1.05262 ,4.95288 ,48.59764 
30 ,6.0554 ,1.05467 ,4.93919 ,48.46333 
31 ,6.2636 ,1.05676 ,4.90497 ,48.12755 
32 ,6.4555 ,1.05875 ,4.89470 ,48.02681 
33 ,6.6635 ,1.06082 ,4.88444 ,47.92608 
34 ,6.8557 ,1.06270 ,4.86048 ,47.69103 
35 ,7.0637 ,1.06480 ,4.84337 ,47.52314 
36 ,7.2559 ,1.06674 ,4.82284 ,47.32167 
37 ,7.4634 ,1.06880 ,4.82626 ,47.35525 
38 ,7.6558 ,1.07075 ,4.77835 ,46.88515 
39 ,7.8476 ,1.07272 ,4.76466 ,46.75084 
40 ,8.0397 ,1.07458 ,4.74755 ,46.58295 
41 ,8.2158 ,1.07642 ,4.73728 ,46.48221 
42 ,8.4239 ,1.07834 ,4.71675 ,46.28074 
43 ,8.6163 ,1.08036 ,4.68595 ,45.97854 
44 ,8.8243 ,1.08238 ,4.68253 ,45.94496 
45 ,9.0165 ,1.08435 ,4.65515 ,45.67633 
46 ,9.2086 ,1.08627 ,4.64488 ,45.57560 
47 ,9.4008 ,1.08818 ,4.63804 ,45.50844 
48 ,9.5928 ,1.09006 ,4.61066 ,45.23981 
49 ,9.7848 ,1.09202 ,4.60724 ,45.20624 
50 ,9.9768 ,1.09392 ,4.57302 ,44.87045 
51 ,10.1690 ,1.09586 ,4.57302 ,44.87045 
52 ,10.3771 ,1.09793 ,4.53195 ,44.46751 
53 ,10.5692 ,1.09987 ,4.52169 ,44.36678 
54 ,10.7613 ,1.10180 ,4.50115 ,44.16531 
55 ,10.9694 ,1.10385 ,4.50457 ,44.19889 
56 ,11.1615 ,1.10580 ,4.46009 ,43.76237 
57 ,11.3536 ,1.10764 ,4.44298 ,43.59448 
58 ,11.5456 ,1.10955 ,4.44640 ,43.62806 
59 ,11.7377 ,1.11150 ,4.41218 ,43.29227 
60 ,11.9457 ,1.11357 ,4.41218 ,43.29227 
61 ,12.1219 ,1.11547 ,4.37453 ,42.92291 
62 ,12.3139 ,1.11727 ,4.36084 ,42.78860 
63 ,12.5220 ,1.11939 ,4.35400 ,42.72144 
64 ,12.7300 ,1.12146 ,4.31978 ,42.38566 
65 ,12.9383 ,1.12354 ,4.30609 ,42.25135 
66 ,13.1464 ,1.12560 ,4.28898 ,42.08345 
67 ,13.3379 ,1.12755 ,4.27187 ,41.91556 
68 ,13.5300 ,1.12943 ,4.25476 ,41.74767 
69 ,13.7226 ,1.13133 ,4.25133 ,41.71409 
70 ,13.9144 ,1.13326 ,4.21027 ,41.31115 
71 ,14.1067 ,1.13525 ,4.22396 ,41.44547 
72 ,14.2987 ,1.13714 ,4.18974 ,41.10968 
73 ,14.4906 ,1.13911 ,4.17947 ,41.00895 
74 ,14.6829 ,1.14100 ,4.16236 ,40.84106 
75 ,14.8750 ,1.14293 ,4.13840 ,40.60601 
76 ,15.0509 ,1.14476 ,4.13156 ,40.53885 
77 ,15.2429 ,1.14656 ,4.13156 ,40.53885 
78 ,15.4348 ,1.14847 ,4.09391 ,40.16949 
79 ,15.6274 ,1.15042 ,4.08023 ,40.03518 
80 ,15.8351 ,1.15249 ,4.04943 ,39.73297 
81 ,16.0276 ,1.15443 ,4.04943 ,39.73297 
82 ,16.2354 ,1.15641 ,4.03916 ,39.63224 
83 ,16.4278 ,1.15844 ,4.00494 ,39.29646 
84 ,16.6197 ,1.16033 ,4.00494 ,39.29646 
85 ,16.8118 ,1.16226 ,3.96729 ,38.92709 
86 ,17.0200 ,1.16434 ,3.97414 ,38.99425 
87 ,17.2279 ,1.16642 ,3.94334 ,38.69205 
88 ,17.4200 ,1.16832 ,3.93992 ,38.65847 
89 ,17.6118 ,1.17027 ,3.89885 ,38.25553 
90 ,17.8042 ,1.17218 ,3.88858 ,38.15479 
91 ,18.0283 ,1.17429 ,3.86805 ,37.95332 
92 ,18.2204 ,1.17632 ,3.85436 ,37.81901 
93 ,18.4125 ,1.17823 ,3.83041 ,37.58396 
94 ,18.6046 ,1.18018 ,3.83725 ,37.65112 
95 ,18.7805 ,1.18205 ,3.80645 ,37.34891 
96 ,18.9736 ,1.18384 ,3.77908 ,37.08029 
97 ,19.1809 ,1.18594 ,3.77908 ,37.08029 
98 ,19.3734 ,1.18786 ,3.75512 ,36.84524 
99 ,19.5810 ,1.18995 ,3.74143 ,36.71093 
100 ,19.7887 ,1.19203 ,3.71748 ,36.47588 
101 ,19.9810 ,1.19397 ,3.71405 ,36.44230 
102 ,20.1893 ,1.19601 ,3.68325 ,36.14010 
103 ,20.3814 ,1.19797 ,3.67299 ,36.03936 
104 ,20.5894 ,1.20001 ,3.64561 ,35.77073 
105 ,20.7815 ,1.20192 ,3.63877 ,35.70358 
106 ,20.9735 ,1.20387 ,3.60797 ,35.40137 
107 ,21.1656 ,1.20578 ,3.60112 ,35.33422 
108 ,21.3577 ,1.20769 ,3.59086 ,35.23348 
109 ,21.5498 ,1.20958 ,3.54637 ,34.79696 
110 ,21.7415 ,1.21156 ,3.55321 ,34.86412 
111 ,21.9336 ,1.21344 ,3.53268 ,34.66265 
112 ,22.1260 ,1.21540 ,3.50872 ,34.42760 
113 ,22.3338 ,1.21745 ,3.50530 ,34.39402 
114 ,22.5262 ,1.21938 ,3.48819 ,34.22613 
115 ,22.7339 ,1.22143 ,3.47450 ,34.09182 
116 ,22.9263 ,1.22337 ,3.45055 ,33.85677 
117 ,23.1183 ,1.22527 ,3.44713 ,33.82319 
118 ,23.3105 ,1.22726 ,3.40948 ,33.45383 
119 ,23.5184 ,1.22929 ,3.41633 ,33.52099 
120 ,23.7106 ,1.23118 ,3.37868 ,33.15163 
121 ,23.9186 ,1.23328 ,3.38553 ,33.21878 
122 ,24.1264 ,1.23529 ,3.35815 ,32.95016 
123 ,24.3186 ,1.23732 ,3.35473 ,32.91658 
124 ,24.5270 ,1.23935 ,3.32051 ,32.58080 
125 ,24.7188 ,1.24128 ,3.30682 ,32.44648 
126 ,24.9111 ,1.24321 ,3.28628 ,32.24501 
127 ,25.1194 ,1.24529 ,3.28628 ,32.24501 
128 ,25.3427 ,1.24755 ,3.23495 ,31.74134 
129 ,25.5188 ,1.24942 ,3.25206 ,31.90923 
130 ,25.7111 ,1.25121 ,3.22811 ,31.67418 
131 ,25.9513 ,1.25359 ,3.20757 ,31.47271 
132 ,26.1435 ,1.25551 ,3.19046 ,31.30482 
133 ,26.3353 ,1.25738 ,3.18362 ,31.23766 
134 ,26.5278 ,1.25942 ,3.15282 ,30.93546 
135 ,26.7356 ,1.26144 ,3.14597 ,30.86830 
136 ,26.9280 ,1.26338 ,3.11860 ,30.59968 
137 ,27.1200 ,1.26532 ,3.12886 ,30.70041 
138 ,27.3120 ,1.26718 ,3.10149 ,30.43178 
139 ,27.4876 ,1.26906 ,3.06042 ,30.02884 
140 ,27.6803 ,1.27087 ,3.07411 ,30.16316 
141 ,27.8883 ,1.27300 ,3.02620 ,29.69306 
142 ,28.0965 ,1.27506 ,3.02962 ,29.72664 
143 ,28.2885 ,1.27699 ,3.00567 ,29.49159 
144 ,28.4804 ,1.27890 ,3.00567 ,29.49159 
145 ,28.6887 ,1.28089 ,2.98855 ,29.32370 
146 ,28.8965 ,1.28304 ,2.98171 ,29.25654 
147 ,29.0887 ,1.28501 ,2.94407 ,28.88718 
148 ,29.2809 ,1.28691 ,2.92011 ,28.65213 
149 ,29.4890 ,1.28890 ,2.93038 ,28.75287 
150 ,29.7128 ,1.29125 ,2.90300 ,28.48424 
151 ,29.9210 ,1.29333 ,2.88247 ,28.28277 
152 ,30.1290 ,1.29540 ,2.85851 ,28.04772 
153 ,30.3212 ,1.29725 ,2.83798 ,27.84625 
154 ,30.5130 ,1.29916 ,2.84482 ,27.91341 
155 ,30.6889 ,1.30109 ,2.81745 ,27.64479 
156 ,30.8815 ,1.30291 ,2.79349 ,27.40974 
157 ,31.0896 ,1.30498 ,2.77296 ,27.20827 
158 ,31.2817 ,1.30689 ,2.76611 ,27.14111 
159 ,31.4738 ,1.30880 ,2.76954 ,27.17469 
160 ,31.6658 ,1.31072 ,2.74558 ,26.93964 
161 ,31.8579 ,1.31266 ,2.72163 ,26.70459 
162 ,32.0495 ,1.31463 ,2.72163 ,26.70459 
163 ,32.2421 ,1.31646 ,2.68740 ,26.36881 
164 ,32.4500 ,1.31853 ,2.67714 ,26.26807 
165 ,32.6423 ,1.32050 ,2.65660 ,26.06661 
166 ,32.8340 ,1.32238 ,2.65660 ,26.06661 
167 ,33.0264 ,1.32435 ,2.62923 ,25.79798 
168 ,33.2343 ,1.32643 ,2.63949 ,25.89871 
169 ,33.4266 ,1.32839 ,2.59501 ,25.46220 
170 ,33.6345 ,1.33043 ,2.58474 ,25.36146 
171 ,33.8262 ,1.33238 ,2.57447 ,25.26073 
172 ,34.0183 ,1.33428 ,2.55394 ,25.05926 
173 ,34.2107 ,1.33619 ,2.55394 ,25.05926 
174 ,34.4189 ,1.33828 ,2.51972 ,24.72347 
175 ,34.6429 ,1.34044 ,2.49576 ,24.48842 
176 ,34.8510 ,1.34258 ,2.49918 ,24.52200 
177 ,35.0587 ,1.34467 ,2.47181 ,24.25338 
178 ,35.2510 ,1.34662 ,2.46839 ,24.21980 
179 ,35.4594 ,1.34869 ,2.43759 ,23.91759 
180 ,35.6514 ,1.35059 ,2.44101 ,23.95117 
181 ,35.8433 ,1.35248 ,2.41363 ,23.68255 
182 ,36.0356 ,1.35442 ,2.39994 ,23.54823 
183 ,36.2436 ,1.35647 ,2.38283 ,23.38034 
184 ,36.4515 ,1.35856 ,2.38283 ,23.38034 
185 ,36.6436 ,1.36047 ,2.35203 ,23.07814 
186 ,36.8518 ,1.36258 ,2.34519 ,23.01098 
187 ,37.0598 ,1.36468 ,2.31097 ,22.67520 
188 ,37.2516 ,1.36656 ,2.31097 ,22.67520 
189 ,37.4439 ,1.36848 ,2.30412 ,22.60804 
190 ,37.6361 ,1.37036 ,2.28359 ,22.40657 
191 ,37.8281 ,1.37232 ,2.28359 ,22.40657 
192 ,38.0525 ,1.37452 ,2.26306 ,22.20510 
193 ,38.2606 ,1.37668 ,2.23226 ,21.90290 
194 ,38.4524 ,1.37864 ,2.21515 ,21.73500 
195 ,38.6607 ,1.38063 ,2.20146 ,21.60069 
196 ,38.8525 ,1.38258 ,2.20830 ,21.66785 
197 ,39.0448 ,1.38450 ,2.18435 ,21.43280 
198 ,39.2529 ,1.38659 ,2.17066 ,21.29849 
199 ,39.4445 ,1.38850 ,2.16381 ,21.23133 
200 ,39.6370 ,1.39046 ,2.13301 ,20.92912 
201 ,39.8291 ,1.39236 ,2.14670 ,21.06344 
202 ,40.0372 ,1.39447 ,2.10221 ,20.62692 
203 ,40.2293 ,1.39637 ,2.09879 ,20.59334 
204 ,40.4373 ,1.39841 ,2.07141 ,20.32472 
205 ,40.6293 ,1.40032 ,2.07484 ,20.35829 
206 ,40.8213 ,1.40226 ,2.05430 ,20.15682 
207 ,41.0134 ,1.40417 ,2.02693 ,19.88820 
208 ,41.2217 ,1.40625 ,2.01324 ,19.75388 
209 ,41.4137 ,1.40817 ,1.99270 ,19.55241 
210 ,41.5894 ,1.41007 ,2.00297 ,19.65315 
211 ,41.7819 ,1.41192 ,1.97559 ,19.38452 
212 ,41.9899 ,1.41390 ,1.96533 ,19.28379 
213 ,42.1820 ,1.41597 ,1.93795 ,19.01516 
214 ,42.3743 ,1.41776 ,1.92084 ,18.84727 
215 ,42.5822 ,1.41991 ,1.94479 ,19.08232 
216 ,42.7741 ,1.42171 ,1.90373 ,18.67938 
217 ,42.9662 ,1.42367 ,1.90031 ,18.64580 
218 ,43.1584 ,1.42562 ,1.88319 ,18.47791 
219 ,43.3504 ,1.42756 ,1.86266 ,18.27644 
220 ,43.5424 ,1.42945 ,1.85924 ,18.24286 
221 ,43.7344 ,1.43136 ,1.83871 ,18.04139 
222 ,43.9423 ,1.43343 ,1.84555 ,18.10855 
223 ,44.1346 ,1.43533 ,1.80449 ,17.70561 
224 ,44.3268 ,1.43731 ,1.79764 ,17.63845 
225 ,44.5189 ,1.43921 ,1.78053 ,17.47056 
226 ,44.7270 ,1.44119 ,1.77369 ,17.40340 
227 ,44.9186 ,1.44321 ,1.76000 ,17.26909 
228 ,45.1111 ,1.44512 ,1.73604 ,17.03404 
229 ,45.3034 ,1.44705 ,1.74631 ,17.13478 
230 ,45.5113 ,1.44916 ,1.70524 ,16.73184 
231 ,45.7032 ,1.45107 ,1.70182 ,16.69826 
232 ,45.8955 ,1.45298 ,1.68129 ,16.49679 
233 ,46.0877 ,1.45493 ,1.67786 ,16.46321 
234 ,46.2955 ,1.45697 ,1.64364 ,16.12743 
235 ,46.4877 ,1.45893 ,1.65733 ,16.26174 
236 ,46.6796 ,1.46082 ,1.65391 ,16.22816 
237 ,46.8719 ,1.46283 ,1.62311 ,15.92596 
238 ,47.0795 ,1.46490 ,1.58889 ,15.59018 
239 ,47.2721 ,1.46674 ,1.59231 ,15.62375 
240 ,47.4640 ,1.46863 ,1.58889 ,15.59018 
241 ,47.6563 ,1.47063 ,1.56493 ,15.35513 
242 ,47.8482 ,1.47258 ,1.56151 ,15.32155 
243 ,48.0404 ,1.47439 ,1.54782 ,15.18724 
244 ,48.2322 ,1.47634 ,1.52045 ,14.91861 
245 ,48.4245 ,1.47828 ,1.52045 ,14.91861 
246 ,48.6325 ,1.48029 ,1.46911 ,14.41493 
247 ,48.8247 ,1.48226 ,1.49649 ,14.68356 
248 ,49.0328 ,1.48433 ,1.46227 ,14.34778 
249 ,49.2404 ,1.48642 ,1.46227 ,14.34778 
250 ,49.4329 ,1.48838 ,1.44174 ,14.14631 
251 ,49.6250 ,1.49028 ,1.42805 ,14.01199 
252 ,49.8169 ,1.49223 ,1.41778 ,13.91126 
253 ,50.0251 ,1.49423 ,1.41436 ,13.87768 
254 ,50.2172 ,1.49620 ,1.40067 ,13.74337 
255 ,50.4093 ,1.49812 ,1.37671 ,13.50832 
256 ,50.6014 ,1.50013 ,1.36987 ,13.44116 
257 ,50.7934 ,1.50191 ,1.34249 ,13.17254 
258 ,51.0175 ,1.50421 ,1.33907 ,13.13896 
259 ,51.2255 ,1.50625 ,1.32196 ,12.97107 
260 ,51.4172 ,1.50815 ,1.30827 ,12.83675 
261 ,51.6098 ,1.51012 ,1.28774 ,12.63528 
262 ,51.8179 ,1.51207 ,1.29458 ,12.70244 
263 ,52.0259 ,1.51425 ,1.27063 ,12.46739 
264 ,52.2181 ,1.51621 ,1.27405 ,12.50097 
265 ,52.4102 ,1.51813 ,1.22272 ,11.99730 
266 ,52.6183 ,1.52019 ,1.23298 ,12.09803 
267 ,52.8262 ,1.52227 ,1.21929 ,11.96372 
268 ,53.0183 ,1.52421 ,1.20218 ,11.79583 
269 ,53.2103 ,1.52610 ,1.18507 ,11.62794 
270 ,53.4026 ,1.52799 ,1.18850 ,11.66151 
271 ,53.5942 ,1.52989 ,1.15770 ,11.35931 
272 ,53.7867 ,1.53188 ,1.15085 ,11.29215 
273 ,53.9946 ,1.53390 ,1.14401 ,11.22500 
274 ,54.1868 ,1.53586 ,1.12005 ,10.98995 
275 ,54.3785 ,1.53775 ,1.12690 ,11.05710 
276 ,54.5711 ,1.53967 ,1.10294 ,10.82206 
277 ,54.7631 ,1.54164 ,1.08241 ,10.62059 
278 ,54.9869 ,1.54374 ,1.06530 ,10.45270 
279 ,55.1951 ,1.54596 ,1.05845 ,10.38554 
280 ,55.3874 ,1.54788 ,1.03108 ,10.11691 
281 ,55.6115 ,1.54994 ,1.03108 ,10.11691 
282 ,55.8035 ,1.55198 ,1.01739 ,9.98260 
283 ,55.9956 ,1.55390 ,0.99685 ,9.78113 
284 ,56.2036 ,1.55601 ,1.00370 ,9.84829 
285 ,56.3957 ,1.55792 ,0.97974 ,9.61324 
286 ,56.6038 ,1.56002 ,0.96948 ,9.51250 
287 ,56.7957 ,1.56189 ,0.96948 ,9.51250 
288 ,56.9880 ,1.56391 ,0.92841 ,9.10956 
289 ,57.1961 ,1.56595 ,0.93868 ,9.21030 
290 ,57.3881 ,1.56789 ,0.90103 ,8.84094 
291 ,57.5803 ,1.56980 ,0.90788 ,8.90809 
292 ,57.7883 ,1.57187 ,0.87708 ,8.60589 
293 ,57.9804 ,1.57374 ,0.88050 ,8.63947 
294 ,58.1725 ,1.57569 ,0.87366 ,8.57231 
295 ,58.3485 ,1.57756 ,0.84970 ,8.33726 
296 ,58.5566 ,1.57939 ,0.84286 ,8.27011 
297 ,58.7488 ,1.58148 ,0.82575 ,8.10221 
298 ,58.9725 ,1.58366 ,0.82232 ,8.06864 
299 ,59.1648 ,1.58565 ,0.79837 ,7.83359 
300 ,59.3729 ,1.58774 ,0.78810 ,7.73285 
301 ,59.5650 ,1.58965 ,0.76072 ,7.46423 
302 ,59.7571 ,1.59153 ,0.77441 ,7.59854 
303 ,59.9493 ,1.59347 ,0.75046 ,7.36349 
304 ,60.1408 ,1.59538 ,0.74704 ,7.32991 
305 ,60.3333 ,1.59728 ,0.72308 ,7.09486 
306 ,60.5254 ,1.59925 ,0.69228 ,6.79266 
307 ,60.7176 ,1.60111 ,0.70597 ,6.92697 
308 ,60.9256 ,1.60327 ,0.69913 ,6.85982 
309 ,61.1178 ,1.60522 ,0.69228 ,6.79266 
310 ,61.3256 ,1.60729 ,0.66148 ,6.49046 
311 ,61.5339 ,1.60929 ,0.65806 ,6.45688 
312 ,61.7259 ,1.61121 ,0.62384 ,6.12109 
313 ,61.9335 ,1.61325 ,0.64095 ,6.28899 
314 ,62.1581 ,1.61544 ,0.62726 ,6.15467 
315 ,62.3662 ,1.61762 ,0.59646 ,5.85247 
316 ,62.5742 ,1.61968 ,0.60673 ,5.95320 
317 ,62.7823 ,1.62174 ,0.58962 ,5.78531 
318 ,62.9745 ,1.62373 ,0.57935 ,5.68458 
319 ,63.1666 ,1.62566 ,0.53828 ,5.28164 
320 ,63.3741 ,1.62768 ,0.55539 ,5.44953 
321 ,63.5668 ,1.62966 ,0.52459 ,5.14732 
322 ,63.7587 ,1.63159 ,0.52459 ,5.14732 
323 ,63.9508 ,1.63342 ,0.51091 ,5.01301 
324 ,64.1429 ,1.63536 ,0.50406 ,4.94585 
325 ,64.3510 ,1.63748 ,0.49380 ,4.84512 
326 ,64.5430 ,1.63934 ,0.48695 ,4.77796 
327 ,64.7351 ,1.64134 ,0.46300 ,4.54291 
328 ,64.9272 ,1.64320 ,0.45957 ,4.50934 
329 ,65.1514 ,1.64542 ,0.43904 ,4.30787 
330 ,65.3594 ,1.64755 ,0.42535 ,4.17355 
331 ,65.5510 ,1.64947 ,0.41509 ,4.07282 
332 ,65.7434 ,1.65137 ,0.38771 ,3.80419 
333 ,65.9356 ,1.65329 ,0.40140 ,3.93850 
334 ,66.1278 ,1.65519 ,0.37060 ,3.63630 
335 ,66.3198 ,1.65715 ,0.36033 ,3.53557 
336 ,66.5119 ,1.65909 ,0.37060 ,3.63630 
337 ,66.7039 ,1.66091 ,0.33638 ,3.30052 
338 ,66.8957 ,1.66293 ,0.33980 ,3.33410 
339 ,67.0878 ,1.66481 ,0.33295 ,3.26694 
340 ,67.2799 ,1.66670 ,0.31926 ,3.13263 
341 ,67.4559 ,1.66860 ,0.31242 ,3.06547 
342 ,67.6480 ,1.67042 ,0.29531 ,2.89758 
343 ,67.8560 ,1.67250 ,0.28504 ,2.79684 
344 ,68.0642 ,1.67454 ,0.26793 ,2.62895 
345 ,68.2402 ,1.67642 ,0.26451 ,2.59537 
346 ,68.4323 ,1.67824 ,0.24398 ,2.39390 
347 ,68.6243 ,1.68017 ,0.23713 ,2.32675 
348 ,68.8165 ,1.68212 ,0.23713 ,2.32675 
349 ,68.9928 ,1.68400 ,0.21660 ,2.12528 
350 ,69.2009 ,1.68597 ,0.20976 ,2.05812 
351 ,69.3930 ,1.68779 ,0.19607 ,1.92381 
352 ,69.5852 ,1.68977 ,0.18238 ,1.78949 
353 ,69.7930 ,1.69190 ,0.18580 ,1.82307 
354 ,69.9853 ,1.69380 ,0.15842 ,1.55445 
355 ,70.1774 ,1.69569 ,0.15842 ,1.55445 
356 ,70.3696 ,1.69759 ,0.14131 ,1.38655 
357 ,70.5776 ,1.69970 ,0.13447 ,1.31940 
358 ,70.7694 ,1.70164 ,0.12078 ,1.18508 
359 ,70.9613 ,1.70352 ,0.08656 ,0.84930 
360 ,71.1537 ,1.70543 ,0.10367 ,1.01719 
361 ,71.3617 ,1.70754 ,0.08314 ,0.81572 
362 ,71.5539 ,1.70944 ,0.08998 ,0.88288 
363 ,71.7459 ,1.71136 ,0.06945 ,0.68141 
364 ,71.9380 ,1.71328 ,0.04549 ,0.44636 
365 ,72.1297 ,1.71516 ,0.05234 ,0.51352 
366 ,72.3383 ,1.71729 ,0.03522 ,0.34563 
367 ,72.5463 ,1.71938 ,0.02154 ,0.21131 
368 ,72.7385 ,1.72134 ,0.02154 ,0.21131 
369 ,72.9301 ,1.72324 ,0.01469 ,0.14416 
370 ,73.1386 ,1.72516 ,-0.01611 ,-0.15805 
371 ,73.3466 ,1.72732 ,-0.02295 ,-0.22520 
372 ,73.5545 ,1.72943 ,-0.01269 ,-0.12447 
373 ,73.7468 ,1.73140 ,-0.04348 ,-0.42667 
374 ,73.9545 ,1.73343 ,-0.03664 ,-0.35952 
375 ,74.1470 ,1.73535 ,-0.05033 ,-0.49383 
376 ,74.3550 ,1.73747 ,-0.06060 ,-0.59457 
377 ,74.5469 ,1.73940 ,-0.07771 ,-0.76246 
378 ,74.7392 ,1.74130 ,-0.07428 ,-0.72888 
379 ,74.9313 ,1.74319 ,-0.08797 ,-0.86319 
380 ,75.1232 ,1.74525 ,-0.12219 ,-1.19898 
381 ,75.3154 ,1.74704 ,-0.11193 ,-1.09824 
382 ,75.5396 ,1.74914 ,-0.13931 ,-1.36687 
383 ,75.7476 ,1.75138 ,-0.14273 ,-1.40045 
384 ,75.9397 ,1.75331 ,-0.15984 ,-1.56834 
385 ,76.1318 ,1.75522 ,-0.14957 ,-1.46760 
386 ,76.3238 ,1.75714 ,-0.17353 ,-1.70265 
387 ,76.5317 ,1.75918 ,-0.18037 ,-1.76981 
388 ,76.7240 ,1.76112 ,-0.19748 ,-1.93770 
389 ,76.9160 ,1.76306 ,-0.18722 ,-1.83696 
390 ,77.1401 ,1.76529 ,-0.20775 ,-2.03843 
391 ,77.3482 ,1.76727 ,-0.20090 ,-1.97128 
392 ,77.5399 ,1.76930 ,-0.23513 ,-2.30706 
393 ,77.7324 ,1.77124 ,-0.22486 ,-2.20632 
394 ,77.9562 ,1.77336 ,-0.26250 ,-2.57569 
395 ,78.1645 ,1.77557 ,-0.26935 ,-2.64284 
396 ,78.3566 ,1.77740 ,-0.25224 ,-2.47495 
397 ,78.5487 ,1.77937 ,-0.27277 ,-2.67642 
398 ,78.7246 ,1.78125 ,-0.29330 ,-2.87789 
399 ,78.9168 ,1.78301 ,-0.30357 ,-2.97863 
400 ,79.1246 ,1.78503 ,-0.29330 ,-2.87789 
401 ,79.3169 ,1.78708 ,-0.31726 ,-3.11294 
402 ,79.5088 ,1.78902 ,-0.31384 ,-3.07936 
403 ,79.7007 ,1.79091 ,-0.34464 ,-3.38156 
404 ,79.8930 ,1.79285 ,-0.33779 ,-3.31441 
405 ,80.0693 ,1.79473 ,-0.36517 ,-3.58303 
406 ,80.2611 ,1.79653 ,-0.35832 ,-3.51588 
407 ,80.4692 ,1.79859 ,-0.36517 ,-3.58303 
408 ,80.6611 ,1.80058 ,-0.38912 ,-3.81808 
409 ,80.8531 ,1.80234 ,-0.37544 ,-3.68377 
410 ,81.0454 ,1.80432 ,-0.40966 ,-4.01955 
411 ,81.2537 ,1.80645 ,-0.41650 ,-4.08671 
412 ,81.4458 ,1.80833 ,-0.41992 ,-4.12029 
413 ,81.6537 ,1.81046 ,-0.43019 ,-4.22102 
414 ,81.8459 ,1.81238 ,-0.43361 ,-4.25460 
415 ,82.0380 ,1.81426 ,-0.46441 ,-4.55681 
416 ,82.2460 ,1.81629 ,-0.46441 ,-4.55681 
417 ,82.4381 ,1.81826 ,-0.48494 ,-4.75828 
418 ,82.6303 ,1.82020 ,-0.46783 ,-4.59038 
419 ,82.8384 ,1.82225 ,-0.49521 ,-4.85901 
420 ,83.0301 ,1.82418 ,-0.49521 ,-4.85901 
421 ,83.2386 ,1.82617 ,-0.52601 ,-5.16121 
422 ,83.4466 ,1.82834 ,-0.51917 ,-5.09406 
423 ,83.6546 ,1.83038 ,-0.51917 ,-5.09406 
424 ,83.8466 ,1.83238 ,-0.53970 ,-5.29553 
425 ,84.0389 ,1.83428 ,-0.54997 ,-5.39626 
426 ,84.2310 ,1.83626 ,-0.53285 ,-5.22837 
427 ,84.4391 ,1.83828 ,-0.56365 ,-5.53058 
428 ,84.6310 ,1.84018 ,-0.56365 ,-5.53058 
429 ,84.8232 ,1.84210 ,-0.58761 ,-5.76562 
430 ,85.0154 ,1.84403 ,-0.58419 ,-5.73205 
431 ,85.2231 ,1.84602 ,-0.60472 ,-5.93352 
432 ,85.4155 ,1.84804 ,-0.59445 ,-5.83278 
433 ,85.6233 ,1.85008 ,-0.62525 ,-6.13499 
434 ,85.8152 ,1.85200 ,-0.62868 ,-6.16856 
435 ,86.0232 ,1.85404 ,-0.63894 ,-6.26930 
436 ,86.2154 ,1.85601 ,-0.63894 ,-6.26930 
437 ,86.4558 ,1.85846 ,-0.65947 ,-6.47077 
438 ,86.6639 ,1.86051 ,-0.67659 ,-6.63866 
439 ,86.8561 ,1.86244 ,-0.66632 ,-6.53793 
440 ,87.0640 ,1.86456 ,-0.69370 ,-6.80655 
441 ,87.2563 ,1.86639 ,-0.69027 ,-6.77297 
442 ,87.4481 ,1.86840 ,-0.71423 ,-7.00802 
443 ,87.6402 ,1.87023 ,-0.71423 ,-7.00802 
444 ,87.8325 ,1.87214 ,-0.70054 ,-6.87371 
445 ,88.0245 ,1.87413 ,-0.73476 ,-7.20949 
446 ,88.2166 ,1.87601 ,-0.74503 ,-7.31023 
447 ,88.4087 ,1.87796 ,-0.73818 ,-7.24307 
448 ,88.6167 ,1.88007 ,-0.76214 ,-7.47812 
449 ,88.8088 ,1.88200 ,-0.74503 ,-7.31023 
450 ,89.0327 ,1.88396 ,-0.77925 ,-7.64601 
451 ,89.2248 ,1.88605 ,-0.78952 ,-7.74674 
452 ,89.4170 ,1.88802 ,-0.79978 ,-7.84748 
453 ,89.6086 ,1.88994 ,-0.80321 ,-7.88106 
454 ,89.8171 ,1.89191 ,-0.81689 ,-8.01537 
455 ,90.0093 ,1.89396 ,-0.81005 ,-7.94821 
456 ,90.2174 ,1.89605 ,-0.83401 ,-8.18326 
457 ,90.4255 ,1.89810 ,-0.84427 ,-8.28400 
458 ,90.6176 ,1.90007 ,-0.85454 ,-8.38473 
459 ,90.8097 ,1.90199 ,-0.84769 ,-8.31758 
460 ,91.0177 ,1.90401 ,-0.87849 ,-8.61978 
461 ,91.2258 ,1.90612 ,-0.88534 ,-8.68694 
462 ,91.4179 ,1.90803 ,-0.88534 ,-8.68694 
463 ,91.6097 ,1.90997 ,-0.87849 ,-8.61978 
