Data stamp = , 01-05-2022 10:37:41 247

Calibration Values: 
Slope = , 26.54 , g/V 
Offset Voltage at no contact = , -0.501760 , V 

No , Time , Stage Position ,   Mass , Force 
   ,  (s) ,      (mm)      ,   (g)  , (mN)  

1 ,0.0000 ,0.99945 ,5.41487 ,53.13072 
2 ,0.2473 ,0.99952 ,5.38407 ,52.82851 
3 ,0.7760 ,1.00172 ,5.40803 ,53.06356 
4 ,1.0002 ,1.00405 ,5.39434 ,52.92925 
5 ,1.1924 ,1.00602 ,5.39434 ,52.92925 
6 ,1.3842 ,1.00791 ,5.39092 ,52.89567 
7 ,1.5763 ,1.00990 ,5.35327 ,52.52631 
8 ,1.7844 ,1.01195 ,5.34301 ,52.42557 
9 ,1.9767 ,1.01396 ,5.31563 ,52.15694 
10 ,2.1848 ,1.01605 ,5.31563 ,52.15694 
11 ,2.4248 ,1.01839 ,5.30194 ,52.02263 
12 ,2.6326 ,1.02045 ,5.24718 ,51.48538 
13 ,2.8249 ,1.02236 ,5.27114 ,51.72043 
14 ,3.0170 ,1.02430 ,5.21639 ,51.18317 
15 ,3.2090 ,1.02624 ,5.20270 ,51.04886 
16 ,3.4011 ,1.02817 ,5.19927 ,51.01528 
17 ,3.5931 ,1.03008 ,5.16848 ,50.71308 
18 ,3.8012 ,1.03217 ,5.15136 ,50.54519 
19 ,3.9934 ,1.03403 ,5.12056 ,50.24298 
20 ,4.1853 ,1.03605 ,5.11714 ,50.20940 
21 ,4.3777 ,1.03798 ,5.07608 ,49.80646 
22 ,4.5856 ,1.04001 ,5.08292 ,49.87362 
23 ,4.7778 ,1.04193 ,5.04870 ,49.53784 
24 ,4.9858 ,1.04399 ,5.04528 ,49.50426 
25 ,5.1779 ,1.04593 ,5.02132 ,49.26921 
26 ,5.4019 ,1.04808 ,5.00763 ,49.13490 
27 ,5.5941 ,1.05004 ,4.97683 ,48.83269 
28 ,5.8018 ,1.05217 ,4.95630 ,48.63122 
29 ,5.9941 ,1.05405 ,4.93235 ,48.39618 
30 ,6.1862 ,1.05601 ,4.92550 ,48.32902 
31 ,6.3939 ,1.05795 ,4.89812 ,48.06039 
32 ,6.5864 ,1.06001 ,4.89128 ,47.99324 
33 ,6.7946 ,1.06209 ,4.84679 ,47.55672 
34 ,7.0022 ,1.06405 ,4.83310 ,47.42240 
35 ,7.1947 ,1.06609 ,4.82284 ,47.32167 
36 ,7.3867 ,1.06799 ,4.81941 ,47.28809 
37 ,7.5786 ,1.06992 ,4.79888 ,47.08662 
38 ,7.7709 ,1.07186 ,4.76466 ,46.75084 
39 ,7.9628 ,1.07372 ,4.77493 ,46.85157 
40 ,8.1550 ,1.07572 ,4.73386 ,46.44863 
41 ,8.3632 ,1.07766 ,4.71675 ,46.28074 
42 ,8.5709 ,1.07979 ,4.68595 ,45.97854 
43 ,8.7632 ,1.08178 ,4.67911 ,45.91138 
44 ,8.9391 ,1.08365 ,4.65515 ,45.67633 
45 ,9.1474 ,1.08554 ,4.63804 ,45.50844 
46 ,9.3396 ,1.08756 ,4.63462 ,45.47486 
47 ,9.5316 ,1.08942 ,4.60382 ,45.17266 
48 ,9.7396 ,1.09148 ,4.60382 ,45.17266 
49 ,9.9315 ,1.09341 ,4.56960 ,44.83688 
50 ,10.1240 ,1.09540 ,4.56960 ,44.83688 
51 ,10.3318 ,1.09742 ,4.53195 ,44.46751 
52 ,10.5241 ,1.09936 ,4.52853 ,44.43394 
53 ,10.7158 ,1.10127 ,4.49773 ,44.13173 
54 ,10.9083 ,1.10322 ,4.48404 ,43.99742 
55 ,11.1164 ,1.10529 ,4.47378 ,43.89668 
56 ,11.3084 ,1.10720 ,4.43955 ,43.56090 
57 ,11.5002 ,1.10907 ,4.44640 ,43.62806 
58 ,11.6927 ,1.11099 ,4.39849 ,43.15796 
59 ,11.8846 ,1.11308 ,4.41560 ,43.32585 
60 ,12.0607 ,1.11481 ,4.37795 ,42.95649 
61 ,12.2529 ,1.11665 ,4.35742 ,42.75502 
62 ,12.4449 ,1.11859 ,4.35400 ,42.72144 
63 ,12.6527 ,1.12064 ,4.32320 ,42.41924 
64 ,12.8451 ,1.12258 ,4.32320 ,42.41924 
65 ,13.0529 ,1.12462 ,4.29240 ,42.11703 
66 ,13.2613 ,1.12668 ,4.29924 ,42.18419 
67 ,13.4533 ,1.12861 ,4.25818 ,41.78125 
68 ,13.6454 ,1.13057 ,4.24107 ,41.61336 
69 ,13.8533 ,1.13256 ,4.24791 ,41.68051 
70 ,14.0453 ,1.13459 ,4.21369 ,41.34473 
71 ,14.2856 ,1.13676 ,4.18289 ,41.04253 
72 ,14.4774 ,1.13892 ,4.17605 ,40.97537 
73 ,14.6697 ,1.14076 ,4.14867 ,40.70674 
74 ,14.8620 ,1.14269 ,4.13840 ,40.60601 
75 ,15.0536 ,1.14469 ,4.12129 ,40.43812 
76 ,15.2461 ,1.14651 ,4.08365 ,40.06876 
77 ,15.4539 ,1.14867 ,4.07680 ,40.00160 
78 ,15.6463 ,1.15051 ,4.05969 ,39.83371 
79 ,15.8380 ,1.15253 ,4.05627 ,39.80013 
80 ,16.0304 ,1.15441 ,4.02205 ,39.46435 
81 ,16.2060 ,1.15628 ,4.01520 ,39.39719 
82 ,16.3986 ,1.15810 ,4.01863 ,39.43077 
83 ,16.5907 ,1.16003 ,3.97414 ,38.99425 
84 ,16.7824 ,1.16191 ,3.96729 ,38.92709 
85 ,16.9747 ,1.16383 ,3.96387 ,38.89352 
86 ,17.1829 ,1.16590 ,3.93307 ,38.59131 
87 ,17.4068 ,1.16798 ,3.91938 ,38.45700 
88 ,17.5990 ,1.17010 ,3.90227 ,38.28911 
89 ,17.8072 ,1.17217 ,3.86463 ,37.91975 
90 ,17.9993 ,1.17409 ,3.85436 ,37.81901 
91 ,18.1913 ,1.17601 ,3.84752 ,37.75185 
92 ,18.3669 ,1.17788 ,3.83725 ,37.65112 
93 ,18.5593 ,1.17967 ,3.82699 ,37.55038 
94 ,18.7669 ,1.18179 ,3.77908 ,37.08029 
95 ,18.9591 ,1.18365 ,3.78250 ,37.11387 
96 ,19.1513 ,1.18552 ,3.75170 ,36.81166 
97 ,19.3597 ,1.18754 ,3.73459 ,36.64377 
98 ,19.5518 ,1.18956 ,3.70721 ,36.37514 
99 ,19.7599 ,1.19168 ,3.71405 ,36.44230 
100 ,19.9519 ,1.19359 ,3.70037 ,36.30799 
101 ,20.1440 ,1.19556 ,3.65930 ,35.90505 
102 ,20.3523 ,1.19757 ,3.64903 ,35.80431 
103 ,20.5279 ,1.19951 ,3.63192 ,35.63642 
104 ,20.7364 ,1.20135 ,3.63192 ,35.63642 
105 ,20.9442 ,1.20356 ,3.60112 ,35.33422 
106 ,21.1364 ,1.20547 ,3.59770 ,35.30064 
107 ,21.3607 ,1.20763 ,3.57375 ,35.06559 
108 ,21.5687 ,1.20977 ,3.53610 ,34.69623 
109 ,21.7607 ,1.21168 ,3.53268 ,34.66265 
110 ,21.9688 ,1.21374 ,3.51215 ,34.46118 
111 ,22.1610 ,1.21565 ,3.49504 ,34.29329 
112 ,22.3530 ,1.21758 ,3.48819 ,34.22613 
113 ,22.5613 ,1.21967 ,3.47450 ,34.09182 
114 ,22.7367 ,1.22156 ,3.45739 ,33.92393 
115 ,22.9293 ,1.22339 ,3.42317 ,33.58814 
116 ,23.1372 ,1.22544 ,3.41633 ,33.52099 
117 ,23.3294 ,1.22736 ,3.40264 ,33.38667 
118 ,23.5374 ,1.22946 ,3.38553 ,33.21878 
119 ,23.7296 ,1.23137 ,3.36842 ,33.05089 
120 ,23.9214 ,1.23327 ,3.34788 ,32.84942 
121 ,24.1297 ,1.23532 ,3.31708 ,32.54722 
122 ,24.3375 ,1.23739 ,3.32051 ,32.58080 
123 ,24.5300 ,1.23935 ,3.29655 ,32.34575 
124 ,24.7219 ,1.24127 ,3.28971 ,32.27859 
125 ,24.8976 ,1.24316 ,3.27259 ,32.11070 
126 ,25.0901 ,1.24496 ,3.25206 ,31.90923 
127 ,25.2983 ,1.24701 ,3.25548 ,31.94281 
128 ,25.4902 ,1.24892 ,3.21442 ,31.53987 
129 ,25.6824 ,1.25092 ,3.19731 ,31.37198 
130 ,25.8904 ,1.25287 ,3.18704 ,31.27124 
131 ,26.1144 ,1.25512 ,3.17335 ,31.13693 
132 ,26.3226 ,1.25730 ,3.14597 ,30.86830 
133 ,26.5148 ,1.25920 ,3.14597 ,30.86830 
134 ,26.7068 ,1.26114 ,3.11860 ,30.59968 
135 ,26.8988 ,1.26296 ,3.11860 ,30.59968 
136 ,27.0744 ,1.26488 ,3.08438 ,30.26389 
137 ,27.2671 ,1.26673 ,3.06384 ,30.06242 
138 ,27.4748 ,1.26883 ,3.07069 ,30.12958 
139 ,27.6671 ,1.27073 ,3.03647 ,29.79380 
140 ,27.8593 ,1.27262 ,3.03647 ,29.79380 
141 ,28.0513 ,1.27456 ,3.01251 ,29.55875 
142 ,28.2594 ,1.27660 ,3.00909 ,29.52517 
143 ,28.4512 ,1.27855 ,2.97487 ,29.18939 
144 ,28.6435 ,1.28052 ,2.95433 ,28.98792 
145 ,28.8357 ,1.28242 ,2.96460 ,29.08865 
146 ,29.0273 ,1.28437 ,2.92696 ,28.71929 
147 ,29.2195 ,1.28623 ,2.91669 ,28.61856 
148 ,29.4759 ,1.28867 ,2.90300 ,28.48424 
149 ,29.6840 ,1.29087 ,2.86536 ,28.11488 
150 ,29.8761 ,1.29284 ,2.86878 ,28.14846 
151 ,30.0681 ,1.29473 ,2.83798 ,27.84625 
152 ,30.2603 ,1.29667 ,2.82087 ,27.67836 
153 ,30.4521 ,1.29858 ,2.81745 ,27.64479 
154 ,30.6600 ,1.30065 ,2.79007 ,27.37616 
155 ,30.8846 ,1.30278 ,2.79007 ,27.37616 
156 ,31.0925 ,1.30492 ,2.76954 ,27.17469 
157 ,31.2847 ,1.30689 ,2.74216 ,26.90606 
158 ,31.4926 ,1.30891 ,2.74558 ,26.93964 
159 ,31.6847 ,1.31087 ,2.70452 ,26.53670 
160 ,31.8769 ,1.31278 ,2.71820 ,26.67101 
161 ,32.0852 ,1.31490 ,2.68398 ,26.33523 
162 ,32.2930 ,1.31684 ,2.66345 ,26.13376 
163 ,32.4849 ,1.31883 ,2.64976 ,25.99945 
164 ,32.6770 ,1.32081 ,2.64634 ,25.96587 
165 ,32.8852 ,1.32286 ,2.61554 ,25.66367 
166 ,33.0771 ,1.32485 ,2.61896 ,25.69724 
167 ,33.2692 ,1.32677 ,2.58816 ,25.39504 
168 ,33.4935 ,1.32881 ,2.57105 ,25.22715 
169 ,33.6856 ,1.33087 ,2.55052 ,25.02568 
170 ,33.8775 ,1.33282 ,2.55736 ,25.09283 
171 ,34.0853 ,1.33477 ,2.53683 ,24.89136 
172 ,34.2776 ,1.33684 ,2.51630 ,24.68989 
173 ,34.4859 ,1.33887 ,2.49234 ,24.45485 
174 ,34.6778 ,1.34082 ,2.47865 ,24.32053 
175 ,34.8861 ,1.34288 ,2.46154 ,24.15264 
176 ,35.0939 ,1.34492 ,2.46839 ,24.21980 
177 ,35.3180 ,1.34700 ,2.42048 ,23.74970 
178 ,35.5101 ,1.34908 ,2.42048 ,23.74970 
179 ,35.7022 ,1.35099 ,2.39994 ,23.54823 
180 ,35.9103 ,1.35309 ,2.39310 ,23.48108 
181 ,36.1186 ,1.35522 ,2.37256 ,23.27961 
182 ,36.3102 ,1.35713 ,2.36572 ,23.21245 
183 ,36.5027 ,1.35905 ,2.32465 ,22.80951 
184 ,36.6946 ,1.36096 ,2.33834 ,22.94382 
185 ,36.8866 ,1.36298 ,2.30412 ,22.60804 
186 ,37.0786 ,1.36481 ,2.29385 ,22.50731 
187 ,37.2712 ,1.36674 ,2.28017 ,22.37299 
188 ,37.4792 ,1.36881 ,2.25963 ,22.17152 
189 ,37.6710 ,1.37073 ,2.25621 ,22.13794 
190 ,37.8791 ,1.37284 ,2.23226 ,21.90290 
191 ,38.0710 ,1.37469 ,2.23910 ,21.97005 
192 ,38.2654 ,1.37662 ,2.20146 ,21.60069 
193 ,38.4879 ,1.37885 ,2.18777 ,21.46638 
194 ,38.6955 ,1.38098 ,2.18092 ,21.39922 
195 ,38.8879 ,1.38287 ,2.15355 ,21.13059 
196 ,39.0794 ,1.38479 ,2.12959 ,20.89555 
197 ,39.2716 ,1.38675 ,2.13986 ,20.99628 
198 ,39.4959 ,1.38883 ,2.11932 ,20.79481 
199 ,39.6880 ,1.39089 ,2.09879 ,20.59334 
200 ,39.8801 ,1.39284 ,2.08168 ,20.42545 
201 ,40.1041 ,1.39503 ,2.05773 ,20.19040 
202 ,40.2805 ,1.39688 ,2.06457 ,20.25756 
203 ,40.4562 ,1.39864 ,2.05773 ,20.19040 
204 ,40.6484 ,1.40048 ,2.02350 ,19.85462 
205 ,40.8404 ,1.40245 ,2.02008 ,19.82104 
206 ,41.0325 ,1.40433 ,2.02693 ,19.88820 
207 ,41.2406 ,1.40638 ,1.97559 ,19.38452 
208 ,41.4486 ,1.40848 ,1.97217 ,19.35094 
209 ,41.6407 ,1.41042 ,1.95164 ,19.14948 
210 ,41.8327 ,1.41231 ,1.94479 ,19.08232 
211 ,42.0249 ,1.41422 ,1.92426 ,18.88085 
212 ,42.2170 ,1.41616 ,1.92084 ,18.84727 
213 ,42.4087 ,1.41820 ,1.89346 ,18.57864 
214 ,42.6011 ,1.42002 ,1.89346 ,18.57864 
215 ,42.8251 ,1.42225 ,1.86951 ,18.34360 
216 ,43.0173 ,1.42418 ,1.85924 ,18.24286 
217 ,43.2093 ,1.42607 ,1.85582 ,18.20928 
218 ,43.4174 ,1.42813 ,1.83871 ,18.04139 
219 ,43.6095 ,1.43004 ,1.82502 ,17.90708 
220 ,43.8017 ,1.43200 ,1.79080 ,17.57129 
221 ,43.9936 ,1.43390 ,1.79080 ,17.57129 
222 ,44.1858 ,1.43584 ,1.77369 ,17.40340 
223 ,44.3774 ,1.43775 ,1.76000 ,17.26909 
224 ,44.5697 ,1.43966 ,1.76000 ,17.26909 
225 ,44.7940 ,1.44180 ,1.72578 ,16.93331 
226 ,45.0020 ,1.44402 ,1.71551 ,16.83257 
227 ,45.1944 ,1.44597 ,1.70182 ,16.69826 
228 ,45.4024 ,1.44799 ,1.68813 ,16.56395 
229 ,45.5945 ,1.44989 ,1.68471 ,16.53037 
230 ,45.7704 ,1.45180 ,1.66075 ,16.29532 
231 ,45.9787 ,1.45368 ,1.64364 ,16.12743 
232 ,46.1867 ,1.45587 ,1.63338 ,16.02669 
233 ,46.3788 ,1.45777 ,1.60942 ,15.79164 
234 ,46.5708 ,1.45967 ,1.61627 ,15.85880 
235 ,46.7626 ,1.46156 ,1.58889 ,15.59018 
236 ,46.9871 ,1.46378 ,1.58204 ,15.52302 
237 ,47.1950 ,1.46589 ,1.56493 ,15.35513 
238 ,47.4191 ,1.46798 ,1.56493 ,15.35513 
239 ,47.6273 ,1.47030 ,1.54782 ,15.18724 
240 ,47.8352 ,1.47231 ,1.52045 ,14.91861 
241 ,48.0273 ,1.47422 ,1.52387 ,14.95219 
242 ,48.2511 ,1.47634 ,1.49649 ,14.68356 
243 ,48.4436 ,1.47841 ,1.47253 ,14.44851 
244 ,48.6354 ,1.48035 ,1.46227 ,14.34778 
245 ,48.8436 ,1.48235 ,1.44516 ,14.17989 
246 ,49.0353 ,1.48429 ,1.44516 ,14.17989 
247 ,49.2438 ,1.48630 ,1.42805 ,14.01199 
248 ,49.4358 ,1.48834 ,1.41778 ,13.91126 
249 ,49.6439 ,1.49039 ,1.39725 ,13.70979 
250 ,49.8362 ,1.49235 ,1.37329 ,13.47474 
251 ,50.0282 ,1.49427 ,1.39040 ,13.64263 
252 ,50.2363 ,1.49630 ,1.34249 ,13.17254 
253 ,50.4924 ,1.49879 ,1.32880 ,13.03822 
254 ,50.7004 ,1.50093 ,1.31854 ,12.93749 
255 ,50.8925 ,1.50287 ,1.32538 ,13.00465 
256 ,51.1007 ,1.50494 ,1.29800 ,12.73602 
257 ,51.2927 ,1.50688 ,1.30143 ,12.76960 
258 ,51.4848 ,1.50893 ,1.27063 ,12.46739 
259 ,51.6768 ,1.51076 ,1.25694 ,12.33308 
260 ,51.8850 ,1.51275 ,1.24325 ,12.19877 
261 ,52.0765 ,1.51475 ,1.21929 ,11.96372 
262 ,52.2687 ,1.51667 ,1.23298 ,12.09803 
263 ,52.4608 ,1.51860 ,1.20561 ,11.82941 
264 ,52.6693 ,1.52057 ,1.21245 ,11.89656 
265 ,52.8614 ,1.52253 ,1.17823 ,11.56078 
266 ,53.0694 ,1.52468 ,1.16454 ,11.42647 
267 ,53.2769 ,1.52660 ,1.15427 ,11.32573 
268 ,53.4856 ,1.52889 ,1.13032 ,11.09068 
269 ,53.6935 ,1.53078 ,1.13032 ,11.09068 
270 ,53.8858 ,1.53277 ,1.11663 ,10.95637 
271 ,54.0777 ,1.53473 ,1.09267 ,10.72132 
272 ,54.2698 ,1.53660 ,1.10636 ,10.85563 
273 ,54.4616 ,1.53852 ,1.06872 ,10.48627 
274 ,54.6541 ,1.54049 ,1.06530 ,10.45270 
275 ,54.8619 ,1.54255 ,1.05503 ,10.35196 
276 ,55.0542 ,1.54453 ,1.03792 ,10.18407 
277 ,55.2463 ,1.54641 ,1.02081 ,10.01618 
278 ,55.4383 ,1.54835 ,1.00370 ,9.84829 
279 ,55.6302 ,1.55020 ,1.00370 ,9.84829 
280 ,55.8226 ,1.55214 ,0.98317 ,9.64682 
281 ,56.0147 ,1.55409 ,0.97632 ,9.57966 
282 ,56.2067 ,1.55601 ,0.97290 ,9.54608 
283 ,56.4307 ,1.55817 ,0.95921 ,9.41177 
284 ,56.6225 ,1.56012 ,0.93525 ,9.17672 
285 ,56.8150 ,1.56208 ,0.93525 ,9.17672 
286 ,57.0228 ,1.56422 ,0.91130 ,8.94167 
287 ,57.2151 ,1.56607 ,0.89761 ,8.80736 
288 ,57.4228 ,1.56816 ,0.87023 ,8.53873 
289 ,57.6308 ,1.57015 ,0.88734 ,8.70662 
290 ,57.8388 ,1.57224 ,0.84628 ,8.30368 
291 ,58.0315 ,1.57426 ,0.85997 ,8.43800 
292 ,58.2555 ,1.57642 ,0.82575 ,8.10221 
293 ,58.4476 ,1.57836 ,0.84286 ,8.27011 
294 ,58.6555 ,1.58043 ,0.80521 ,7.90074 
295 ,58.8474 ,1.58248 ,0.79837 ,7.83359 
296 ,59.0398 ,1.58435 ,0.78126 ,7.66570 
297 ,59.2320 ,1.58627 ,0.79152 ,7.76643 
298 ,59.4398 ,1.58827 ,0.76415 ,7.49780 
299 ,59.6482 ,1.59043 ,0.75388 ,7.39707 
300 ,59.8398 ,1.59229 ,0.72650 ,7.12844 
301 ,60.0321 ,1.59420 ,0.73335 ,7.19560 
302 ,60.2240 ,1.59615 ,0.71281 ,6.99413 
303 ,60.4164 ,1.59806 ,0.69228 ,6.79266 
304 ,60.6244 ,1.60016 ,0.68544 ,6.72550 
305 ,60.8325 ,1.60222 ,0.68886 ,6.75908 
306 ,61.0243 ,1.60422 ,0.66490 ,6.52403 
307 ,61.2327 ,1.60623 ,0.65464 ,6.42330 
308 ,61.4408 ,1.60830 ,0.62384 ,6.12109 
309 ,61.6329 ,1.61026 ,0.62384 ,6.12109 
310 ,61.8250 ,1.61217 ,0.61699 ,6.05394 
311 ,62.0329 ,1.61424 ,0.59646 ,5.85247 
312 ,62.2252 ,1.61617 ,0.58962 ,5.78531 
313 ,62.4331 ,1.61824 ,0.57251 ,5.61742 
314 ,62.6411 ,1.62031 ,0.55882 ,5.48311 
315 ,62.8330 ,1.62223 ,0.54171 ,5.31522 
316 ,63.0569 ,1.62437 ,0.53486 ,5.24806 
317 ,63.2490 ,1.62650 ,0.53144 ,5.21448 
318 ,63.4572 ,1.62845 ,0.51091 ,5.01301 
319 ,63.6656 ,1.63057 ,0.49722 ,4.87870 
320 ,63.8734 ,1.63262 ,0.48695 ,4.77796 
321 ,64.0817 ,1.63472 ,0.47326 ,4.64365 
322 ,64.2738 ,1.63666 ,0.46984 ,4.61007 
323 ,64.4816 ,1.63873 ,0.44246 ,4.34144 
324 ,64.6740 ,1.64058 ,0.43904 ,4.30787 
325 ,64.8660 ,1.64256 ,0.43904 ,4.30787 
326 ,65.0743 ,1.64466 ,0.42535 ,4.17355 
327 ,65.2822 ,1.64662 ,0.41509 ,4.07282 
328 ,65.4901 ,1.64874 ,0.41166 ,4.03924 
329 ,65.6827 ,1.65074 ,0.39113 ,3.83777 
330 ,65.8909 ,1.65277 ,0.39113 ,3.83777 
331 ,66.0827 ,1.65476 ,0.35691 ,3.50199 
332 ,66.2749 ,1.65661 ,0.35006 ,3.43483 
333 ,66.4670 ,1.65857 ,0.35691 ,3.50199 
334 ,66.6590 ,1.66049 ,0.31584 ,3.09905 
335 ,66.8511 ,1.66242 ,0.31926 ,3.13263 
336 ,67.0430 ,1.66437 ,0.31242 ,3.06547 
337 ,67.2353 ,1.66626 ,0.29531 ,2.89758 
338 ,67.4433 ,1.66835 ,0.28504 ,2.79684 
339 ,67.6511 ,1.67039 ,0.27478 ,2.69611 
340 ,67.8596 ,1.67243 ,0.25082 ,2.46106 
341 ,68.0675 ,1.67457 ,0.26109 ,2.56179 
342 ,68.2598 ,1.67647 ,0.23029 ,2.25959 
343 ,68.4678 ,1.67858 ,0.23371 ,2.29317 
344 ,68.6599 ,1.68052 ,0.21318 ,2.09170 
345 ,68.8679 ,1.68256 ,0.20976 ,2.05812 
346 ,69.0600 ,1.68445 ,0.18922 ,1.85665 
347 ,69.2520 ,1.68639 ,0.18238 ,1.78949 
348 ,69.4442 ,1.68833 ,0.17553 ,1.72234 
349 ,69.6520 ,1.69037 ,0.16527 ,1.62160 
350 ,69.8440 ,1.69232 ,0.16185 ,1.58802 
351 ,70.0524 ,1.69435 ,0.14131 ,1.38655 
352 ,70.2602 ,1.69646 ,0.12762 ,1.25224 
353 ,70.4524 ,1.69837 ,0.13447 ,1.31940 
354 ,70.6603 ,1.70044 ,0.10025 ,0.98361 
355 ,70.8525 ,1.70240 ,0.10709 ,1.05077 
356 ,71.0608 ,1.70445 ,0.06260 ,0.61425 
357 ,71.2529 ,1.70636 ,0.08656 ,0.84930 
358 ,71.4767 ,1.70865 ,0.04891 ,0.47994 
359 ,71.6849 ,1.71075 ,0.05918 ,0.58067 
360 ,71.8933 ,1.71274 ,0.04207 ,0.41278 
361 ,72.0848 ,1.71473 ,0.04891 ,0.47994 
362 ,72.2772 ,1.71667 ,0.01469 ,0.14416 
363 ,72.4693 ,1.71866 ,0.00785 ,0.07700 
364 ,72.6616 ,1.72048 ,0.00100 ,0.00984 
365 ,72.8535 ,1.72239 ,-0.00242 ,-0.02373 
366 ,73.0456 ,1.72436 ,-0.01269 ,-0.12447 
367 ,73.2375 ,1.72636 ,-0.02295 ,-0.22520 
368 ,73.4298 ,1.72817 ,-0.01953 ,-0.19163 
369 ,73.6217 ,1.73008 ,-0.04691 ,-0.46025 
370 ,73.8458 ,1.73223 ,-0.04348 ,-0.42667 
371 ,74.0541 ,1.73443 ,-0.06402 ,-0.62814 
372 ,74.2457 ,1.73633 ,-0.07086 ,-0.69530 
373 ,74.4860 ,1.73863 ,-0.08797 ,-0.86319 
374 ,74.6944 ,1.74074 ,-0.09824 ,-0.96393 
375 ,74.8861 ,1.74274 ,-0.10166 ,-0.99751 
376 ,75.0945 ,1.74474 ,-0.11535 ,-1.13182 
377 ,75.2864 ,1.74668 ,-0.13246 ,-1.29971 
378 ,75.4948 ,1.74880 ,-0.14273 ,-1.40045 
379 ,75.7025 ,1.75087 ,-0.15642 ,-1.53476 
380 ,75.9109 ,1.75297 ,-0.14273 ,-1.40045 
381 ,76.1025 ,1.75485 ,-0.17353 ,-1.70265 
382 ,76.2952 ,1.75676 ,-0.18379 ,-1.80338 
383 ,76.4866 ,1.75877 ,-0.19064 ,-1.87054 
384 ,76.6791 ,1.76065 ,-0.20433 ,-2.00485 
385 ,76.8871 ,1.76272 ,-0.20433 ,-2.00485 
386 ,77.0952 ,1.76478 ,-0.22828 ,-2.23990 
387 ,77.2869 ,1.76670 ,-0.22828 ,-2.23990 
388 ,77.5114 ,1.76889 ,-0.22828 ,-2.23990 
389 ,77.7036 ,1.77086 ,-0.26250 ,-2.57569 
390 ,77.9114 ,1.77296 ,-0.25908 ,-2.54211 
391 ,78.1037 ,1.77490 ,-0.28304 ,-2.77716 
392 ,78.3114 ,1.77695 ,-0.28646 ,-2.81073 
393 ,78.5039 ,1.77883 ,-0.30015 ,-2.94505 
394 ,78.7274 ,1.78103 ,-0.30699 ,-3.01220 
395 ,78.9197 ,1.78300 ,-0.32752 ,-3.21367 
396 ,79.1117 ,1.78494 ,-0.32410 ,-3.18010 
397 ,79.3038 ,1.78688 ,-0.32752 ,-3.21367 
398 ,79.4962 ,1.78886 ,-0.34464 ,-3.38156 
399 ,79.7043 ,1.79083 ,-0.35490 ,-3.48230 
400 ,79.9121 ,1.79290 ,-0.36859 ,-3.61661 
401 ,80.1046 ,1.79488 ,-0.37201 ,-3.65019 
402 ,80.2962 ,1.79679 ,-0.40281 ,-3.95240 
403 ,80.4886 ,1.79871 ,-0.38228 ,-3.75093 
404 ,80.6805 ,1.80062 ,-0.41308 ,-4.05313 
405 ,80.9044 ,1.80278 ,-0.38570 ,-3.78450 
406 ,81.0970 ,1.80477 ,-0.42335 ,-4.15387 
407 ,81.3049 ,1.80683 ,-0.43019 ,-4.22102 
408 ,81.4971 ,1.80878 ,-0.45072 ,-4.42249 
409 ,81.6891 ,1.81074 ,-0.44046 ,-4.32176 
410 ,81.8810 ,1.81262 ,-0.46441 ,-4.55681 
411 ,82.0731 ,1.81457 ,-0.46441 ,-4.55681 
412 ,82.2814 ,1.81660 ,-0.48152 ,-4.72470 
413 ,82.4733 ,1.81856 ,-0.48837 ,-4.79185 
414 ,82.6656 ,1.82052 ,-0.49521 ,-4.85901 
415 ,82.8732 ,1.82262 ,-0.50548 ,-4.95975 
416 ,83.0813 ,1.82464 ,-0.52943 ,-5.19479 
417 ,83.2736 ,1.82662 ,-0.52601 ,-5.16121 
418 ,83.4818 ,1.82865 ,-0.55339 ,-5.42984 
419 ,83.6738 ,1.83057 ,-0.54312 ,-5.32911 
420 ,83.8821 ,1.83266 ,-0.57050 ,-5.59773 
421 ,84.0903 ,1.83468 ,-0.54997 ,-5.39626 
422 ,84.2983 ,1.83678 ,-0.57734 ,-5.66489 
423 ,84.5062 ,1.83887 ,-0.57392 ,-5.63131 
424 ,84.6982 ,1.84082 ,-0.60814 ,-5.96709 
425 ,84.9061 ,1.84285 ,-0.59788 ,-5.86636 
426 ,85.0985 ,1.84478 ,-0.63210 ,-6.20214 
427 ,85.2902 ,1.84672 ,-0.61841 ,-6.06783 
428 ,85.4828 ,1.84863 ,-0.63552 ,-6.23572 
429 ,85.6906 ,1.85070 ,-0.63552 ,-6.23572 
430 ,85.8990 ,1.85280 ,-0.66290 ,-6.50435 
431 ,86.0908 ,1.85473 ,-0.64921 ,-6.37003 
432 ,86.2829 ,1.85668 ,-0.66974 ,-6.57150 
433 ,86.5551 ,1.85921 ,-0.69370 ,-6.80655 
434 ,86.7632 ,1.86144 ,-0.69370 ,-6.80655 
435 ,86.9553 ,1.86340 ,-0.69712 ,-6.84013 
436 ,87.1313 ,1.86528 ,-0.70396 ,-6.90729 
437 ,87.3234 ,1.86704 ,-0.70739 ,-6.94086 
438 ,87.5312 ,1.86910 ,-0.71423 ,-7.00802 
439 ,87.7075 ,1.87101 ,-0.73134 ,-7.17591 
440 ,87.8996 ,1.87277 ,-0.74845 ,-7.34380 
441 ,88.1077 ,1.87487 ,-0.73134 ,-7.17591 
442 ,88.2998 ,1.87676 ,-0.77241 ,-7.57885 
443 ,88.5076 ,1.87894 ,-0.75187 ,-7.37738 
444 ,88.7000 ,1.88083 ,-0.78610 ,-7.71317 
445 ,88.9077 ,1.88290 ,-0.78610 ,-7.71317 
446 ,89.1001 ,1.88477 ,-0.81347 ,-7.98179 
447 ,89.3075 ,1.88688 ,-0.80321 ,-7.88106 
448 ,89.5162 ,1.88896 ,-0.81005 ,-7.94821 
449 ,89.7403 ,1.89112 ,-0.83743 ,-8.21684 
450 ,89.9320 ,1.89313 ,-0.82374 ,-8.08253 
451 ,90.1245 ,1.89509 ,-0.83743 ,-8.21684 
452 ,90.3321 ,1.89711 ,-0.83743 ,-8.21684 
453 ,90.5085 ,1.89902 ,-0.84769 ,-8.31758 
454 ,90.7004 ,1.90080 ,-0.87507 ,-8.58620 
455 ,90.9089 ,1.90287 ,-0.86823 ,-8.51904 
456 ,91.1165 ,1.90498 ,-0.88534 ,-8.68694 
457 ,91.3089 ,1.90685 ,-0.87507 ,-8.58620 
458 ,91.5010 ,1.90880 ,-0.91272 ,-8.95556 
459 ,91.6931 ,1.91068 ,-0.90587 ,-8.88841 
460 ,91.8849 ,1.91265 ,-0.90929 ,-8.92198 
461 ,92.0772 ,1.91459 ,-0.94009 ,-9.22419 
462 ,92.2693 ,1.91647 ,-0.92640 ,-9.08988 
463 ,92.4614 ,1.91845 ,-0.95036 ,-9.32492 
