Data stamp = , 02-05-2022 02:43:55 171

Calibration Values: 
Slope = , 26.54 , g/V 
Offset Voltage at no contact = , -0.501760 , V 

No , Time , Stage Position ,   Mass , Force 
   ,  (s) ,      (mm)      ,   (g)  , (mN)  

1 ,0.0000 ,0.99948 ,5.37381 ,52.72778 
2 ,0.2113 ,0.99953 ,5.35669 ,52.55988 
3 ,0.7880 ,1.00188 ,5.36354 ,52.62704 
4 ,1.0120 ,1.00423 ,5.36696 ,52.66062 
5 ,1.2199 ,1.00630 ,5.36012 ,52.59346 
6 ,1.4121 ,1.00825 ,5.34985 ,52.49273 
7 ,1.6041 ,1.01023 ,5.32247 ,52.22410 
8 ,1.8444 ,1.01265 ,5.29167 ,51.92190 
9 ,2.0524 ,1.01469 ,5.30536 ,52.05621 
10 ,2.2441 ,1.01663 ,5.25403 ,51.55254 
11 ,2.4366 ,1.01855 ,5.25403 ,51.55254 
12 ,2.6122 ,1.02043 ,5.23350 ,51.35107 
13 ,2.8044 ,1.02229 ,5.20612 ,51.08244 
14 ,2.9966 ,1.02411 ,5.20954 ,51.11602 
15 ,3.1888 ,1.02610 ,5.16505 ,50.67950 
16 ,3.3810 ,1.02804 ,5.15136 ,50.54519 
17 ,3.5891 ,1.03014 ,5.13768 ,50.41087 
18 ,3.7810 ,1.03205 ,5.11372 ,50.17583 
19 ,3.9890 ,1.03414 ,5.08634 ,49.90720 
20 ,4.1814 ,1.03606 ,5.06923 ,49.73931 
21 ,4.3894 ,1.03812 ,5.05897 ,49.63857 
22 ,4.5814 ,1.04004 ,5.03501 ,49.40352 
23 ,4.8051 ,1.04225 ,5.00763 ,49.13490 
24 ,4.9972 ,1.04421 ,5.01106 ,49.16848 
25 ,5.1894 ,1.04607 ,4.98026 ,48.86627 
26 ,5.3976 ,1.04808 ,4.95630 ,48.63122 
27 ,5.5898 ,1.05015 ,4.94261 ,48.49691 
28 ,5.7817 ,1.05202 ,4.91181 ,48.19471 
29 ,5.9736 ,1.05390 ,4.92208 ,48.29544 
30 ,6.1659 ,1.05581 ,4.87417 ,47.82534 
31 ,6.3582 ,1.05782 ,4.87417 ,47.82534 
32 ,6.5501 ,1.05973 ,4.85364 ,47.62387 
33 ,6.7424 ,1.06164 ,4.83995 ,47.48956 
34 ,6.9503 ,1.06356 ,4.82284 ,47.32167 
35 ,7.1426 ,1.06563 ,4.78177 ,46.91873 
36 ,7.3508 ,1.06770 ,4.78519 ,46.95231 
37 ,7.5587 ,1.06982 ,4.76124 ,46.71726 
38 ,7.7508 ,1.07171 ,4.74413 ,46.54937 
39 ,7.9429 ,1.07364 ,4.70990 ,46.21359 
40 ,8.1345 ,1.07556 ,4.71333 ,46.24716 
41 ,8.3270 ,1.07748 ,4.67568 ,45.87780 
42 ,8.5192 ,1.07938 ,4.66199 ,45.74349 
43 ,8.7271 ,1.08145 ,4.64831 ,45.60918 
44 ,8.9193 ,1.08340 ,4.63804 ,45.50844 
45 ,9.1114 ,1.08533 ,4.62777 ,45.40771 
46 ,9.3034 ,1.08723 ,4.58671 ,45.00477 
47 ,9.4952 ,1.08911 ,4.59013 ,45.03835 
48 ,9.6875 ,1.09108 ,4.55591 ,44.70256 
49 ,9.8957 ,1.09315 ,4.54564 ,44.60183 
50 ,10.0877 ,1.09505 ,4.52169 ,44.36678 
51 ,10.3114 ,1.09719 ,4.52853 ,44.43394 
52 ,10.5200 ,1.09933 ,4.48062 ,43.96384 
53 ,10.7281 ,1.10146 ,4.47035 ,43.86310 
54 ,10.9201 ,1.10343 ,4.45324 ,43.69521 
55 ,11.1120 ,1.10532 ,4.46009 ,43.76237 
56 ,11.3038 ,1.10716 ,4.41218 ,43.29227 
57 ,11.4961 ,1.10916 ,4.41560 ,43.32585 
58 ,11.6880 ,1.11105 ,4.38480 ,43.02365 
59 ,11.8965 ,1.11303 ,4.37453 ,42.92291 
60 ,12.0885 ,1.11506 ,4.35400 ,42.72144 
61 ,12.2966 ,1.11707 ,4.32662 ,42.45282 
62 ,12.5042 ,1.11923 ,4.30609 ,42.25135 
63 ,12.6967 ,1.12117 ,4.30951 ,42.28492 
64 ,12.9049 ,1.12321 ,4.26845 ,41.88198 
65 ,13.0966 ,1.12513 ,4.26160 ,41.81483 
66 ,13.2890 ,1.12711 ,4.23765 ,41.57978 
67 ,13.4969 ,1.12914 ,4.23422 ,41.54620 
68 ,13.6888 ,1.13103 ,4.21711 ,41.37831 
69 ,13.8970 ,1.13316 ,4.19316 ,41.14326 
70 ,14.1052 ,1.13519 ,4.16920 ,40.90821 
71 ,14.2974 ,1.13719 ,4.13840 ,40.60601 
72 ,14.4895 ,1.13914 ,4.14183 ,40.63959 
73 ,14.6811 ,1.14111 ,4.13498 ,40.57243 
74 ,14.8739 ,1.14291 ,4.11445 ,40.37096 
75 ,15.0976 ,1.14506 ,4.09734 ,40.20307 
76 ,15.2898 ,1.14704 ,4.08023 ,40.03518 
77 ,15.4817 ,1.14899 ,4.04600 ,39.69940 
78 ,15.6738 ,1.15089 ,4.04943 ,39.73297 
79 ,15.8660 ,1.15284 ,4.01863 ,39.43077 
80 ,16.0740 ,1.15492 ,4.02205 ,39.46435 
81 ,16.2657 ,1.15682 ,3.97414 ,38.99425 
82 ,16.4743 ,1.15879 ,3.96387 ,38.89352 
83 ,16.6823 ,1.16100 ,3.94334 ,38.69205 
84 ,16.8740 ,1.16287 ,3.93650 ,38.62489 
85 ,17.0664 ,1.16482 ,3.91254 ,38.38984 
86 ,17.2587 ,1.16676 ,3.90227 ,38.28911 
87 ,17.4666 ,1.16889 ,3.88174 ,38.08764 
88 ,17.6747 ,1.17087 ,3.86121 ,37.88617 
89 ,17.8669 ,1.17287 ,3.85436 ,37.81901 
90 ,18.0748 ,1.17488 ,3.84410 ,37.71828 
91 ,18.2671 ,1.17680 ,3.82014 ,37.48323 
92 ,18.4591 ,1.17873 ,3.79961 ,37.28176 
93 ,18.6672 ,1.18082 ,3.77908 ,37.08029 
94 ,18.8592 ,1.18275 ,3.75512 ,36.84524 
95 ,19.0509 ,1.18477 ,3.74143 ,36.71093 
96 ,19.2433 ,1.18660 ,3.71405 ,36.44230 
97 ,19.4515 ,1.18864 ,3.72090 ,36.50946 
98 ,19.6753 ,1.19075 ,3.68668 ,36.17367 
99 ,19.8675 ,1.19283 ,3.68668 ,36.17367 
100 ,20.0756 ,1.19493 ,3.64903 ,35.80431 
101 ,20.2678 ,1.19684 ,3.64561 ,35.77073 
102 ,20.4759 ,1.19885 ,3.62166 ,35.53569 
103 ,20.6680 ,1.20087 ,3.61139 ,35.43495 
104 ,20.8601 ,1.20278 ,3.58059 ,35.13275 
105 ,21.0681 ,1.20484 ,3.57717 ,35.09917 
106 ,21.2599 ,1.20671 ,3.54637 ,34.79696 
107 ,21.4683 ,1.20881 ,3.54637 ,34.79696 
108 ,21.6764 ,1.21094 ,3.51557 ,34.49476 
109 ,21.8685 ,1.21283 ,3.52584 ,34.59549 
110 ,22.0607 ,1.21476 ,3.47450 ,34.09182 
111 ,22.2687 ,1.21684 ,3.47792 ,34.12540 
112 ,22.4609 ,1.21878 ,3.44028 ,33.75604 
113 ,22.6688 ,1.22083 ,3.44370 ,33.78961 
114 ,22.8929 ,1.22305 ,3.42317 ,33.58814 
115 ,23.0850 ,1.22497 ,3.40264 ,33.38667 
116 ,23.2772 ,1.22694 ,3.37868 ,33.15163 
117 ,23.4688 ,1.22884 ,3.38210 ,33.18520 
118 ,23.6613 ,1.23075 ,3.33762 ,32.74869 
119 ,23.8694 ,1.23283 ,3.33762 ,32.74869 
120 ,24.0615 ,1.23477 ,3.31366 ,32.51364 
121 ,24.2695 ,1.23672 ,3.31708 ,32.54722 
122 ,24.4775 ,1.23891 ,3.28286 ,32.21143 
123 ,24.6695 ,1.24083 ,3.27944 ,32.17786 
124 ,24.8618 ,1.24279 ,3.24180 ,31.80849 
125 ,25.0536 ,1.24464 ,3.23837 ,31.77492 
126 ,25.2458 ,1.24657 ,3.22126 ,31.60702 
127 ,25.4379 ,1.24853 ,3.19731 ,31.37198 
128 ,25.6297 ,1.25052 ,3.19731 ,31.37198 
129 ,25.8221 ,1.25238 ,3.15624 ,30.96904 
130 ,26.0304 ,1.25443 ,3.16993 ,31.10335 
131 ,26.2383 ,1.25649 ,3.12544 ,30.66683 
132 ,26.4464 ,1.25863 ,3.11860 ,30.59968 
133 ,26.6543 ,1.26068 ,3.10149 ,30.43178 
134 ,26.8305 ,1.26252 ,3.09464 ,30.36463 
135 ,27.0225 ,1.26433 ,3.06384 ,30.06242 
136 ,27.2144 ,1.26624 ,3.06042 ,30.02884 
137 ,27.4065 ,1.26816 ,3.05358 ,29.96169 
138 ,27.6144 ,1.27029 ,3.01251 ,29.55875 
139 ,27.8067 ,1.27214 ,3.01593 ,29.59233 
140 ,27.9991 ,1.27411 ,2.98513 ,29.29012 
141 ,28.2070 ,1.27616 ,2.98855 ,29.32370 
142 ,28.3992 ,1.27812 ,2.94749 ,28.92076 
143 ,28.5913 ,1.28001 ,2.95091 ,28.95434 
144 ,28.8315 ,1.28247 ,2.93038 ,28.75287 
145 ,29.0396 ,1.28450 ,2.90985 ,28.55140 
146 ,29.2316 ,1.28642 ,2.88931 ,28.34993 
147 ,29.4236 ,1.28838 ,2.87220 ,28.18204 
148 ,29.6316 ,1.29042 ,2.86536 ,28.11488 
149 ,29.8238 ,1.29233 ,2.84825 ,27.94699 
150 ,30.0156 ,1.29424 ,2.82429 ,27.71194 
151 ,30.2080 ,1.29620 ,2.82771 ,27.74552 
152 ,30.4157 ,1.29827 ,2.79007 ,27.37616 
153 ,30.6082 ,1.30023 ,2.79691 ,27.44332 
154 ,30.8161 ,1.30230 ,2.74900 ,26.97322 
155 ,31.0242 ,1.30434 ,2.75585 ,27.04038 
156 ,31.2163 ,1.30625 ,2.71478 ,26.63744 
157 ,31.4243 ,1.30835 ,2.72163 ,26.70459 
158 ,31.6165 ,1.31023 ,2.70452 ,26.53670 
159 ,31.8087 ,1.31221 ,2.68398 ,26.33523 
160 ,32.0007 ,1.31413 ,2.67372 ,26.23450 
161 ,32.2244 ,1.31625 ,2.66003 ,26.10018 
162 ,32.4008 ,1.31823 ,2.62923 ,25.79798 
163 ,32.6089 ,1.32012 ,2.63607 ,25.86514 
164 ,32.8170 ,1.32221 ,2.60869 ,25.59651 
165 ,33.0251 ,1.32434 ,2.60527 ,25.56293 
166 ,33.2332 ,1.32642 ,2.56763 ,25.19357 
167 ,33.4252 ,1.32834 ,2.56763 ,25.19357 
168 ,33.6174 ,1.33028 ,2.53683 ,24.89136 
169 ,33.8095 ,1.33221 ,2.52656 ,24.79063 
170 ,34.0016 ,1.33416 ,2.50945 ,24.62274 
171 ,34.2096 ,1.33619 ,2.49918 ,24.52200 
172 ,34.4015 ,1.33811 ,2.48550 ,24.38769 
173 ,34.6256 ,1.34025 ,2.47181 ,24.25338 
174 ,34.8659 ,1.34280 ,2.45470 ,24.08549 
175 ,35.0737 ,1.34481 ,2.43416 ,23.88402 
176 ,35.2660 ,1.34675 ,2.42390 ,23.78328 
177 ,35.4741 ,1.34882 ,2.39310 ,23.48108 
178 ,35.6501 ,1.35073 ,2.40336 ,23.58181 
179 ,35.8423 ,1.35248 ,2.37941 ,23.34676 
180 ,36.0346 ,1.35443 ,2.35888 ,23.14529 
181 ,36.2424 ,1.35647 ,2.36230 ,23.17887 
182 ,36.4343 ,1.35841 ,2.32465 ,22.80951 
183 ,36.6263 ,1.36031 ,2.32465 ,22.80951 
184 ,36.8186 ,1.36229 ,2.28017 ,22.37299 
185 ,37.0267 ,1.36433 ,2.29043 ,22.47373 
186 ,37.2189 ,1.36631 ,2.26990 ,22.27226 
187 ,37.4268 ,1.36838 ,2.26648 ,22.23868 
188 ,37.6346 ,1.37042 ,2.23568 ,21.93647 
189 ,37.8589 ,1.37267 ,2.22199 ,21.80216 
190 ,38.0671 ,1.37480 ,2.21172 ,21.70143 
191 ,38.2752 ,1.37672 ,2.19803 ,21.56711 
192 ,38.4834 ,1.37886 ,2.19461 ,21.53353 
193 ,38.6910 ,1.38101 ,2.16723 ,21.26491 
194 ,38.8989 ,1.38312 ,2.14670 ,21.06344 
195 ,39.0911 ,1.38500 ,2.13644 ,20.96270 
196 ,39.2997 ,1.38707 ,2.11248 ,20.72766 
197 ,39.5397 ,1.38946 ,2.10564 ,20.66050 
198 ,39.7478 ,1.39156 ,2.08168 ,20.42545 
199 ,39.9396 ,1.39345 ,2.06799 ,20.29114 
200 ,40.1479 ,1.39551 ,2.06115 ,20.22398 
201 ,40.3560 ,1.39762 ,2.02693 ,19.88820 
202 ,40.5482 ,1.39952 ,2.02693 ,19.88820 
203 ,40.7402 ,1.40144 ,2.00982 ,19.72031 
204 ,40.9324 ,1.40338 ,1.98928 ,19.51884 
205 ,41.1243 ,1.40533 ,1.99955 ,19.61957 
206 ,41.3165 ,1.40724 ,1.96533 ,19.28379 
207 ,41.5084 ,1.40915 ,1.95506 ,19.18305 
208 ,41.7167 ,1.41119 ,1.93111 ,18.94801 
209 ,41.9087 ,1.41313 ,1.92768 ,18.91443 
210 ,42.1166 ,1.41514 ,1.92426 ,18.88085 
211 ,42.3247 ,1.41737 ,1.90031 ,18.64580 
212 ,42.5491 ,1.41943 ,1.86266 ,18.27644 
213 ,42.7410 ,1.42148 ,1.87293 ,18.37717 
214 ,42.9333 ,1.42338 ,1.83871 ,18.04139 
215 ,43.1252 ,1.42530 ,1.85240 ,18.17570 
216 ,43.3008 ,1.42718 ,1.81817 ,17.83992 
217 ,43.4933 ,1.42897 ,1.80449 ,17.70561 
218 ,43.7013 ,1.43107 ,1.79422 ,17.60487 
219 ,43.8936 ,1.43295 ,1.77369 ,17.40340 
220 ,44.0856 ,1.43492 ,1.77369 ,17.40340 
221 ,44.2778 ,1.43687 ,1.74289 ,17.10120 
222 ,44.4698 ,1.43886 ,1.74631 ,17.13478 
223 ,44.6620 ,1.44069 ,1.73604 ,17.03404 
224 ,44.8377 ,1.44257 ,1.70524 ,16.73184 
225 ,45.0460 ,1.44448 ,1.70182 ,16.69826 
226 ,45.2382 ,1.44643 ,1.68471 ,16.53037 
227 ,45.4299 ,1.44837 ,1.68813 ,16.56395 
228 ,45.6384 ,1.45040 ,1.65733 ,16.26174 
229 ,45.8463 ,1.45250 ,1.65733 ,16.26174 
230 ,46.0385 ,1.45444 ,1.63680 ,16.06027 
231 ,46.2306 ,1.45636 ,1.60942 ,15.79164 
232 ,46.4224 ,1.45830 ,1.60942 ,15.79164 
233 ,46.5982 ,1.46015 ,1.58889 ,15.59018 
234 ,46.8228 ,1.46212 ,1.58204 ,15.52302 
235 ,47.0310 ,1.46438 ,1.55467 ,15.25439 
236 ,47.2390 ,1.46637 ,1.55124 ,15.22081 
237 ,47.4307 ,1.46837 ,1.54098 ,15.12008 
238 ,47.6228 ,1.47032 ,1.52729 ,14.98577 
239 ,47.8313 ,1.47228 ,1.49307 ,14.64998 
240 ,48.0391 ,1.47443 ,1.50333 ,14.75072 
241 ,48.2312 ,1.47633 ,1.47253 ,14.44851 
242 ,48.4235 ,1.47828 ,1.48280 ,14.54925 
243 ,48.6154 ,1.48018 ,1.44858 ,14.21346 
244 ,48.8073 ,1.48210 ,1.43147 ,14.04557 
245 ,48.9994 ,1.48404 ,1.41436 ,13.87768 
246 ,49.1918 ,1.48593 ,1.40751 ,13.81053 
247 ,49.3837 ,1.48790 ,1.40409 ,13.77695 
248 ,49.5920 ,1.48996 ,1.38356 ,13.57548 
249 ,49.8000 ,1.49209 ,1.37671 ,13.50832 
250 ,50.0081 ,1.49411 ,1.35276 ,13.27327 
251 ,50.2157 ,1.49615 ,1.34249 ,13.17254 
252 ,50.4082 ,1.49819 ,1.32538 ,13.00465 
253 ,50.6161 ,1.50013 ,1.29800 ,12.73602 
254 ,50.8242 ,1.50227 ,1.31169 ,12.87033 
255 ,51.0325 ,1.50433 ,1.28774 ,12.63528 
256 ,51.2244 ,1.50627 ,1.29800 ,12.73602 
257 ,51.4165 ,1.50816 ,1.26036 ,12.36666 
258 ,51.6086 ,1.51012 ,1.27063 ,12.46739 
259 ,51.8168 ,1.51213 ,1.22956 ,12.06445 
260 ,52.0085 ,1.51407 ,1.22614 ,12.03088 
261 ,52.2010 ,1.51605 ,1.22956 ,12.06445 
262 ,52.4090 ,1.51813 ,1.21245 ,11.89656 
263 ,52.6011 ,1.52000 ,1.19534 ,11.72867 
264 ,52.8251 ,1.52227 ,1.16796 ,11.46004 
265 ,53.0333 ,1.52438 ,1.14058 ,11.19142 
266 ,53.2253 ,1.52637 ,1.15770 ,11.35931 
267 ,53.4175 ,1.52819 ,1.13716 ,11.15784 
268 ,53.6095 ,1.53008 ,1.11663 ,10.95637 
269 ,53.8016 ,1.53204 ,1.10636 ,10.85563 
270 ,54.0096 ,1.53411 ,1.08925 ,10.68774 
271 ,54.2016 ,1.53606 ,1.09267 ,10.72132 
272 ,54.4097 ,1.53804 ,1.05503 ,10.35196 
273 ,54.6179 ,1.54020 ,1.04819 ,10.28480 
274 ,54.8261 ,1.54220 ,1.03450 ,10.15049 
275 ,55.0342 ,1.54435 ,1.01054 ,9.91544 
276 ,55.2264 ,1.54628 ,1.02765 ,10.08333 
277 ,55.4184 ,1.54820 ,1.00712 ,9.88186 
278 ,55.6102 ,1.55007 ,0.98659 ,9.68039 
279 ,55.8506 ,1.55246 ,0.96263 ,9.44535 
280 ,56.0586 ,1.55460 ,0.95237 ,9.34461 
281 ,56.2667 ,1.55657 ,0.93868 ,9.21030 
282 ,56.4424 ,1.55854 ,0.92841 ,9.10956 
283 ,56.6350 ,1.56034 ,0.91472 ,8.97525 
284 ,56.8430 ,1.56240 ,0.91472 ,8.97525 
285 ,57.0348 ,1.56434 ,0.89761 ,8.80736 
286 ,57.2270 ,1.56628 ,0.87023 ,8.53873 
287 ,57.4191 ,1.56816 ,0.87708 ,8.60589 
288 ,57.6112 ,1.57011 ,0.85654 ,8.40442 
289 ,57.8034 ,1.57200 ,0.86339 ,8.47158 
290 ,57.9953 ,1.57397 ,0.82575 ,8.10221 
291 ,58.2035 ,1.57606 ,0.83259 ,8.16937 
292 ,58.3954 ,1.57795 ,0.80863 ,7.93432 
293 ,58.5872 ,1.57983 ,0.79837 ,7.83359 
294 ,58.7796 ,1.58184 ,0.79495 ,7.80001 
295 ,58.9877 ,1.58390 ,0.78126 ,7.66570 
296 ,59.1798 ,1.58579 ,0.76415 ,7.49780 
297 ,59.3719 ,1.58772 ,0.74704 ,7.32991 
298 ,59.5799 ,1.58981 ,0.74704 ,7.32991 
299 ,59.7717 ,1.59167 ,0.71624 ,7.02771 
300 ,59.9640 ,1.59359 ,0.71624 ,7.02771 
301 ,60.1722 ,1.59569 ,0.68886 ,6.75908 
302 ,60.3641 ,1.59764 ,0.69228 ,6.79266 
303 ,60.5564 ,1.59952 ,0.67859 ,6.65835 
304 ,60.7641 ,1.60159 ,0.66833 ,6.55761 
305 ,60.9563 ,1.60357 ,0.65121 ,6.38972 
306 ,61.1648 ,1.60566 ,0.65121 ,6.38972 
307 ,61.3565 ,1.60751 ,0.63410 ,6.22183 
308 ,61.5489 ,1.60949 ,0.61357 ,6.02036 
309 ,61.7566 ,1.61152 ,0.61357 ,6.02036 
310 ,61.9484 ,1.61346 ,0.58962 ,5.78531 
311 ,62.1406 ,1.61537 ,0.59646 ,5.85247 
312 ,62.3332 ,1.61729 ,0.55539 ,5.44953 
313 ,62.5248 ,1.61921 ,0.55882 ,5.48311 
314 ,62.7172 ,1.62109 ,0.54513 ,5.34879 
315 ,62.9090 ,1.62311 ,0.53486 ,5.24806 
316 ,63.1015 ,1.62497 ,0.53486 ,5.24806 
317 ,63.3093 ,1.62704 ,0.50406 ,4.94585 
318 ,63.5175 ,1.62914 ,0.51091 ,5.01301 
319 ,63.7254 ,1.63124 ,0.48353 ,4.74438 
320 ,63.9173 ,1.63316 ,0.49380 ,4.84512 
321 ,64.1095 ,1.63504 ,0.45957 ,4.50934 
322 ,64.3014 ,1.63697 ,0.47668 ,4.67723 
323 ,64.4936 ,1.63886 ,0.43220 ,4.24071 
324 ,64.7017 ,1.64089 ,0.43562 ,4.27429 
325 ,64.9098 ,1.64303 ,0.41851 ,4.10640 
326 ,65.1018 ,1.64495 ,0.41509 ,4.07282 
327 ,65.2939 ,1.64692 ,0.39797 ,3.90493 
328 ,65.4863 ,1.64887 ,0.39455 ,3.87135 
329 ,65.6943 ,1.65093 ,0.38771 ,3.80419 
330 ,65.8863 ,1.65284 ,0.36033 ,3.53557 
331 ,66.0787 ,1.65476 ,0.36718 ,3.60272 
332 ,66.2704 ,1.65664 ,0.33638 ,3.30052 
333 ,66.4788 ,1.65874 ,0.34664 ,3.40125 
334 ,66.6868 ,1.66080 ,0.32611 ,3.19978 
335 ,66.8790 ,1.66275 ,0.32269 ,3.16620 
336 ,67.0710 ,1.66470 ,0.29873 ,2.93116 
337 ,67.2791 ,1.66673 ,0.30215 ,2.96473 
338 ,67.4712 ,1.66865 ,0.28162 ,2.76326 
339 ,67.6793 ,1.67074 ,0.27135 ,2.66253 
340 ,67.8713 ,1.67260 ,0.24398 ,2.39390 
341 ,68.0792 ,1.67479 ,0.25082 ,2.46106 
342 ,68.2715 ,1.67668 ,0.22002 ,2.15885 
343 ,68.4792 ,1.67873 ,0.23371 ,2.29317 
344 ,68.6875 ,1.68075 ,0.20291 ,1.99096 
345 ,68.8958 ,1.68289 ,0.20633 ,2.02454 
346 ,69.1200 ,1.68504 ,0.18580 ,1.82307 
347 ,69.3120 ,1.68706 ,0.17211 ,1.68876 
348 ,69.5040 ,1.68900 ,0.16185 ,1.58802 
349 ,69.7121 ,1.69104 ,0.14131 ,1.38655 
350 ,69.9042 ,1.69300 ,0.15500 ,1.52087 
351 ,70.1123 ,1.69511 ,0.11736 ,1.15151 
352 ,70.3684 ,1.69753 ,0.12420 ,1.21866 
353 ,70.5764 ,1.69970 ,0.11736 ,1.15151 
354 ,70.7684 ,1.70165 ,0.08998 ,0.88288 
355 ,70.9606 ,1.70355 ,0.08998 ,0.88288 
356 ,71.1527 ,1.70547 ,0.07287 ,0.71499 
357 ,71.3447 ,1.70738 ,0.05576 ,0.54710 
358 ,71.5370 ,1.70932 ,0.05576 ,0.54710 
359 ,71.7129 ,1.71119 ,0.04207 ,0.41278 
360 ,71.9047 ,1.71295 ,0.04891 ,0.47994 
361 ,72.0972 ,1.71490 ,0.03522 ,0.34563 
362 ,72.2891 ,1.71686 ,0.00443 ,0.04342 
363 ,72.4811 ,1.71875 ,0.01127 ,0.11058 
364 ,72.6733 ,1.72064 ,0.00100 ,0.00984 
365 ,72.8651 ,1.72258 ,-0.00926 ,-0.09089 
366 ,73.0736 ,1.72461 ,-0.02295 ,-0.22520 
367 ,73.2815 ,1.72678 ,-0.04006 ,-0.39310 
368 ,73.4736 ,1.72868 ,-0.04348 ,-0.42667 
369 ,73.6811 ,1.73076 ,-0.05033 ,-0.49383 
370 ,73.8898 ,1.73286 ,-0.07428 ,-0.72888 
371 ,74.0975 ,1.73491 ,-0.06402 ,-0.62814 
372 ,74.2898 ,1.73682 ,-0.09140 ,-0.89677 
373 ,74.4818 ,1.73875 ,-0.09140 ,-0.89677 
374 ,74.6901 ,1.74082 ,-0.11193 ,-1.09824 
375 ,74.8822 ,1.74276 ,-0.11535 ,-1.13182 
376 ,75.0739 ,1.74464 ,-0.12562 ,-1.23255 
377 ,75.2823 ,1.74668 ,-0.13588 ,-1.33329 
378 ,75.5064 ,1.74894 ,-0.16326 ,-1.60191 
379 ,75.6825 ,1.75089 ,-0.14957 ,-1.46760 
380 ,75.8746 ,1.75273 ,-0.17011 ,-1.66907 
381 ,76.0667 ,1.75459 ,-0.19064 ,-1.87054 
382 ,76.2743 ,1.75663 ,-0.18037 ,-1.76981 
383 ,76.4669 ,1.75864 ,-0.20433 ,-2.00485 
384 ,76.6921 ,1.76070 ,-0.20090 ,-1.97128 
385 ,76.9150 ,1.76305 ,-0.21117 ,-2.07201 
386 ,77.1230 ,1.76519 ,-0.23170 ,-2.27348 
387 ,77.2988 ,1.76704 ,-0.24197 ,-2.37422 
388 ,77.4912 ,1.76888 ,-0.26935 ,-2.64284 
389 ,77.6992 ,1.77093 ,-0.24881 ,-2.44137 
390 ,77.9073 ,1.77290 ,-0.28304 ,-2.77716 
391 ,78.0995 ,1.77494 ,-0.27619 ,-2.71000 
392 ,78.2914 ,1.77683 ,-0.30357 ,-2.97863 
393 ,78.4835 ,1.77873 ,-0.30357 ,-2.97863 
394 ,78.6916 ,1.78078 ,-0.32410 ,-3.18010 
395 ,78.8838 ,1.78275 ,-0.31384 ,-3.07936 
396 ,79.0918 ,1.78482 ,-0.34121 ,-3.34799 
397 ,79.2838 ,1.78675 ,-0.33779 ,-3.31441 
398 ,79.4756 ,1.78868 ,-0.34121 ,-3.34799 
399 ,79.7000 ,1.79075 ,-0.34806 ,-3.41514 
400 ,79.9081 ,1.79297 ,-0.38228 ,-3.75093 
401 ,80.1002 ,1.79491 ,-0.36859 ,-3.61661 
402 ,80.2922 ,1.79679 ,-0.38228 ,-3.75093 
403 ,80.4844 ,1.79876 ,-0.38570 ,-3.78450 
404 ,80.6762 ,1.80071 ,-0.40281 ,-3.95240 
405 ,80.8843 ,1.80271 ,-0.41650 ,-4.08671 
406 ,81.0766 ,1.80466 ,-0.40281 ,-3.95240 
407 ,81.2845 ,1.80668 ,-0.43703 ,-4.28818 
408 ,81.4768 ,1.80867 ,-0.44388 ,-4.35534 
409 ,81.6845 ,1.81075 ,-0.47468 ,-4.65754 
410 ,81.8770 ,1.81269 ,-0.46099 ,-4.52323 
411 ,82.0850 ,1.81477 ,-0.47126 ,-4.62396 
412 ,82.2771 ,1.81670 ,-0.47810 ,-4.69112 
413 ,82.4850 ,1.81864 ,-0.49863 ,-4.89259 
414 ,82.6773 ,1.82063 ,-0.50548 ,-4.95975 
415 ,82.9013 ,1.82297 ,-0.50206 ,-4.92617 
416 ,83.1095 ,1.82498 ,-0.53285 ,-5.22837 
417 ,83.3176 ,1.82693 ,-0.53628 ,-5.26195 
418 ,83.5096 ,1.82898 ,-0.55339 ,-5.42984 
419 ,83.7175 ,1.83095 ,-0.54312 ,-5.32911 
420 ,83.9093 ,1.83308 ,-0.56708 ,-5.56415 
421 ,84.1018 ,1.83489 ,-0.56023 ,-5.49700 
422 ,84.2940 ,1.83681 ,-0.57050 ,-5.59773 
423 ,84.5176 ,1.83898 ,-0.58419 ,-5.73205 
424 ,84.7102 ,1.84100 ,-0.60814 ,-5.96709 
425 ,84.9183 ,1.84308 ,-0.59103 ,-5.79920 
426 ,85.1262 ,1.84509 ,-0.61841 ,-6.06783 
427 ,85.3342 ,1.84719 ,-0.63210 ,-6.20214 
428 ,85.5104 ,1.84907 ,-0.63210 ,-6.20214 
429 ,85.7024 ,1.85091 ,-0.63552 ,-6.23572 
430 ,85.8944 ,1.85283 ,-0.65605 ,-6.43719 
431 ,86.0702 ,1.85474 ,-0.66974 ,-6.57150 
432 ,86.2628 ,1.85653 ,-0.66974 ,-6.57150 
433 ,86.4710 ,1.85860 ,-0.68343 ,-6.70582 
434 ,86.6628 ,1.86053 ,-0.68343 ,-6.70582 
435 ,86.8549 ,1.86242 ,-0.69712 ,-6.84013 
436 ,87.0470 ,1.86436 ,-0.70739 ,-6.94086 
437 ,87.2389 ,1.86637 ,-0.71081 ,-6.97444 
438 ,87.4793 ,1.86851 ,-0.72792 ,-7.14233 
439 ,87.6873 ,1.87079 ,-0.73818 ,-7.24307 
440 ,87.8954 ,1.87276 ,-0.73818 ,-7.24307 
441 ,88.0875 ,1.87478 ,-0.76214 ,-7.47812 
442 ,88.2790 ,1.87666 ,-0.74845 ,-7.34380 
443 ,88.4717 ,1.87861 ,-0.77583 ,-7.61243 
444 ,88.6798 ,1.88066 ,-0.77925 ,-7.64601 
445 ,88.8718 ,1.88271 ,-0.79636 ,-7.81390 
446 ,89.0639 ,1.88449 ,-0.79294 ,-7.78032 
447 ,89.2879 ,1.88663 ,-0.81347 ,-7.98179 
448 ,89.4800 ,1.88867 ,-0.81005 ,-7.94821 
449 ,89.6882 ,1.89071 ,-0.83743 ,-8.21684 
450 ,89.8962 ,1.89272 ,-0.82374 ,-8.08253 
451 ,90.1041 ,1.89492 ,-0.84769 ,-8.31758 
452 ,90.2962 ,1.89682 ,-0.85112 ,-8.35115 
453 ,90.5042 ,1.89892 ,-0.85796 ,-8.41831 
454 ,90.6964 ,1.90081 ,-0.86138 ,-8.45189 
455 ,90.9045 ,1.90288 ,-0.88192 ,-8.65336 
456 ,91.0968 ,1.90485 ,-0.88534 ,-8.68694 
457 ,91.3049 ,1.90689 ,-0.88876 ,-8.72051 
458 ,91.4967 ,1.90882 ,-0.91272 ,-8.95556 
459 ,91.7048 ,1.91084 ,-0.91956 ,-9.02272 
460 ,91.9450 ,1.91329 ,-0.92983 ,-9.12345 
461 ,92.1531 ,1.91537 ,-0.94694 ,-9.29135 
462 ,92.3452 ,1.91730 ,-0.94009 ,-9.22419 
463 ,92.5533 ,1.91941 ,-0.96063 ,-9.42566 
