Data stamp = , 01-05-2022 15:14:33 814

Calibration Values: 
Slope = , 26.54 , g/V 
Offset Voltage at no contact = , -0.501760 , V 

No , Time , Stage Position ,   Mass , Force 
   ,  (s) ,      (mm)      ,   (g)  , (mN)  

1 ,0.0000 ,0.99945 ,5.36354 ,52.62704 
2 ,0.3024 ,0.99966 ,5.38065 ,52.79493 
3 ,0.6546 ,1.00095 ,5.39434 ,52.92925 
4 ,0.8628 ,1.00287 ,5.39092 ,52.89567 
5 ,1.0552 ,1.00474 ,5.37038 ,52.69420 
6 ,1.2629 ,1.00681 ,5.39092 ,52.89567 
7 ,1.4550 ,1.00872 ,5.36696 ,52.66062 
8 ,1.6631 ,1.01080 ,5.35327 ,52.52631 
9 ,1.8550 ,1.01275 ,5.30878 ,52.08979 
10 ,2.0635 ,1.01487 ,5.30194 ,52.02263 
11 ,2.2711 ,1.01694 ,5.27456 ,51.75401 
12 ,2.4633 ,1.01886 ,5.27798 ,51.78758 
13 ,2.6557 ,1.02074 ,5.24034 ,51.41822 
14 ,2.8477 ,1.02266 ,5.23692 ,51.38464 
15 ,3.0555 ,1.02481 ,5.20612 ,51.08244 
16 ,3.2480 ,1.02666 ,5.19585 ,50.98170 
17 ,3.4557 ,1.02877 ,5.16505 ,50.67950 
18 ,3.6483 ,1.03067 ,5.14794 ,50.51161 
19 ,3.8401 ,1.03259 ,5.13083 ,50.34372 
20 ,4.0326 ,1.03451 ,5.11030 ,50.14225 
21 ,4.2243 ,1.03645 ,5.09661 ,50.00793 
22 ,4.4325 ,1.03858 ,5.06923 ,49.73931 
23 ,4.6403 ,1.04061 ,5.05212 ,49.57142 
24 ,4.8327 ,1.04252 ,5.02817 ,49.33637 
25 ,5.0246 ,1.04447 ,5.02474 ,49.30279 
26 ,5.2003 ,1.04632 ,4.98368 ,48.89985 
27 ,5.3766 ,1.04808 ,4.97683 ,48.83269 
28 ,5.5848 ,1.04999 ,4.97683 ,48.83269 
29 ,5.8087 ,1.05230 ,4.94261 ,48.49691 
30 ,6.0009 ,1.05419 ,4.91866 ,48.26186 
31 ,6.1930 ,1.05616 ,4.89470 ,48.02681 
32 ,6.3852 ,1.05813 ,4.87759 ,47.85892 
33 ,6.5931 ,1.06004 ,4.85364 ,47.62387 
34 ,6.8011 ,1.06212 ,4.85021 ,47.59030 
35 ,7.0094 ,1.06418 ,4.81941 ,47.28809 
36 ,7.2176 ,1.06636 ,4.78519 ,46.95231 
37 ,7.4091 ,1.06830 ,4.79204 ,47.01946 
38 ,7.6017 ,1.07020 ,4.76466 ,46.75084 
39 ,7.8093 ,1.07225 ,4.74070 ,46.51579 
40 ,8.0020 ,1.07419 ,4.73728 ,46.48221 
41 ,8.1938 ,1.07616 ,4.70648 ,46.18001 
42 ,8.4019 ,1.07818 ,4.69622 ,46.07927 
43 ,8.5937 ,1.08012 ,4.67226 ,45.84422 
44 ,8.7859 ,1.08203 ,4.67568 ,45.87780 
45 ,8.9782 ,1.08397 ,4.63462 ,45.47486 
46 ,9.2183 ,1.08629 ,4.61408 ,45.27339 
47 ,9.4425 ,1.08850 ,4.60724 ,45.20624 
48 ,9.6345 ,1.09051 ,4.56960 ,44.83688 
49 ,9.8262 ,1.09244 ,4.57986 ,44.93761 
50 ,10.0185 ,1.09432 ,4.53880 ,44.53467 
51 ,10.2107 ,1.09630 ,4.53195 ,44.46751 
52 ,10.4027 ,1.09821 ,4.51826 ,44.33320 
53 ,10.5945 ,1.10012 ,4.49773 ,44.13173 
54 ,10.7870 ,1.10201 ,4.48062 ,43.96384 
55 ,10.9949 ,1.10410 ,4.44982 ,43.66163 
56 ,11.1872 ,1.10605 ,4.45666 ,43.72879 
57 ,11.3952 ,1.10815 ,4.41218 ,43.29227 
58 ,11.5871 ,1.11007 ,4.41902 ,43.35943 
59 ,11.7790 ,1.11194 ,4.39507 ,43.12438 
60 ,11.9712 ,1.11385 ,4.37111 ,42.88933 
61 ,12.1952 ,1.11621 ,4.35742 ,42.75502 
62 ,12.3877 ,1.11800 ,4.34373 ,42.62071 
63 ,12.5795 ,1.11994 ,4.31293 ,42.31850 
64 ,12.7720 ,1.12187 ,4.29924 ,42.18419 
65 ,12.9796 ,1.12397 ,4.28556 ,42.04988 
66 ,13.1881 ,1.12608 ,4.27529 ,41.94914 
67 ,13.3960 ,1.12815 ,4.25133 ,41.71409 
68 ,13.5881 ,1.13003 ,4.23422 ,41.54620 
69 ,13.7963 ,1.13214 ,4.20000 ,41.21042 
70 ,13.9878 ,1.13405 ,4.20685 ,41.27758 
71 ,14.1802 ,1.13593 ,4.18631 ,41.07611 
72 ,14.3724 ,1.13788 ,4.16578 ,40.87464 
73 ,14.5645 ,1.13982 ,4.15209 ,40.74032 
74 ,14.7566 ,1.14175 ,4.11787 ,40.40454 
75 ,14.9487 ,1.14366 ,4.12814 ,40.50527 
76 ,15.1246 ,1.14552 ,4.10076 ,40.23665 
77 ,15.3168 ,1.14733 ,4.08023 ,40.03518 
78 ,15.5088 ,1.14920 ,4.06654 ,39.90087 
79 ,15.7011 ,1.15119 ,4.06312 ,39.86729 
80 ,15.8931 ,1.15310 ,4.02547 ,39.49793 
81 ,16.1008 ,1.15516 ,4.01178 ,39.36361 
82 ,16.2933 ,1.15707 ,3.98783 ,39.12856 
83 ,16.5334 ,1.15935 ,3.98098 ,39.06141 
84 ,16.7414 ,1.16157 ,3.96045 ,38.85994 
85 ,16.9335 ,1.16351 ,3.92965 ,38.55773 
86 ,17.1415 ,1.16551 ,3.91938 ,38.45700 
87 ,17.3336 ,1.16749 ,3.89543 ,38.22195 
88 ,17.5258 ,1.16947 ,3.90570 ,38.32268 
89 ,17.7177 ,1.17135 ,3.85779 ,37.85259 
90 ,17.9098 ,1.17320 ,3.85094 ,37.78543 
91 ,18.1019 ,1.17515 ,3.84067 ,37.68470 
92 ,18.2936 ,1.17714 ,3.81672 ,37.44965 
93 ,18.4859 ,1.17905 ,3.80987 ,37.38249 
94 ,18.7102 ,1.18117 ,3.78592 ,37.14744 
95 ,18.9179 ,1.18330 ,3.76539 ,36.94597 
96 ,19.1103 ,1.18526 ,3.74485 ,36.74450 
97 ,19.3022 ,1.18716 ,3.74143 ,36.71093 
98 ,19.4944 ,1.18910 ,3.70721 ,36.37514 
99 ,19.6864 ,1.19104 ,3.71748 ,36.47588 
100 ,19.8786 ,1.19286 ,3.69694 ,36.27441 
101 ,20.0705 ,1.19485 ,3.66272 ,35.93863 
102 ,20.2628 ,1.19683 ,3.67299 ,36.03936 
103 ,20.4704 ,1.19885 ,3.63877 ,35.70358 
104 ,20.6630 ,1.20079 ,3.63534 ,35.67000 
105 ,20.8710 ,1.20280 ,3.58743 ,35.19990 
106 ,21.0787 ,1.20492 ,3.58059 ,35.13275 
107 ,21.2866 ,1.20697 ,3.56006 ,34.93128 
108 ,21.4627 ,1.20890 ,3.55663 ,34.89770 
109 ,21.6712 ,1.21081 ,3.53610 ,34.69623 
110 ,21.8793 ,1.21292 ,3.52584 ,34.59549 
111 ,22.0714 ,1.21479 ,3.49161 ,34.25971 
112 ,22.2637 ,1.21677 ,3.50872 ,34.42760 
113 ,22.4557 ,1.21871 ,3.46766 ,34.02466 
114 ,22.6474 ,1.22066 ,3.44370 ,33.78961 
115 ,22.8558 ,1.22266 ,3.42317 ,33.58814 
116 ,23.0637 ,1.22476 ,3.41975 ,33.55457 
117 ,23.2720 ,1.22685 ,3.38895 ,33.25236 
118 ,23.4641 ,1.22876 ,3.38895 ,33.25236 
119 ,23.6562 ,1.23072 ,3.36499 ,33.01731 
120 ,23.8638 ,1.23274 ,3.35815 ,32.95016 
121 ,24.0564 ,1.23464 ,3.32051 ,32.58080 
122 ,24.2484 ,1.23659 ,3.31024 ,32.48006 
123 ,24.4405 ,1.23854 ,3.30682 ,32.44648 
124 ,24.6646 ,1.24063 ,3.27944 ,32.17786 
125 ,24.8564 ,1.24270 ,3.26575 ,32.04354 
126 ,25.0805 ,1.24483 ,3.23837 ,31.77492 
127 ,25.3047 ,1.24708 ,3.23153 ,31.70776 
128 ,25.4969 ,1.24908 ,3.21784 ,31.57345 
129 ,25.7207 ,1.25124 ,3.19731 ,31.37198 
130 ,25.9130 ,1.25324 ,3.16993 ,31.10335 
131 ,26.1046 ,1.25513 ,3.15624 ,30.96904 
132 ,26.2968 ,1.25703 ,3.14597 ,30.86830 
133 ,26.4887 ,1.25896 ,3.11860 ,30.59968 
134 ,26.7129 ,1.26134 ,3.10833 ,30.49894 
135 ,26.9054 ,1.26316 ,3.09806 ,30.39821 
136 ,27.0972 ,1.26507 ,3.08095 ,30.23031 
137 ,27.2893 ,1.26704 ,3.06384 ,30.06242 
138 ,27.4977 ,1.26904 ,3.06042 ,30.02884 
139 ,27.6896 ,1.27099 ,3.02962 ,29.72664 
140 ,27.8978 ,1.27300 ,3.03304 ,29.76022 
141 ,28.0898 ,1.27497 ,2.99540 ,29.39086 
142 ,28.2979 ,1.27711 ,2.98855 ,29.32370 
143 ,28.4900 ,1.27899 ,2.96802 ,29.12223 
144 ,28.6821 ,1.28087 ,2.96802 ,29.12223 
145 ,28.8742 ,1.28284 ,2.93722 ,28.82003 
146 ,29.0662 ,1.28476 ,2.91669 ,28.61856 
147 ,29.2581 ,1.28672 ,2.92011 ,28.65213 
148 ,29.4504 ,1.28861 ,2.88247 ,28.28277 
149 ,29.6585 ,1.29071 ,2.88247 ,28.28277 
150 ,29.8506 ,1.29263 ,2.85851 ,28.04772 
151 ,30.0426 ,1.29450 ,2.85851 ,28.04772 
152 ,30.2347 ,1.29645 ,2.83114 ,27.77910 
153 ,30.4428 ,1.29855 ,2.82087 ,27.67836 
154 ,30.6349 ,1.30042 ,2.80376 ,27.51047 
155 ,30.8429 ,1.30254 ,2.79007 ,27.37616 
156 ,31.0351 ,1.30445 ,2.77980 ,27.27542 
157 ,31.2430 ,1.30658 ,2.74558 ,26.93964 
158 ,31.4509 ,1.30856 ,2.72505 ,26.73817 
159 ,31.6431 ,1.31059 ,2.71820 ,26.67101 
160 ,31.8514 ,1.31256 ,2.69767 ,26.46954 
161 ,32.0432 ,1.31454 ,2.68056 ,26.30165 
162 ,32.2355 ,1.31642 ,2.65660 ,26.06661 
163 ,32.4274 ,1.31837 ,2.64976 ,25.99945 
164 ,32.6193 ,1.32024 ,2.65318 ,26.03303 
165 ,32.8117 ,1.32219 ,2.62581 ,25.76440 
166 ,33.0195 ,1.32431 ,2.61896 ,25.69724 
167 ,33.2120 ,1.32626 ,2.59843 ,25.49577 
168 ,33.4201 ,1.32826 ,2.58132 ,25.32788 
169 ,33.6122 ,1.33021 ,2.56421 ,25.15999 
170 ,33.8201 ,1.33229 ,2.56078 ,25.12641 
171 ,34.0282 ,1.33439 ,2.52998 ,24.82421 
172 ,34.2203 ,1.33621 ,2.52998 ,24.82421 
173 ,34.4283 ,1.33836 ,2.49234 ,24.45485 
174 ,34.6366 ,1.34044 ,2.49234 ,24.45485 
175 ,34.8285 ,1.34237 ,2.46496 ,24.18622 
176 ,35.0207 ,1.34429 ,2.47181 ,24.25338 
177 ,35.2289 ,1.34636 ,2.43759 ,23.91759 
178 ,35.4208 ,1.34828 ,2.44101 ,23.95117 
179 ,35.6290 ,1.35034 ,2.41021 ,23.64897 
180 ,35.8208 ,1.35232 ,2.39994 ,23.54823 
181 ,36.0448 ,1.35442 ,2.36914 ,23.24603 
182 ,36.2531 ,1.35646 ,2.37941 ,23.34676 
183 ,36.4613 ,1.35873 ,2.35203 ,23.07814 
184 ,36.6532 ,1.36063 ,2.34861 ,23.04456 
185 ,36.8615 ,1.36268 ,2.32465 ,22.80951 
186 ,37.0374 ,1.36458 ,2.30412 ,22.60804 
187 ,37.2295 ,1.36636 ,2.28701 ,22.44015 
188 ,37.4215 ,1.36830 ,2.28017 ,22.37299 
189 ,37.6295 ,1.37035 ,2.24937 ,22.07079 
190 ,37.8375 ,1.37242 ,2.26306 ,22.20510 
191 ,38.0296 ,1.37433 ,2.21172 ,21.70143 
192 ,38.2217 ,1.37627 ,2.22541 ,21.83574 
193 ,38.4301 ,1.37835 ,2.18092 ,21.39922 
194 ,38.6381 ,1.38044 ,2.18777 ,21.46638 
195 ,38.8303 ,1.38239 ,2.17408 ,21.33206 
196 ,39.0539 ,1.38459 ,2.16039 ,21.19775 
197 ,39.2463 ,1.38650 ,2.12959 ,20.89555 
198 ,39.4385 ,1.38848 ,2.13644 ,20.96270 
199 ,39.6465 ,1.39052 ,2.09537 ,20.55976 
200 ,39.8547 ,1.39252 ,2.10564 ,20.66050 
201 ,40.0626 ,1.39471 ,2.07826 ,20.39187 
202 ,40.2545 ,1.39656 ,2.07141 ,20.32472 
203 ,40.4468 ,1.39860 ,2.05430 ,20.15682 
204 ,40.6389 ,1.40043 ,2.03377 ,19.95535 
205 ,40.8310 ,1.40236 ,2.02008 ,19.82104 
206 ,41.0552 ,1.40452 ,2.00982 ,19.72031 
207 ,41.2633 ,1.40667 ,1.98928 ,19.51884 
208 ,41.4552 ,1.40861 ,1.98244 ,19.45168 
209 ,41.6473 ,1.41052 ,1.96190 ,19.25021 
210 ,41.8396 ,1.41246 ,1.95848 ,19.21663 
211 ,42.0474 ,1.41453 ,1.92768 ,18.91443 
212 ,42.2395 ,1.41639 ,1.92426 ,18.88085 
213 ,42.4313 ,1.41832 ,1.90373 ,18.67938 
214 ,42.6238 ,1.42029 ,1.90373 ,18.67938 
215 ,42.8317 ,1.42237 ,1.87977 ,18.44433 
216 ,43.0240 ,1.42431 ,1.86951 ,18.34360 
217 ,43.2319 ,1.42639 ,1.85240 ,18.17570 
218 ,43.4236 ,1.42829 ,1.84213 ,18.07497 
219 ,43.6000 ,1.43014 ,1.82844 ,17.94066 
220 ,43.7921 ,1.43196 ,1.82844 ,17.94066 
221 ,43.9842 ,1.43389 ,1.78395 ,17.50414 
222 ,44.1764 ,1.43578 ,1.79422 ,17.60487 
223 ,44.4005 ,1.43791 ,1.77026 ,17.36983 
224 ,44.6084 ,1.44012 ,1.73262 ,17.00046 
225 ,44.8325 ,1.44227 ,1.74973 ,17.16836 
226 ,45.0406 ,1.44445 ,1.72578 ,16.93331 
227 ,45.2328 ,1.44641 ,1.70866 ,16.76542 
228 ,45.4409 ,1.44848 ,1.69155 ,16.59752 
229 ,45.6487 ,1.45050 ,1.67444 ,16.42963 
230 ,45.8570 ,1.45257 ,1.68129 ,16.49679 
231 ,46.0652 ,1.45464 ,1.65733 ,16.26174 
232 ,46.2569 ,1.45659 ,1.65391 ,16.22816 
233 ,46.4492 ,1.45850 ,1.62995 ,15.99311 
234 ,46.6573 ,1.46063 ,1.61627 ,15.85880 
235 ,46.8491 ,1.46247 ,1.59231 ,15.62375 
236 ,47.0416 ,1.46444 ,1.58889 ,15.59018 
237 ,47.2497 ,1.46652 ,1.56493 ,15.35513 
238 ,47.4417 ,1.46843 ,1.56836 ,15.38871 
239 ,47.6337 ,1.47050 ,1.53413 ,15.05292 
240 ,47.8258 ,1.47229 ,1.51018 ,14.81787 
241 ,48.0020 ,1.47416 ,1.52729 ,14.98577 
242 ,48.2258 ,1.47626 ,1.49649 ,14.68356 
243 ,48.4342 ,1.47840 ,1.49991 ,14.71714 
244 ,48.6258 ,1.48026 ,1.46227 ,14.34778 
245 ,48.8183 ,1.48220 ,1.47253 ,14.44851 
246 ,49.0100 ,1.48411 ,1.46569 ,14.38136 
247 ,49.2025 ,1.48605 ,1.44516 ,14.17989 
248 ,49.4105 ,1.48815 ,1.42462 ,13.97842 
249 ,49.6187 ,1.49015 ,1.42462 ,13.97842 
250 ,49.8105 ,1.49210 ,1.39040 ,13.64263 
251 ,50.0029 ,1.49402 ,1.38014 ,13.54190 
252 ,50.2108 ,1.49609 ,1.35276 ,13.27327 
253 ,50.4032 ,1.49805 ,1.35960 ,13.34043 
254 ,50.6110 ,1.50016 ,1.34249 ,13.17254 
255 ,50.8031 ,1.50206 ,1.32538 ,13.00465 
256 ,51.0109 ,1.50412 ,1.31854 ,12.93749 
257 ,51.2030 ,1.50606 ,1.30143 ,12.76960 
258 ,51.4273 ,1.50813 ,1.30485 ,12.80318 
259 ,51.6354 ,1.51036 ,1.27747 ,12.53455 
260 ,51.8275 ,1.51224 ,1.26036 ,12.36666 
261 ,52.0196 ,1.51421 ,1.26378 ,12.40024 
262 ,52.2274 ,1.51625 ,1.22956 ,12.06445 
263 ,52.4037 ,1.51818 ,1.23298 ,12.09803 
264 ,52.5956 ,1.51997 ,1.20903 ,11.86298 
265 ,52.7878 ,1.52186 ,1.19192 ,11.69509 
266 ,52.9799 ,1.52377 ,1.19876 ,11.76225 
267 ,53.1879 ,1.52586 ,1.16112 ,11.39289 
268 ,53.3796 ,1.52775 ,1.15770 ,11.35931 
269 ,53.5717 ,1.52973 ,1.14401 ,11.22500 
270 ,53.7798 ,1.53182 ,1.13374 ,11.12426 
271 ,53.9723 ,1.53376 ,1.13032 ,11.09068 
272 ,54.1803 ,1.53578 ,1.12347 ,11.02353 
273 ,54.3724 ,1.53775 ,1.09267 ,10.72132 
274 ,54.5645 ,1.53963 ,1.06187 ,10.41912 
275 ,54.7566 ,1.54157 ,1.07556 ,10.55343 
276 ,54.9487 ,1.54349 ,1.03792 ,10.18407 
277 ,55.1407 ,1.54542 ,1.05503 ,10.35196 
278 ,55.3329 ,1.54733 ,1.03108 ,10.11691 
279 ,55.5249 ,1.54927 ,1.01739 ,9.98260 
280 ,55.7170 ,1.55115 ,1.00370 ,9.84829 
281 ,55.9251 ,1.55323 ,0.99001 ,9.71397 
282 ,56.1331 ,1.55534 ,0.97632 ,9.57966 
283 ,56.3411 ,1.55746 ,0.96605 ,9.47892 
284 ,56.5493 ,1.55941 ,0.95579 ,9.37819 
285 ,56.7576 ,1.56154 ,0.94210 ,9.24388 
286 ,56.9656 ,1.56365 ,0.91814 ,9.00883 
287 ,57.1896 ,1.56590 ,0.90446 ,8.87451 
288 ,57.3975 ,1.56800 ,0.90103 ,8.84094 
289 ,57.5896 ,1.56986 ,0.88050 ,8.63947 
290 ,57.7973 ,1.57194 ,0.88392 ,8.67305 
291 ,57.9896 ,1.57387 ,0.83943 ,8.23653 
292 ,58.1979 ,1.57595 ,0.84286 ,8.27011 
293 ,58.3898 ,1.57791 ,0.82575 ,8.10221 
294 ,58.5821 ,1.57976 ,0.83601 ,8.20295 
295 ,58.7742 ,1.58173 ,0.81206 ,7.96790 
296 ,58.9663 ,1.58363 ,0.78468 ,7.69927 
297 ,59.1585 ,1.58557 ,0.80179 ,7.86717 
298 ,59.3665 ,1.58763 ,0.76415 ,7.49780 
299 ,59.5587 ,1.58958 ,0.77784 ,7.63212 
300 ,59.7667 ,1.59165 ,0.74019 ,7.26276 
301 ,59.9582 ,1.59356 ,0.74361 ,7.29633 
302 ,60.1668 ,1.59560 ,0.71966 ,7.06129 
303 ,60.3749 ,1.59771 ,0.71281 ,6.99413 
304 ,60.5670 ,1.59965 ,0.69228 ,6.79266 
305 ,60.7751 ,1.60174 ,0.69228 ,6.79266 
306 ,60.9827 ,1.60382 ,0.66148 ,6.49046 
307 ,61.1752 ,1.60576 ,0.66833 ,6.55761 
308 ,61.3834 ,1.60780 ,0.65806 ,6.45688 
309 ,61.5912 ,1.60994 ,0.63068 ,6.18825 
310 ,61.7994 ,1.61191 ,0.63753 ,6.25541 
311 ,61.9911 ,1.61386 ,0.61015 ,5.98678 
312 ,62.1832 ,1.61577 ,0.59646 ,5.85247 
313 ,62.3758 ,1.61773 ,0.59988 ,5.88605 
314 ,62.5678 ,1.61967 ,0.58962 ,5.78531 
315 ,62.7597 ,1.62156 ,0.57935 ,5.68458 
316 ,62.9680 ,1.62362 ,0.55197 ,5.41595 
317 ,63.1761 ,1.62570 ,0.53828 ,5.28164 
318 ,63.3840 ,1.62786 ,0.54855 ,5.38237 
319 ,63.5921 ,1.62987 ,0.51775 ,5.08017 
320 ,63.8003 ,1.63191 ,0.51091 ,5.01301 
321 ,64.0080 ,1.63408 ,0.48695 ,4.77796 
322 ,64.2004 ,1.63598 ,0.49380 ,4.84512 
323 ,64.3920 ,1.63800 ,0.45273 ,4.44218 
324 ,64.5846 ,1.63978 ,0.45957 ,4.50934 
325 ,64.7923 ,1.64189 ,0.44588 ,4.37502 
326 ,64.9846 ,1.64377 ,0.43904 ,4.30787 
327 ,65.1768 ,1.64570 ,0.42535 ,4.17355 
328 ,65.3844 ,1.64784 ,0.41166 ,4.03924 
329 ,65.5770 ,1.64973 ,0.41166 ,4.03924 
330 ,65.7848 ,1.65179 ,0.38771 ,3.80419 
331 ,65.9771 ,1.65376 ,0.38771 ,3.80419 
332 ,66.1853 ,1.65580 ,0.36718 ,3.60272 
333 ,66.3771 ,1.65771 ,0.36033 ,3.53557 
334 ,66.5688 ,1.65960 ,0.33980 ,3.33410 
335 ,66.7612 ,1.66154 ,0.33980 ,3.33410 
336 ,66.9695 ,1.66363 ,0.31584 ,3.09905 
337 ,67.1614 ,1.66561 ,0.31584 ,3.09905 
338 ,67.3695 ,1.66760 ,0.30215 ,2.96473 
339 ,67.5616 ,1.66954 ,0.30558 ,2.99831 
340 ,67.7537 ,1.67153 ,0.29189 ,2.86400 
341 ,67.9461 ,1.67339 ,0.25767 ,2.52822 
342 ,68.1539 ,1.67548 ,0.25082 ,2.46106 
343 ,68.3462 ,1.67741 ,0.25424 ,2.49464 
344 ,68.5542 ,1.67944 ,0.23371 ,2.29317 
345 ,68.7458 ,1.68152 ,0.24055 ,2.36032 
346 ,68.9382 ,1.68332 ,0.23029 ,2.25959 
347 ,69.1305 ,1.68520 ,0.19607 ,1.92381 
348 ,69.3225 ,1.68716 ,0.20633 ,2.02454 
349 ,69.5146 ,1.68907 ,0.18580 ,1.82307 
350 ,69.7070 ,1.69100 ,0.16527 ,1.62160 
351 ,69.9147 ,1.69308 ,0.17211 ,1.68876 
352 ,70.1068 ,1.69504 ,0.15500 ,1.52087 
353 ,70.2987 ,1.69692 ,0.14816 ,1.45371 
354 ,70.4910 ,1.69883 ,0.11393 ,1.11793 
355 ,70.6993 ,1.70092 ,0.13447 ,1.31940 
356 ,70.8908 ,1.70286 ,0.10367 ,1.01719 
357 ,71.1153 ,1.70496 ,0.10709 ,1.05077 
358 ,71.3234 ,1.70721 ,0.09682 ,0.95004 
359 ,71.5158 ,1.70912 ,0.07287 ,0.71499 
360 ,71.7078 ,1.71100 ,0.05576 ,0.54710 
361 ,71.9156 ,1.71308 ,0.05918 ,0.58067 
362 ,72.1396 ,1.71512 ,0.04207 ,0.41278 
363 ,72.3318 ,1.71728 ,0.02496 ,0.24489 
364 ,72.5238 ,1.71919 ,0.02496 ,0.24489 
365 ,72.7159 ,1.72113 ,0.00785 ,0.07700 
366 ,72.9239 ,1.72318 ,0.01469 ,0.14416 
367 ,73.1158 ,1.72508 ,0.00443 ,0.04342 
368 ,73.3082 ,1.72703 ,-0.01953 ,-0.19163 
369 ,73.5162 ,1.72908 ,-0.03664 ,-0.35952 
370 ,73.7241 ,1.73108 ,-0.05375 ,-0.52741 
371 ,73.9324 ,1.73328 ,-0.05717 ,-0.56099 
372 ,74.1405 ,1.73521 ,-0.06060 ,-0.59457 
373 ,74.3486 ,1.73741 ,-0.08113 ,-0.79604 
374 ,74.5567 ,1.73948 ,-0.07428 ,-0.72888 
375 ,74.7488 ,1.74143 ,-0.09140 ,-0.89677 
376 ,74.9563 ,1.74353 ,-0.10166 ,-0.99751 
377 ,75.1966 ,1.74573 ,-0.10851 ,-1.06466 
378 ,75.3886 ,1.74780 ,-0.13246 ,-1.29971 
379 ,75.5811 ,1.74975 ,-0.13246 ,-1.29971 
380 ,75.7892 ,1.75178 ,-0.16326 ,-1.60191 
381 ,75.9811 ,1.75373 ,-0.14957 ,-1.46760 
382 ,76.1892 ,1.75577 ,-0.17353 ,-1.70265 
383 ,76.3814 ,1.75770 ,-0.16668 ,-1.63549 
384 ,76.5735 ,1.75968 ,-0.19748 ,-1.93770 
385 ,76.7816 ,1.76175 ,-0.19064 ,-1.87054 
386 ,76.9893 ,1.76379 ,-0.20090 ,-1.97128 
387 ,77.1815 ,1.76574 ,-0.21117 ,-2.07201 
388 ,77.3895 ,1.76780 ,-0.23170 ,-2.27348 
389 ,77.5815 ,1.76972 ,-0.22486 ,-2.20632 
390 ,77.7741 ,1.77163 ,-0.25224 ,-2.47495 
391 ,77.9657 ,1.77357 ,-0.24881 ,-2.44137 
392 ,78.1742 ,1.77562 ,-0.26935 ,-2.64284 
393 ,78.3982 ,1.77768 ,-0.26935 ,-2.64284 
394 ,78.6060 ,1.77991 ,-0.28988 ,-2.84431 
395 ,78.7984 ,1.78191 ,-0.28988 ,-2.84431 
396 ,79.0062 ,1.78389 ,-0.30699 ,-3.01220 
397 ,79.1985 ,1.78589 ,-0.30699 ,-3.01220 
398 ,79.3906 ,1.78778 ,-0.33095 ,-3.24725 
399 ,79.5987 ,1.78991 ,-0.33095 ,-3.24725 
400 ,79.7746 ,1.79177 ,-0.35148 ,-3.44872 
401 ,79.9665 ,1.79357 ,-0.33779 ,-3.31441 
402 ,80.1426 ,1.79545 ,-0.36175 ,-3.54946 
403 ,80.3347 ,1.79725 ,-0.39255 ,-3.85166 
404 ,80.5266 ,1.79913 ,-0.38570 ,-3.78450 
405 ,80.7187 ,1.80104 ,-0.38912 ,-3.81808 
406 ,80.9109 ,1.80300 ,-0.40966 ,-4.01955 
407 ,81.1030 ,1.80495 ,-0.40281 ,-3.95240 
408 ,81.2950 ,1.80682 ,-0.41992 ,-4.12029 
409 ,81.4871 ,1.80877 ,-0.43019 ,-4.22102 
410 ,81.6791 ,1.81074 ,-0.41992 ,-4.12029 
411 ,81.8872 ,1.81269 ,-0.44730 ,-4.38891 
412 ,82.1113 ,1.81489 ,-0.46441 ,-4.55681 
413 ,82.2874 ,1.81687 ,-0.46783 ,-4.59038 
414 ,82.4636 ,1.81865 ,-0.48152 ,-4.72470 
415 ,82.6556 ,1.82043 ,-0.50548 ,-4.95975 
416 ,82.8477 ,1.82234 ,-0.50548 ,-4.95975 
417 ,83.0237 ,1.82425 ,-0.49863 ,-4.89259 
418 ,83.2158 ,1.82613 ,-0.52943 ,-5.19479 
419 ,83.3918 ,1.82794 ,-0.52259 ,-5.12764 
420 ,83.5840 ,1.82971 ,-0.53285 ,-5.22837 
421 ,83.7760 ,1.83165 ,-0.54997 ,-5.39626 
422 ,83.9520 ,1.83353 ,-0.53970 ,-5.29553 
423 ,84.2402 ,1.83588 ,-0.54312 ,-5.32911 
424 ,84.4324 ,1.83821 ,-0.58077 ,-5.69847 
425 ,84.6244 ,1.84012 ,-0.57392 ,-5.63131 
426 ,84.8168 ,1.84207 ,-0.59445 ,-5.83278 
427 ,85.0250 ,1.84413 ,-0.60130 ,-5.89994 
428 ,85.2008 ,1.84599 ,-0.60472 ,-5.93352 
429 ,85.3931 ,1.84782 ,-0.62183 ,-6.10141 
430 ,85.6014 ,1.84993 ,-0.61499 ,-6.03425 
431 ,85.7933 ,1.85180 ,-0.65263 ,-6.40361 
432 ,85.9854 ,1.85373 ,-0.62868 ,-6.16856 
433 ,86.1931 ,1.85577 ,-0.65263 ,-6.40361 
434 ,86.3852 ,1.85771 ,-0.65947 ,-6.47077 
435 ,86.5774 ,1.85961 ,-0.67316 ,-6.60508 
436 ,86.7697 ,1.86162 ,-0.68343 ,-6.70582 
437 ,86.9779 ,1.86365 ,-0.68343 ,-6.70582 
438 ,87.1857 ,1.86561 ,-0.70396 ,-6.90729 
439 ,87.3776 ,1.86764 ,-0.71765 ,-7.04160 
440 ,87.5701 ,1.86959 ,-0.72450 ,-7.10876 
441 ,87.7781 ,1.87165 ,-0.72792 ,-7.14233 
442 ,87.9700 ,1.87354 ,-0.74161 ,-7.27665 
443 ,88.1784 ,1.87569 ,-0.74503 ,-7.31023 
444 ,88.3860 ,1.87774 ,-0.74845 ,-7.34380 
445 ,88.5784 ,1.87962 ,-0.76898 ,-7.54527 
446 ,88.7703 ,1.88156 ,-0.77925 ,-7.64601 
447 ,88.9626 ,1.88351 ,-0.76556 ,-7.51170 
448 ,89.1709 ,1.88555 ,-0.79636 ,-7.81390 
449 ,89.3630 ,1.88752 ,-0.78952 ,-7.74674 
450 ,89.5706 ,1.88956 ,-0.81005 ,-7.94821 
451 ,89.7790 ,1.89160 ,-0.82032 ,-8.04895 
452 ,89.9868 ,1.89366 ,-0.82716 ,-8.11611 
453 ,90.1791 ,1.89561 ,-0.83058 ,-8.14968 
454 ,90.3872 ,1.89777 ,-0.84769 ,-8.31758 
455 ,90.5951 ,1.89982 ,-0.85454 ,-8.38473 
456 ,90.7875 ,1.90169 ,-0.87165 ,-8.55262 
457 ,90.9795 ,1.90364 ,-0.86138 ,-8.45189 
458 ,91.1877 ,1.90565 ,-0.88192 ,-8.65336 
459 ,91.3956 ,1.90785 ,-0.88876 ,-8.72051 
460 ,91.5877 ,1.90972 ,-0.89560 ,-8.78767 
461 ,91.7795 ,1.91164 ,-0.90245 ,-8.85483 
462 ,91.9720 ,1.91357 ,-0.91614 ,-8.98914 
463 ,92.1799 ,1.91564 ,-0.91272 ,-8.95556 
