Point No.,Normal Force [N],Gap [mm],Time [s]
1,4.209142,11.4175,308.3880
2,4.208525,11.4175,308.3930
3,4.207852,11.4175,308.3980
4,4.207276,11.4175,308.4030
5,4.207347,11.4175,308.4080
6,4.207468,11.4175,308.4130
7,4.208277,11.4175,308.4180
8,4.208936,11.4181,308.4230
9,4.207371,11.4181,308.4270
10,4.204728,11.4181,308.4320
11,4.194824,11.4200,308.4370
12,4.187434,11.4200,308.4420
13,4.175652,11.4231,308.4470
14,4.164036,11.4231,308.4520
15,4.145327,11.4274,308.4570
16,4.122568,11.4331,308.4630
17,4.104433,11.4330,308.4680
18,4.079407,11.4374,308.4730
19,4.059598,11.4374,308.4780
20,4.033080,11.4424,308.4830
21,4.014375,11.4424,308.4880
22,3.991934,11.4474,308.4930
23,3.974599,11.4473,308.4980
24,3.951906,11.4530,308.5030
25,3.934856,11.4529,308.5080
26,3.916133,11.4573,308.5130
27,3.898920,11.4573,308.5180
28,3.877110,11.4623,308.5230
29,3.858957,11.4623,308.5280
30,3.847506,11.4623,308.5320
31,3.818948,11.4673,308.5370
32,3.806551,11.4672,308.5420
33,3.776503,11.4729,308.5470
34,3.766191,11.4728,308.5520
35,3.737967,11.4772,308.5570
36,3.726847,11.4772,308.5620
37,3.698775,11.4822,308.5670
38,3.687454,11.4822,308.5720
39,3.657470,11.4872,308.5770
40,3.647117,11.4872,308.5820
41,3.618420,11.4928,308.5870
42,3.610288,11.4928,308.5920
43,3.583806,11.4971,308.5970
44,3.574492,11.4971,308.6020
45,3.545766,11.5027,308.6070
46,3.536007,11.5027,308.6120
47,3.508109,11.5071,308.6170
48,3.498382,11.5071,308.6220
49,3.470223,11.5127,308.6270
50,3.463063,11.5127,308.6320
51,3.436919,11.5170,308.6370
52,3.426963,11.5170,308.6420
53,3.398719,11.5226,308.6470
54,3.390671,11.5226,308.6520
55,3.362596,11.5270,308.6570
56,3.353173,11.5270,308.6620
57,3.325359,11.5326,308.6670
58,3.318331,11.5326,308.6720
59,3.292303,11.5369,308.6770
60,3.283755,11.5369,308.6820
61,3.256755,11.5425,308.6870
62,3.249497,11.5425,308.6920
63,3.223114,11.5469,308.6970
64,3.214571,11.5469,308.7020
65,3.186388,11.5525,308.7070
66,3.180351,11.5525,308.7120
67,3.154824,11.5569,308.7170
68,3.146860,11.5569,308.7220
69,3.120613,11.5625,308.7270
70,3.114206,11.5625,308.7320
71,3.088006,11.5668,308.7370
72,3.080206,11.5668,308.7420
73,3.052752,11.5724,308.7470
74,3.047179,11.5724,308.7520
75,3.021595,11.5768,308.7570
76,3.013435,11.5768,308.7620
77,2.987431,11.5824,308.7670
78,2.980973,11.5824,308.7720
79,2.955263,11.5867,308.7770
80,2.948155,11.5867,308.7820
81,2.921398,11.5923,308.7870
82,2.915142,11.5923,308.7920
83,2.889409,11.5967,308.7970
84,2.882385,11.5967,308.8020
85,2.857409,11.6023,308.8070
86,2.851443,11.6023,308.8120
87,2.826088,11.6067,308.8170
88,2.818607,11.6067,308.8220
89,2.792083,11.6123,308.8270
90,2.787594,11.6123,308.8320
91,2.764026,11.6166,308.8370
92,2.757812,11.6166,308.8420
93,2.732360,11.6222,308.8470
94,2.725855,11.6222,308.8520
95,2.700571,11.6266,308.8570
96,2.693528,11.6266,308.8620
97,2.668132,11.6322,308.8670
98,2.663423,11.6322,308.8720
99,2.639949,11.6366,308.8770
100,2.633196,11.6366,308.8820
101,2.607445,11.6422,308.8870
102,2.600440,11.6422,308.8920
103,2.575034,11.6465,308.8970
104,2.568095,11.6465,308.9020
105,2.544078,11.6521,308.9070
106,2.539902,11.6521,308.9120
107,2.516521,11.6565,308.9170
108,2.509072,11.6565,308.9220
109,2.483311,11.6621,308.9270
110,2.477124,11.6621,308.9320
111,2.453295,11.6664,308.9370
112,2.446837,11.6664,308.9420
113,2.421923,11.6721,308.9470
114,2.416965,11.6721,308.9520
115,2.393626,11.6764,308.9570
116,2.386402,11.6764,308.9620
117,2.361674,11.6820,308.9670
118,2.356521,11.6820,308.9720
119,2.334347,11.6864,308.9770
120,2.327655,11.6864,308.9820
121,2.305439,11.6920,308.9870
122,2.301380,11.6920,308.9920
123,2.281516,11.6963,308.9970
124,2.275544,11.6963,309.0020
125,2.253458,11.7020,309.0070
126,2.247253,11.7020,309.0120
127,2.225092,11.7063,309.0170
128,2.218139,11.7063,309.0220
129,2.194964,11.7119,309.0270
130,2.189577,11.7119,309.0320
131,2.168450,11.7163,309.0370
132,2.162760,11.7163,309.0420
133,2.141791,11.7219,309.0470
134,2.137330,11.7219,309.0520
135,2.116133,11.7262,309.0570
136,2.110119,11.7262,309.0620
137,2.086280,11.7319,309.0670
138,2.081856,11.7319,309.0720
139,2.060575,11.7362,309.0770
140,2.054295,11.7362,309.0820
141,2.030624,11.7418,309.0870
142,2.025335,11.7418,309.0920
143,2.001497,11.7462,309.0970
144,1.994075,11.7462,309.1020
145,1.968366,11.7518,309.1070
146,1.963072,11.7518,309.1120
147,1.940730,11.7561,309.1170
148,1.934557,11.7561,309.1220
149,1.911293,11.7618,309.1270
150,1.905518,11.7617,309.1320
151,1.881693,11.7661,309.1370
152,1.874973,11.7661,309.1420
153,1.851022,11.7717,309.1470
154,1.846037,11.7717,309.1520
155,1.823877,11.7761,309.1570
156,1.817059,11.7761,309.1620
157,1.792350,11.7817,309.1670
158,1.785901,11.7817,309.1720
159,1.762521,11.7860,309.1770
160,1.755511,11.7860,309.1820
161,1.731344,11.7916,309.1870
162,1.726453,11.7916,309.1920
163,1.704920,11.7960,309.1970
164,1.697957,11.7960,309.2020
165,1.673711,11.8016,309.2070
166,1.668066,11.8016,309.2120
167,1.646140,11.8060,309.2170
168,1.639359,11.8060,309.2220
169,1.614300,11.8116,309.2270
170,1.608384,11.8116,309.2320
171,1.586037,11.8159,309.2370
172,1.579561,11.8159,309.2420
173,1.556671,11.8209,309.2470
174,1.551097,11.8209,309.2520
175,1.528936,11.8259,309.2570
176,1.522240,11.8259,309.2620
177,1.498359,11.8315,309.2670
178,1.492289,11.8315,309.2720
179,1.469455,11.8359,309.2770
180,1.461768,11.8359,309.2820
181,1.437110,11.8408,309.2870
182,1.430947,11.8408,309.2920
183,1.409123,11.8458,309.2970
184,1.402460,11.8458,309.3020
185,1.379331,11.8514,309.3070
186,1.374216,11.8514,309.3120
187,1.352892,11.8558,309.3170
188,1.346561,11.8558,309.3220
189,1.323788,11.8608,309.3270
190,1.317194,11.8608,309.3320
191,1.295398,11.8658,309.3370
192,1.288992,11.8658,309.3420
193,1.267122,11.8714,309.3470
194,1.261431,11.8714,309.3520
195,1.239991,11.8757,309.3570
196,1.232658,11.8757,309.3620
197,1.210316,11.8807,309.3670
198,1.204228,11.8807,309.3720
199,1.183475,11.8857,309.3770
200,1.176876,11.8857,309.3820
201,1.154707,11.8913,309.3870
202,1.149296,11.8913,309.3920
203,1.129086,11.8957,309.3970
204,1.122348,11.8957,309.4020
205,1.100594,11.9007,309.4070
206,1.094398,11.9006,309.4120
207,1.073444,11.9056,309.4170
208,1.066299,11.9056,309.4220
209,1.043652,11.9112,309.4270
210,1.037667,11.9112,309.4320
211,1.018340,11.9156,309.4370
212,1.011873,11.9156,309.4420
213,0.990185,11.9206,309.4470
214,0.984054,11.9206,309.4520
215,0.962820,11.9256,309.4570
216,0.955174,11.9256,309.4620
217,0.933977,11.9312,309.4670
218,0.928632,11.9312,309.4720
219,0.908889,11.9355,309.4770
220,0.902081,11.9355,309.4820
221,0.880210,11.9405,309.4870
222,0.873496,11.9405,309.4920
223,0.852972,11.9455,309.4970
224,0.845340,11.9455,309.5020
225,0.824096,11.9511,309.5070
226,0.818171,11.9511,309.5120
227,0.799041,11.9555,309.5170
228,0.792499,11.9555,309.5220
229,0.772565,11.9605,309.5270
230,0.766289,11.9605,309.5320
231,0.745742,11.9654,309.5370
232,0.738045,11.9654,309.5420
233,0.717858,11.9710,309.5470
234,0.712906,11.9710,309.5520
235,0.693912,11.9754,309.5570
236,0.686514,11.9754,309.5620
237,0.665770,11.9804,309.5670
238,0.659911,11.9804,309.5720
239,0.641029,11.9854,309.5770
240,0.633664,11.9854,309.5820
241,0.612822,11.9910,309.5870
242,0.606360,11.9910,309.5920
243,0.586897,11.9953,309.5970
244,0.579963,11.9953,309.6020
245,0.559832,12.0003,309.6070
246,0.553173,12.0003,309.6120
247,0.533121,12.0053,309.6170
248,0.525265,12.0053,309.6220
249,0.504068,12.0103,309.6270
250,0.498200,12.0103,309.6320
251,0.479149,12.0153,309.6370
252,0.471414,12.0153,309.6420
253,0.450765,12.0203,309.6470
254,0.443970,12.0203,309.6520
255,0.425027,12.0253,309.6570
256,0.416582,12.0252,309.6620
257,0.396614,12.0302,309.6670
258,0.390143,12.0302,309.6720
259,0.371606,12.0352,309.6770
260,0.363255,12.0352,309.6820
261,0.342881,12.0402,309.6870
262,0.336811,12.0402,309.6920
263,0.323432,12.0452,309.6970
264,0.318232,12.0452,309.7020
265,0.302067,12.0502,309.7070
266,0.296937,12.0502,309.7120
267,0.283708,12.0552,309.7170
268,0.278602,12.0552,309.7220
269,0.262619,12.0602,309.7270
270,0.257419,12.0602,309.7320
271,0.243750,12.0651,309.7370
272,0.238588,12.0651,309.7420
273,0.226042,12.0701,309.7470
274,0.222806,12.0701,309.7520
275,0.208183,12.0751,309.7570
276,0.202109,12.0751,309.7620
277,0.188319,12.0801,309.7670
278,0.183965,12.0801,309.7720
279,0.171424,12.0851,309.7770
280,0.166308,12.0851,309.7820
281,0.147875,12.0901,309.7870
282,0.138948,12.0901,309.7920
283,0.122212,12.0951,309.7970
284,0.115258,12.0951,309.8020
285,0.100341,12.1001,309.8070
286,0.096044,12.1001,309.8120
287,0.083512,12.1044,309.8170
288,0.079621,12.1044,309.8220
289,0.064802,12.1100,309.8270
290,0.058405,12.1100,309.8320
291,0.044297,12.1150,309.8370
292,0.039434,12.1150,309.8420
293,0.024873,12.1200,309.8470
294,0.017648,12.1200,309.8520
295,-0.000814,12.1250,309.8570
296,-0.007173,12.1250,309.8620
297,-0.021342,12.1300,309.8670
298,-0.025887,12.1300,309.8720
299,-0.038663,12.1350,309.8770
300,-0.045471,12.1350,309.8820
301,-0.061090,12.1400,309.8870
302,-0.067557,12.1400,309.8920
303,-0.083704,12.1443,309.8970
304,-0.091452,12.1443,309.9020
305,-0.108249,12.1499,309.9070
306,-0.113898,12.1499,309.9120
307,-0.126715,12.1549,309.9170
308,-0.133215,12.1549,309.9220
309,-0.149100,12.1599,309.9270
310,-0.155684,12.1599,309.9320
311,-0.170222,12.1643,309.9370
312,-0.177409,12.1643,309.9420
313,-0.192340,12.1699,309.9470
314,-0.197400,12.1699,309.9520
315,-0.208791,12.1749,309.9570
316,-0.214683,12.1749,309.9620
317,-0.229586,12.1799,309.9670
318,-0.235534,12.1799,309.9720
319,-0.249039,12.1842,309.9770
320,-0.255721,12.1842,309.9820
321,-0.269217,12.1898,309.9870
322,-0.274449,12.1898,309.9920
323,-0.286570,12.1948,309.9970
324,-0.293421,12.1948,310.0020
325,-0.309301,12.1998,310.0070
326,-0.315899,12.1998,310.0120
327,-0.327936,12.2042,310.0170
328,-0.333972,12.2042,310.0220
329,-0.346238,12.2098,310.0270
330,-0.350882,12.2098,310.0320
331,-0.362193,12.2148,310.0370
332,-0.368595,12.2148,310.0420
333,-0.381838,12.2198,310.0470
334,-0.387552,12.2198,310.0520
335,-0.398901,12.2248,310.0570
336,-0.405172,12.2248,310.0620
337,-0.418092,12.2298,310.0670
338,-0.424040,12.2298,310.0720
339,-0.435712,12.2347,310.0770
340,-0.442165,12.2347,310.0820
341,-0.455207,12.2397,310.0870
342,-0.461244,12.2397,310.0920
343,-0.471952,12.2441,310.0970
344,-0.478092,12.2441,310.1020
345,-0.491171,12.2497,310.1070
346,-0.497293,12.2497,310.1120
347,-0.508090,12.2547,310.1170
348,-0.514174,12.2547,310.1220
349,-0.526724,12.2597,310.1270
350,-0.532930,12.2597,310.1320
351,-0.544204,12.2647,310.1370
352,-0.550844,12.2647,310.1420
353,-0.562413,12.2697,310.1470
354,-0.568183,12.2697,310.1520
355,-0.577971,12.2747,310.1570
356,-0.584676,12.2747,310.1620
357,-0.597475,12.2796,310.1670
358,-0.603764,12.2796,310.1720
359,-0.614697,12.2840,310.1770
360,-0.621562,12.2840,310.1820
361,-0.632874,12.2896,310.1870
362,-0.638452,12.2896,310.1920
363,-0.647931,12.2946,310.1970
364,-0.654155,12.2946,310.2020
365,-0.666201,12.2996,310.2070
366,-0.672902,12.2996,310.2120
367,-0.683531,12.3046,310.2170
368,-0.691218,12.3046,310.2220
369,-0.703119,12.3096,310.2270
370,-0.709114,12.3096,310.2320
371,-0.717966,12.3146,310.2370
372,-0.724316,12.3146,310.2420
373,-0.735483,12.3196,310.2470
374,-0.741852,12.3196,310.2520
375,-0.751171,12.3246,310.2570
376,-0.758340,12.3246,310.2620
377,-0.769675,12.3295,310.2670
378,-0.775609,12.3295,310.2720
379,-0.784307,12.3345,310.2770
380,-0.790353,12.3345,310.2820
381,-0.800252,12.3395,310.2870
382,-0.806378,12.3395,310.2920
383,-0.815843,12.3445,310.2970
384,-0.823909,12.3445,310.3020
385,-0.836600,12.3495,310.3070
386,-0.843517,12.3495,310.3120
387,-0.851471,12.3545,310.3170
388,-0.857021,12.3545,310.3220
389,-0.866879,12.3595,310.3270
390,-0.873856,12.3595,310.3320
391,-0.884073,12.3645,310.3370
392,-0.892121,12.3645,310.3420
393,-0.902081,12.3695,310.3470
394,-0.907814,12.3695,310.3520
395,-0.915039,12.3745,310.3570
396,-0.921403,12.3745,310.3620
397,-0.931798,12.3795,310.3670
398,-0.938854,12.3794,310.3720
399,-0.947524,12.3844,310.3770
400,-0.954613,12.3844,310.3820
401,-0.964288,12.3894,310.3870
402,-0.970807,12.3894,310.3920
403,-0.977283,12.3944,310.3970
404,-0.984485,12.3944,310.4020
405,-0.995319,12.3994,310.4070
406,-1.003194,12.3994,310.4120
407,-1.011611,12.4044,310.4170
408,-1.018247,12.4044,310.4220
409,-1.026383,12.4100,310.4270
410,-1.032644,12.4100,310.4320
411,-1.039359,12.4144,310.4370
412,-1.046972,12.4144,310.4420
413,-1.057297,12.4194,310.4470
414,-1.064569,12.4194,310.4520
415,-1.070601,12.4244,310.4570
416,-1.076909,12.4244,310.4630
417,-1.085672,12.4294,310.4680
418,-1.091700,12.4294,310.4730
419,-1.098971,12.4344,310.4780
420,-1.105209,12.4343,310.4830
421,-1.113206,12.4393,310.4880
422,-1.118405,12.4393,310.4930
423,-1.124639,12.4443,310.4980
424,-1.130704,12.4443,310.5030
425,-1.138424,12.4500,310.5080
426,-1.144096,12.4500,310.5130
427,-1.150797,12.4543,310.5180
428,-1.157639,12.4543,310.5230
429,-1.165415,12.4593,310.5280
430,-1.170708,12.4593,310.5330
431,-1.176881,12.4643,310.5380
432,-1.184031,12.4643,310.5430
433,-1.191611,12.4693,310.5480
434,-1.196442,12.4693,310.5530
435,-1.202431,12.4743,310.5580
436,-1.208066,12.4743,310.5630
437,-1.215006,12.4793,310.5680
438,-1.221655,12.4793,310.5730
439,-1.228721,12.4843,310.5780
440,-1.236040,12.4843,310.5830
441,-1.243114,12.4893,310.5880
442,-1.248235,12.4893,310.5930
443,-1.254454,12.4943,310.5980
444,-1.260253,12.4943,310.6030
445,-1.267365,12.4993,310.6080
446,-1.273220,12.4992,310.6130
447,-1.279785,12.5042,310.6180
448,-1.286823,12.5042,310.6230
449,-1.294206,12.5099,310.6280
450,-1.299589,12.5099,310.6330
451,-1.305387,12.5142,310.6380
452,-1.310723,12.5142,310.6430
453,-1.318111,12.5192,310.6480
454,-1.323872,12.5192,310.6530
455,-1.329250,12.5242,310.6580
456,-1.336063,12.5242,310.6630
457,-1.342946,12.5292,310.6680
458,-1.348132,12.5292,310.6730
459,-1.353631,12.5342,310.6780
460,-1.360402,12.5342,310.6830
461,-1.368399,12.5392,310.6880
462,-1.375904,12.5392,310.6930
463,-1.381730,12.5442,310.6980
464,-1.388702,12.5442,310.7030
465,-1.395633,12.5492,310.7080
466,-1.402516,12.5492,310.7130
467,-1.408165,12.5542,310.7180
468,-1.415483,12.5542,310.7230
469,-1.423021,12.5592,310.7280
470,-1.429371,12.5592,310.7330
471,-1.433800,12.5642,310.7380
472,-1.439930,12.5641,310.7430
473,-1.446626,12.5698,310.7480
474,-1.454898,12.5698,310.7530
475,-1.461478,12.5741,310.7580
476,-1.468665,12.5741,310.7630
477,-1.474973,12.5791,310.7680
478,-1.481309,12.5791,310.7730
479,-1.486421,12.5841,310.7780
480,-1.493341,12.5841,310.7830
481,-1.499612,12.5891,310.7880
482,-1.506332,12.5891,310.7930
483,-1.511733,12.5941,310.7980
484,-1.519027,12.5941,310.8030
485,-1.524976,12.5991,310.8080
486,-1.530320,12.5991,310.8130
487,-1.534468,12.6041,310.8180
488,-1.541375,12.6041,310.8230
489,-1.547907,12.6091,310.8280
490,-1.555207,12.6091,310.8330
491,-1.560299,12.6141,310.8380
492,-1.566968,12.6141,310.8430
493,-1.572467,12.6191,310.8480
494,-1.578027,12.6191,310.8530
495,-1.582694,12.6241,310.8580
496,-1.591148,12.6241,310.8630
497,-1.597311,12.6291,310.8680
498,-1.603802,12.6291,310.8730
499,-1.607585,12.6341,310.8780
500,-1.613879,12.6340,310.8830
501,-1.619112,12.6390,310.8880
502,-1.625504,12.6390,310.8930
503,-1.630334,12.6440,310.8980
504,-1.638779,12.6440,310.9030
505,-1.644555,12.6490,310.9080
506,-1.650550,12.6490,310.9130
507,-1.654033,12.6540,310.9180
508,-1.660799,12.6540,310.9230
509,-1.666823,12.6590,310.9280
510,-1.674061,12.6590,310.9330
511,-1.678770,12.6640,310.9380
512,-1.686467,12.6640,310.9430
513,-1.691111,12.6696,310.9480
514,-1.696811,12.6696,310.9530
515,-1.699373,12.6740,310.9580
516,-1.705813,12.6740,310.9630
517,-1.711345,12.6790,310.9680
518,-1.717246,12.6790,310.9730
519,-1.718387,12.6840,310.9780
520,-1.722263,12.6840,310.9830
521,-1.724723,12.6890,310.9880
522,-1.728754,12.6890,310.9930
523,-1.731504,12.6940,310.9980
524,-1.738392,12.6940,311.0030
525,-1.743217,12.6990,311.0080
526,-1.749208,12.6990,311.0130
527,-1.750522,12.7040,311.0180
528,-1.753561,12.7040,311.0230
529,-1.755366,12.7096,311.0280
530,-1.758971,12.7096,311.0330
531,-1.761553,12.7140,311.0380
532,-1.768674,12.7140,311.0430
533,-1.773089,12.7190,311.0480
534,-1.779939,12.7189,311.0530
535,-1.783077,12.7239,311.0580
536,-1.790840,12.7239,311.0630
537,-1.795258,12.7289,311.0680
538,-1.803077,12.7289,311.0730
539,-1.806205,12.7339,311.0780
540,-1.813397,12.7339,311.0830
541,-1.816778,12.7389,311.0880
542,-1.821838,12.7389,311.0930
543,-1.822825,12.7439,311.0980
544,-1.828520,12.7439,311.1030
545,-1.830723,12.7495,311.1080
546,-1.833051,12.7495,311.1130
547,-1.832065,12.7539,311.1180
548,-1.835619,12.7539,311.1230
549,-1.838541,12.7589,311.1280
550,-1.845074,12.7589,311.1330
551,-1.847014,12.7639,311.1380
552,-1.855703,12.7639,311.1430
553,-1.859869,12.7689,311.1480
554,-1.867333,12.7689,311.1530
555,-1.868693,12.7739,311.1580
556,-1.875436,12.7739,311.1630
557,-1.878854,12.7789,311.1680
558,-1.885602,12.7789,311.1730
559,-1.886958,12.7839,311.1780
560,-1.893547,12.7839,311.1830
561,-1.895287,12.7889,311.1880
562,-1.899514,12.7889,311.1930
563,-1.899275,12.7939,311.1980
564,-1.903751,12.7939,311.2030
565,-1.903456,12.7989,311.2080
566,-1.905064,12.7989,311.2130
567,-1.903390,12.8039,311.2180
568,-1.904372,12.8039,311.2230
569,-1.902394,12.8089,311.2280
570,-1.901370,12.8089,311.2330
571,-1.893613,12.8139,311.2380
572,-1.888693,12.8139,311.2430
573,-1.886112,12.8189,311.2480
574,-1.888412,12.8189,311.2530
575,-1.887660,12.8233,311.2580
576,-1.894786,12.8233,311.2630
577,-1.897157,12.8289,311.2680
578,-1.904578,12.8289,311.2730
579,-1.906229,12.8339,311.2780
580,-1.914108,12.8339,311.2830
581,-1.916498,12.8389,311.2880
582,-1.923030,12.8389,311.2930
583,-1.923653,12.8439,311.2980
584,-1.932607,12.8439,311.3030
585,-1.935553,12.8489,311.3080
586,-1.943381,12.8489,311.3130
587,-1.944031,12.8539,311.3180
588,-1.951569,12.8539,311.3230
589,-1.954730,12.8588,311.3280
590,-1.962656,12.8588,311.3330
591,-1.963638,12.8632,311.3380
592,-1.972588,12.8632,311.3430
593,-1.974276,12.8688,311.3480
594,-1.981992,12.8688,311.3530
595,-1.982736,12.8738,311.3580
596,-1.990952,12.8738,311.3630
597,-1.993744,12.8788,311.3680
598,-2.001604,12.8788,311.3730
599,-2.002609,12.8832,311.3780
600,-2.012284,12.8832,311.3830
601,-2.014328,12.8888,311.3880
602,-2.021987,12.8888,311.3930
603,-2.021539,12.8938,311.3980
604,-2.028567,12.8938,311.4030
605,-2.030045,12.8988,311.4080
606,-2.037218,12.8988,311.4130
607,-2.037017,12.9032,311.4180
608,-2.045832,12.9032,311.4230
609,-2.047688,12.9088,311.4280
610,-2.056278,12.9088,311.4330
611,-2.056119,12.9138,311.4380
612,-2.064410,12.9138,311.4430
613,-2.066439,12.9188,311.4480
614,-2.075202,12.9188,311.4530
615,-2.075501,12.9232,311.4580
616,-2.084040,12.9231,311.4630
617,-2.085200,12.9288,311.4680
618,-2.093416,12.9288,311.4730
619,-2.093004,12.9331,311.4780
620,-2.101754,12.9331,311.4830
621,-2.103564,12.9388,311.4880
622,-2.111242,12.9388,311.4930
623,-2.110283,12.9431,311.4980
624,-2.118396,12.9431,311.5030
625,-2.119359,12.9487,311.5080
626,-2.128633,12.9487,311.5130
627,-2.128333,12.9531,311.5180
628,-2.135945,12.9531,311.5230
629,-2.136834,12.9587,311.5280
630,-2.145242,12.9587,311.5330
631,-2.145115,12.9631,311.5380
632,-2.154281,12.9631,311.5430
633,-2.155235,12.9687,311.5480
634,-2.164793,12.9687,311.5530
635,-2.163503,12.9731,311.5580
636,-2.171097,12.9731,311.5630
