Point No.,Normal Force [N],Gap [mm],Time [s]
1,14.286641,4.2847,351.6
2,14.285691,4.2847,351.6
3,14.282519,4.2847,351.6
4,14.282698,4.2847,351.6
5,14.284550,4.2847,351.6
6,14.281981,4.2847,351.6
7,14.243349,4.2847,351.6
8,14.203605,4.2859,351.6
9,14.127068,4.2858,351.6
10,14.025424,4.2876,351.6
11,13.828773,4.2875,351.6
12,13.591133,4.2918,351.6
13,13.263667,4.2916,351.6
14,13.075037,4.2952,351.6
15,12.670877,4.2950,351.6
16,12.335214,4.2998,351.6
17,12.021290,4.2996,351.6
18,11.711631,4.3044,351.6
19,11.469671,4.3043,351.7
20,11.135442,4.3091,351.7
21,10.824872,4.3089,351.7
22,10.535736,4.3137,351.7
23,10.282740,4.3136,351.7
24,9.999238,4.3184,351.7
25,9.743237,4.3182,351.7
26,9.494913,4.3231,351.7
27,9.289296,4.3230,351.7
28,9.017356,4.3278,351.7
29,8.750601,4.3277,351.7
30,8.638403,4.3326,351.7
31,8.346383,4.3324,351.7
32,8.234903,4.3374,351.7
33,7.910301,4.3372,351.7
34,7.801959,4.3421,351.7
35,7.546991,4.3420,351.7
36,7.447674,4.3469,351.7
37,7.134893,4.3467,351.7
38,7.070822,4.3517,351.7
39,6.843685,4.3515,351.8
40,6.768450,4.3565,351.8
41,6.564924,4.3564,351.8
42,6.494838,4.3607,351.8
43,6.295071,4.3606,351.8
44,6.203228,4.3662,351.8
45,5.959739,4.3660,351.8
46,5.881450,4.3710,351.8
47,5.688091,4.3709,351.8
48,5.611242,4.3752,351.8
49,5.396942,4.3751,351.8
50,5.357962,4.3800,351.8
51,5.198368,4.3799,351.8
52,5.129119,4.3849,351.8
53,4.923058,4.3848,351.8
54,4.876900,4.3904,351.8
55,4.790989,4.3903,351.8
56,4.823952,4.3953,351.8
57,4.772402,4.3953,351.8
58,4.748876,4.4003,351.8
59,4.661576,4.4003,351.9
60,4.627141,4.4052,351.9
61,4.520337,4.4052,351.9
62,4.507360,4.4102,351.9
63,4.422524,4.4101,351.9
64,4.373599,4.4151,351.9
65,4.282067,4.4150,351.9
66,4.277765,4.4194,351.9
67,4.199763,4.4194,351.9
68,4.161422,4.4243,351.9
69,4.039673,4.4243,351.9
70,4.007150,4.4292,351.9
71,3.938967,4.4292,351.9
72,3.937367,4.4342,351.9
73,3.959738,4.4342,351.9
74,3.981146,4.4392,351.9
75,3.944737,4.4392,351.9
76,3.937185,4.4442,351.9
77,3.874478,4.4442,351.9
78,3.867108,4.4498,351.9
79,3.817176,4.4498,352
80,3.796367,4.4547,352
81,3.786014,4.4547,352
82,3.808226,4.4591,352
83,3.808221,4.4591,352
84,3.801455,4.4641,352
85,3.760290,4.4641,352
86,3.758233,4.4691,352
87,3.720407,4.4691,352
88,3.699762,4.4741,352
89,3.667885,4.4740,352
90,3.650470,4.4790,352
91,3.614080,4.4790,352
92,3.609371,4.4840,352
93,3.567519,4.4840,352
94,3.572869,4.4890,352
95,3.541843,4.4890,352
96,3.527800,4.4890,352
97,3.505200,4.4939,352
98,3.500379,4.4939,352
99,3.467360,4.4995,352.1
100,3.453061,4.5039,352.1
101,3.406327,4.5039,352.1
102,3.418350,4.5089,352.1
103,3.393144,4.5089,352.1
104,3.372860,4.5139,352.1
105,3.346421,4.5138,352.1
106,3.341553,4.5188,352.1
107,3.308310,4.5188,352.1
108,3.297536,4.5238,352.1
109,3.266818,4.5238,352.1
110,3.266650,4.5288,352.1
111,3.226566,4.5288,352.1
112,3.204573,4.5338,352.1
113,3.178139,4.5337,352.1
114,3.166917,4.5337,352.1
115,3.139228,4.5387,352.1
116,3.125771,4.5387,352.1
117,3.098041,4.5443,352.1
118,3.101670,4.5487,352.1
119,3.065401,4.5487,352.2
120,3.050246,4.5537,352.2
121,3.029258,4.5537,352.2
122,3.027730,4.5587,352.2
123,2.993538,4.5586,352.2
124,2.983826,4.5636,352.2
125,2.952153,4.5636,352.2
126,2.961155,4.5686,352.2
127,2.929222,4.5686,352.2
128,2.911392,4.5736,352.2
129,2.893655,4.5736,352.2
130,2.894576,4.5786,352.2
131,2.865864,4.5786,352.2
132,2.851495,4.5786,352.2
133,2.826710,4.5835,352.2
134,2.836988,4.5835,352.2
135,2.798915,4.5892,352.2
136,2.788936,4.5891,352.2
137,2.770414,4.5935,352.2
138,2.769222,4.5985,352.2
139,2.742535,4.5985,352.3
140,2.735512,4.6035,352.3
141,2.706837,4.6035,352.3
142,2.718027,4.6085,352.3
143,2.687566,4.6085,352.3
144,2.672593,4.6135,352.3
145,2.657882,4.6134,352.3
146,2.655801,4.6184,352.3
147,2.632920,4.6184,352.3
148,2.625396,4.6234,352.3
149,2.598130,4.6234,352.3
150,2.609788,4.6234,352.3
151,2.576269,4.6284,352.3
152,2.567515,4.6284,352.3
153,2.552808,4.6340,352.3
154,2.549489,4.6340,352.3
155,2.532327,4.6384,352.3
156,2.523311,4.6384,352.3
157,2.509156,4.6434,352.3
158,2.517732,4.6484,352.3
159,2.501412,4.6484,352.4
160,2.492411,4.6533,352.4
161,2.480664,4.6533,352.4
162,2.477480,4.6583,352.4
163,2.460557,4.6583,352.4
164,2.454313,4.6633,352.4
165,2.429095,4.6633,352.4
166,2.440328,4.6683,352.4
167,2.413584,4.6683,352.4
168,2.408376,4.6733,352.4
169,2.390391,4.6733,352.4
170,2.390703,4.6733,352.4
171,2.361389,4.6783,352.4
172,2.358125,4.6783,352.4
173,2.334683,4.6833,352.4
174,2.346299,4.6833,352.4
175,2.315511,4.6882,352.4
176,2.301352,4.6882,352.4
177,2.285588,4.6932,352.4
178,2.285976,4.6982,352.4
179,2.259345,4.6982,352.5
180,2.254043,4.7032,352.5
181,2.226589,4.7032,352.5
182,2.240225,4.7082,352.5
183,2.202221,4.7082,352.5
184,2.206102,4.7132,352.5
185,2.178073,4.7132,352.5
186,2.185911,4.7182,352.5
187,2.157882,4.7181,352.5
188,2.153780,4.7181,352.5
189,2.119958,4.7231,352.5
190,2.139186,4.7231,352.5
191,2.106018,4.7287,352.5
192,2.097391,4.7287,352.5
193,2.077610,4.7331,352.5
194,2.077545,4.7331,352.5
195,2.050175,4.7381,352.5
196,2.051214,4.7381,352.5
197,2.018658,4.7431,352.5
198,2.042586,4.7481,352.5
199,2.005541,4.7481,352.6
200,2.005097,4.7531,352.6
201,1.985471,4.7530,352.6
202,1.994641,4.7531,352.6
203,1.955997,4.7580,352.6
204,1.960777,4.7580,352.6
205,1.926556,4.7630,352.6
206,1.952233,4.7630,352.6
207,1.913598,4.7680,352.6
208,1.913902,4.7680,352.6
209,1.890456,4.7730,352.6
210,1.900973,4.7730,352.6
211,1.866360,4.7780,352.6
212,1.864298,4.7780,352.6
213,1.836414,4.7830,352.6
214,1.859271,4.7830,352.6
215,1.814160,4.7879,352.6
216,1.818887,4.7879,352.6
217,1.795875,4.7929,352.6
218,1.805060,4.7929,352.6
219,1.775067,4.7979,352.7
220,1.776975,4.7979,352.7
221,1.742020,4.8029,352.7
222,1.768763,4.8029,352.7
223,1.730255,4.8079,352.7
224,1.732354,4.8079,352.7
225,1.709783,4.8129,352.7
226,1.720571,4.8129,352.7
227,1.689207,4.8179,352.7
228,1.696339,4.8179,352.7
229,1.655039,4.8229,352.7
230,1.692677,4.8229,352.7
231,1.644316,4.8278,352.7
232,1.647669,4.8278,352.7
233,1.618583,4.8328,352.7
234,1.638419,4.8328,352.7
235,1.601651,4.8378,352.7
236,1.611658,4.8378,352.7
237,1.575595,4.8428,352.7
238,1.606294,4.8428,352.7
239,1.563058,4.8478,352.8
240,1.573753,4.8478,352.8
241,1.549152,4.8528,352.8
242,1.559098,4.8528,352.8
243,1.528441,4.8578,352.8
244,1.537176,4.8578,352.8
245,1.504821,4.8628,352.8
246,1.536198,4.8628,352.8
247,1.493753,4.8684,352.8
248,1.500281,4.8684,352.8
249,1.475525,4.8727,352.8
250,1.491719,4.8728,352.8
251,1.457667,4.8777,352.8
252,1.467585,4.8777,352.8
253,1.429189,4.8827,352.8
254,1.463414,4.8827,352.8
255,1.412654,4.8877,352.8
256,1.434478,4.8877,352.8
257,1.404358,4.8927,352.8
258,1.421525,4.8927,352.8
259,1.379691,4.8977,352.9
260,1.401244,4.8977,352.9
261,1.356951,4.9027,352.9
262,1.398485,4.9027,352.9
263,1.348847,4.9077,352.9
264,1.364672,4.9077,352.9
265,1.334571,4.9127,352.9
266,1.351976,4.9127,352.9
267,1.321758,4.9177,352.9
268,1.329278,4.9177,352.9
269,1.291980,4.9226,352.9
270,1.338995,4.9227,352.9
271,1.282161,4.9276,352.9
272,1.297017,4.9276,352.9
273,1.270466,4.9326,352.9
274,1.287201,4.9326,352.9
275,1.253902,4.9376,352.9
276,1.265985,4.9376,352.9
277,1.227482,4.9426,352.9
278,1.273701,4.9426,352.9
279,1.212817,4.9476,353
280,1.240725,4.9476,353
281,1.204877,4.9526,353
282,1.226790,4.9526,353
283,1.188913,4.9576,353
284,1.209610,4.9576,353
285,1.164045,4.9626,353
286,1.207954,4.9626,353
287,1.153313,4.9676,353
288,1.178817,4.9676,353
289,1.142249,4.9725,353
290,1.166991,4.9726,353
291,1.128557,4.9775,353
292,1.144171,4.9776,353
293,1.109685,4.9825,353
294,1.149306,4.9826,353
295,1.093093,4.9875,353
296,1.123283,4.9875,353
297,1.087052,4.9925,353
298,1.113005,4.9925,353
299,1.071354,4.9975,353.1
300,1.091667,4.9975,353.1
301,1.050769,5.0019,353.1
302,1.094146,5.0019,353.1
303,1.035127,5.0075,353.1
304,1.070040,5.0075,353.1
305,1.031634,5.0125,353.1
306,1.062273,5.0125,353.1
307,1.014253,5.0175,353.1
308,1.035656,5.0175,353.1
309,0.990077,5.0225,353.1
310,1.037246,5.0225,353.1
311,0.979023,5.0275,353.1
312,1.012719,5.0275,353.1
313,0.972181,5.0324,353.1
314,1.000837,5.0325,353.1
315,0.960079,5.0368,353.1
316,0.987688,5.0368,353.1
317,0.938560,5.0418,353.1
318,0.988267,5.0418,353.1
319,0.926102,5.0474,353.2
320,0.958840,5.0474,353.2
321,0.916535,5.0524,353.2
322,0.948974,5.0524,353.2
323,0.909404,5.0574,353.2
324,0.927968,5.0574,353.2
325,0.882553,5.0624,353.2
326,0.933252,5.0624,353.2
327,0.873388,5.0674,353.2
328,0.911648,5.0674,353.2
329,0.863549,5.0724,353.2
330,0.894197,5.0724,353.2
331,0.857031,5.0768,353.2
332,0.883161,5.0768,353.2
333,0.819972,5.0817,353.2
334,0.884227,5.0818,353.2
335,0.808225,5.0874,353.2
336,0.856825,5.0874,353.2
337,0.802773,5.0917,353.2
338,0.845368,5.0917,353.2
339,0.785724,5.0967,353.3
340,0.817999,5.0967,353.3
341,0.766439,5.1023,353.3
342,0.829614,5.1024,353.3
343,0.747388,5.1073,353.3
344,0.796399,5.1073,353.3
345,0.745733,5.1123,353.3
346,0.783217,5.1123,353.3
347,0.727758,5.1173,353.3
348,0.760154,5.1173,353.3
349,0.713841,5.1217,353.3
350,0.766229,5.1217,353.3
351,0.703886,5.1267,353.3
352,0.740337,5.1267,353.3
353,0.695389,5.1317,353.3
354,0.728918,5.1317,353.3
355,0.685864,5.1367,353.3
356,0.706009,5.1367,353.3
357,0.670947,5.1416,353.3
358,0.713369,5.1417,353.3
359,0.663559,5.1466,353.4
360,0.692822,5.1467,353.4
361,0.657994,5.1523,353.4
362,0.686491,5.1523,353.4
363,0.646547,5.1573,353.4
364,0.668983,5.1573,353.4
365,0.620832,5.1616,353.4
366,0.673173,5.1616,353.4
367,0.620019,5.1666,353.4
368,0.655188,5.1666,353.4
369,0.614304,5.1716,353.4
370,0.645859,5.1716,353.4
371,0.600491,5.1766,353.4
372,0.631644,5.1766,353.4
373,0.581870,5.1816,353.4
374,0.627805,5.1816,353.4
375,0.566509,5.1866,353.4
376,0.610068,5.1866,353.4
377,0.565373,5.1916,353.4
378,0.601693,5.1916,353.4
379,0.551849,5.1972,353.5
380,0.584232,5.1972,353.5
381,0.535955,5.2022,353.5
382,0.587744,5.2022,353.5
383,0.522216,5.2072,353.5
384,0.564891,5.2072,353.5
385,0.516708,5.2116,353.5
386,0.555824,5.2116,353.5
387,0.498298,5.2165,353.5
388,0.536848,5.2166,353.5
389,0.483535,5.2215,353.5
390,0.538555,5.2216,353.5
391,0.469736,5.2265,353.5
392,0.520313,5.2266,353.5
393,0.468749,5.2315,353.5
394,0.506392,5.2315,353.5
395,0.458560,5.2365,353.5
396,0.489899,5.2365,353.5
397,0.437592,5.2421,353.5
398,0.492247,5.2422,353.5
399,0.427716,5.2471,353.6
400,0.473799,5.2472,353.6
401,0.421562,5.2515,353.6
402,0.460786,5.2515,353.6
403,0.410835,5.2565,353.6
404,0.443021,5.2565,353.6
405,0.392401,5.2615,353.6
406,0.442731,5.2615,353.6
407,0.377956,5.2665,353.6
408,0.428450,5.2665,353.6
409,0.371849,5.2715,353.6
410,0.412214,5.2715,353.6
411,0.357246,5.2765,353.6
412,0.395805,5.2765,353.6
413,0.340828,5.2815,353.6
414,0.388324,5.2815,353.6
415,0.331162,5.2864,353.6
416,0.347267,5.2915,353.6
417,0.322815,5.2914,353.6
418,0.344877,5.2965,353.6
419,0.307398,5.2964,353.7
420,0.330685,5.3014,353.7
421,0.295632,5.3014,353.7
422,0.330339,5.3064,353.7
423,0.281202,5.3064,353.7
424,0.302114,5.3114,353.7
425,0.276965,5.3114,353.7
426,0.301127,5.3164,353.7
427,0.262881,5.3164,353.7
428,0.280136,5.3214,353.7
429,0.241379,5.3214,353.7
430,0.283573,5.3264,353.7
431,0.230966,5.3264,353.7
432,0.251845,5.3314,353.7
433,0.231517,5.3314,353.7
434,0.253827,5.3364,353.7
435,0.215212,5.3364,353.7
436,0.233589,5.3414,353.7
437,0.196582,5.3414,353.7
438,0.237073,5.3464,353.7
439,0.182904,5.3464,353.8
440,0.206051,5.3514,353.8
441,0.178424,5.3514,353.8
442,0.208768,5.3564,353.8
443,0.169726,5.3563,353.8
444,0.184087,5.3614,353.8
445,0.143979,5.3613,353.8
446,0.188679,5.3664,353.8
447,0.133042,5.3663,353.8
448,0.160622,5.3713,353.8
449,0.126738,5.3713,353.8
450,0.151920,5.3757,353.8
451,0.115067,5.3757,353.8
452,0.138611,5.3813,353.8
453,0.099476,5.3813,353.8
454,0.146832,5.3863,353.8
455,0.087996,5.3863,353.8
456,0.112551,5.3913,353.8
457,0.082268,5.3913,353.8
458,0.112892,5.3957,353.8
459,0.068010,5.3957,353.9
460,0.096385,5.4007,353.9
461,0.054744,5.4007,353.9
462,0.096535,5.4057,353.9
463,0.037737,5.4056,353.9
464,0.065069,5.4107,353.9
465,0.032883,5.4106,353.9
466,0.060968,5.4157,353.9
467,0.021992,5.4156,353.9
468,0.048258,5.4207,353.9
469,0.005223,5.4206,353.9
470,0.051906,5.4263,353.9
471,-0.012037,5.4262,353.9
472,0.016072,5.4313,353.9
473,-0.018494,5.4312,353.9
474,0.014819,5.4363,353.9
475,-0.026102,5.4362,353.9
476,0.007641,5.4406,353.9
477,-0.034847,5.4406,353.9
478,0.017227,5.4456,353.9
479,-0.041057,5.4456,354
480,-0.012513,5.4506,354
481,-0.051625,5.4506,354
482,-0.014777,5.4556,354
483,-0.062137,5.4556,354
484,-0.033299,5.4606,354
485,-0.076699,5.4606,354
486,-0.027791,5.4656,354
487,-0.097545,5.4656,354
488,-0.056671,5.4706,354
489,-0.098148,5.4706,354
490,-0.061394,5.4762,354
491,-0.110980,5.4762,354
492,-0.080140,5.4812,354
493,-0.124765,5.4812,354
494,-0.078200,5.4862,354
495,-0.136240,5.4862,354
496,-0.103933,5.4906,354
497,-0.143863,5.4905,354
498,-0.111045,5.4956,354
499,-0.156521,5.4955,354.1
500,-0.129764,5.5005,354.1
501,-0.168436,5.5005,354.1
502,-0.119603,5.5056,354.1
503,-0.182128,5.5055,354.1
504,-0.143119,5.5105,354.1
505,-0.184470,5.5105,354.1
506,-0.151616,5.5155,354.1
507,-0.196474,5.5155,354.1
508,-0.167982,5.5212,354.1
509,-0.216844,5.5211,354.1
510,-0.159551,5.5262,354.1
511,-0.223287,5.5261,354.1
512,-0.189226,5.5305,354.1
513,-0.228777,5.5305,354.1
514,-0.195230,5.5355,354.1
515,-0.245990,5.5355,354.1
516,-0.208913,5.5405,354.1
517,-0.259107,5.5405,354.1
518,-0.200019,5.5455,354.1
519,-0.270208,5.5455,354.2
520,-0.230596,5.5505,354.2
521,-0.282679,5.5505,354.2
522,-0.237409,5.5555,354.2
523,-0.291321,5.5555,354.2
524,-0.251775,5.5605,354.2
525,-0.309792,5.5604,354.2
526,-0.249871,5.5605,354.2
527,-0.309137,5.5661,354.2
528,-0.280991,5.5711,354.2
529,-0.317073,5.5711,354.2
530,-0.286986,5.5755,354.2
531,-0.325153,5.5754,354.2
532,-0.296109,5.5805,354.2
533,-0.346556,5.5804,354.2
534,-0.290269,5.5855,354.2
535,-0.360884,5.5854,354.2
536,-0.317082,5.5904,354.2
537,-0.364223,5.5904,354.2
538,-0.334552,5.5954,354.2
539,-0.362464,5.5954,354.3
540,-0.346809,5.6004,354.3
541,-0.366060,5.6004,354.3
542,-0.341094,5.6054,354.3
543,-0.394015,5.6054,354.3
544,-0.359224,5.6054,354.3
545,-0.391363,5.6104,354.3
546,-0.363054,5.6104,354.3
547,-0.404779,5.6160,354.3
548,-0.377643,5.6160,354.3
549,-0.412864,5.6204,354.3
550,-0.364522,5.6254,354.3
551,-0.416226,5.6254,354.3
552,-0.380145,5.6304,354.3
553,-0.419808,5.6304,354.3
554,-0.384419,5.6354,354.3
555,-0.429282,5.6354,354.3
556,-0.400224,5.6404,354.3
557,-0.437554,5.6404,354.3
558,-0.392055,5.6454,354.3
559,-0.445995,5.6454,354.4
560,-0.417685,5.6504,354.4
561,-0.450984,5.6504,354.4
562,-0.415310,5.6554,354.4
563,-0.459280,5.6554,354.4
564,-0.428768,5.6554,354.4
565,-0.475001,5.6603,354.4
566,-0.433257,5.6604,354.4
567,-0.494641,5.6660,354.4
568,-0.449301,5.6660,354.4
569,-0.511588,5.6703,354.4
570,-0.452495,5.6754,354.4
571,-0.522333,5.6753,354.4
572,-0.462109,5.6804,354.4
573,-0.528464,5.6803,354.4
574,-0.458190,5.6854,354.4
575,-0.543044,5.6853,354.4
576,-0.497307,5.6903,354.4
577,-0.548113,5.6903,354.4
578,-0.489296,5.6953,354.4
579,-0.564466,5.6953,354.5
580,-0.499734,5.7003,354.5
581,-0.565060,5.7003,354.5
582,-0.524891,5.7003,354.5
583,-0.585340,5.7053,354.5
584,-0.522768,5.7053,354.5
585,-0.585364,5.7109,354.5
586,-0.531578,5.7109,354.5
587,-0.599013,5.7153,354.5
588,-0.554954,5.7153,354.5
589,-0.609675,5.7203,354.5
590,-0.549703,5.7253,354.5
591,-0.617082,5.7253,354.5
592,-0.576858,5.7303,354.5
593,-0.628829,5.7303,354.5
594,-0.575876,5.7353,354.5
595,-0.629764,5.7353,354.5
596,-0.595950,5.7403,354.5
597,-0.644452,5.7402,354.5
598,-0.584484,5.7453,354.5
599,-0.656722,5.7452,354.6
600,-0.607879,5.7453,354.6
601,-0.660299,5.7502,354.6
602,-0.610629,5.7503,354.6
603,-0.668080,5.7559,354.6
604,-0.628006,5.7559,354.6
605,-0.679944,5.7602,354.6
606,-0.624943,5.7603,354.6
607,-0.689698,5.7652,354.6
608,-0.643142,5.7652,354.6
609,-0.701230,5.7702,354.6
610,-0.651873,5.7752,354.6
611,-0.702852,5.7752,354.6
612,-0.661983,5.7802,354.6
613,-0.713098,5.7802,354.6
614,-0.654772,5.7852,354.6
615,-0.721665,5.7852,354.6
616,-0.678003,5.7902,354.6
617,-0.731522,5.7902,354.6
618,-0.682048,5.7952,354.6
619,-0.735726,5.7952,354.7
620,-0.694211,5.7952,354.7
621,-0.741510,5.8002,354.7
622,-0.690045,5.8002,354.7
623,-0.750063,5.8058,354.7
624,-0.707435,5.8058,354.7
625,-0.762796,5.8102,354.7
626,-0.718962,5.8102,354.7
627,-0.764073,5.8152,354.7
628,-0.728515,5.8152,354.7
629,-0.775838,5.8202,354.7
630,-0.723909,5.8202,354.7
631,-0.786205,5.8252,354.7
632,-0.740449,5.8252,354.7
633,-0.795936,5.8302,354.7
634,-0.746631,5.8302,354.7
635,-0.801347,5.8352,354.7
636,-0.758667,5.8352,354.7
637,-0.808815,5.8401,354.7
638,-0.752172,5.8402,354.7
639,-0.819986,5.8451,354.8
640,-0.768225,5.8452,354.8
641,-0.828034,5.8508,354.8
642,-0.780440,5.8508,354.8
643,-0.832621,5.8551,354.8
644,-0.789394,5.8552,354.8
645,-0.837798,5.8601,354.8
646,-0.783269,5.8602,354.8
647,-0.842118,5.8651,354.8
648,-0.779299,5.8652,354.8
649,-0.830044,5.8701,354.8
650,-0.777152,5.8702,354.8
651,-0.829684,5.8751,354.8
652,-0.788847,5.8752,354.8
653,-0.842282,5.8801,354.8
654,-0.785499,5.8802,354.8
655,-0.844798,5.8851,354.8
656,-0.799172,5.8852,354.8
657,-0.854197,5.8901,354.8
658,-0.810428,5.8901,354.8
659,-0.859621,5.8957,354.9
660,-0.820472,5.8958,354.9
661,-0.866865,5.9001,354.9
662,-0.814880,5.9001,354.9
663,-0.869605,5.9051,354.9
664,-0.826556,5.9051,354.9
665,-0.880112,5.9101,354.9
666,-0.837587,5.9101,354.9
667,-0.881090,5.9151,354.9
668,-0.850713,5.9151,354.9
669,-0.887781,5.9201,354.9
670,-0.838307,5.9201,354.9
671,-0.888399,5.9251,354.9
672,-0.837508,5.9251,354.9
673,-0.882867,5.9301,354.9
674,-0.835511,5.9301,354.9
675,-0.882502,5.9351,354.9
676,-0.852111,5.9351,354.9
677,-0.890849,5.9401,354.9
678,-0.840332,5.9401,354.9
679,-0.889633,5.9457,355
680,-0.855343,5.9457,355
681,-0.901693,5.9501,355
682,-0.863502,5.9501,355
683,-0.899575,5.9551,355
684,-0.875128,5.9551,355
685,-0.905163,5.9601,355
686,-0.865878,5.9601,355
687,-0.906304,5.9651,355
688,-0.878480,5.9651,355
689,-0.917840,5.9701,355
690,-0.883297,5.9701,355
691,-0.915142,5.9751,355
692,-0.892612,5.9751,355
693,-0.918378,5.9801,355
694,-0.887169,5.9801,355
695,-0.927529,5.9851,355
696,-0.898111,5.9851,355
697,-0.940323,5.9901,355
698,-0.901936,5.9901,355
699,-0.937807,5.9951,355.1
700,-0.910274,5.9951,355.1
701,-0.944872,6.0001,355.1
702,-0.908539,6.0001,355.1
703,-0.947122,6.0051,355.1
704,-0.915530,6.0051,355.1
705,-0.963325,6.0101,355.1
706,-0.915366,6.0101,355.1
707,-0.958415,6.0151,355.1
708,-0.922932,6.0151,355.1
709,-0.965743,6.0201,355.1
710,-0.924499,6.0201,355.1
711,-0.971564,6.0251,355.1
712,-0.932761,6.0251,355.1
713,-0.981646,6.0300,355.1
714,-0.935955,6.0301,355.1
715,-0.983634,6.0350,355.1
716,-0.951976,6.0351,355.1
717,-0.985967,6.0400,355.1
718,-0.944396,6.0401,355.1
719,-0.989366,6.0450,355.2
720,-0.953776,6.0451,355.2
721,-1.007856,6.0500,355.2
722,-0.961777,6.0501,355.2
723,-1.005724,6.0550,355.2
724,-0.977339,6.0550,355.2
725,-1.015983,6.0600,355.2
726,-0.968763,6.0601,355.2
727,-1.013743,6.0650,355.2
728,-0.973860,6.0650,355.2
729,-1.029918,6.0700,355.2
730,-0.983923,6.0700,355.2
731,-1.032766,6.0750,355.2
732,-0.997653,6.0750,355.2
733,-1.039953,6.0800,355.2
734,-0.994440,6.0800,355.2
735,-1.036685,6.0850,355.2
736,-1.002385,6.0850,355.2
737,-1.052972,6.0900,355.2
738,-1.015782,6.0900,355.2
