Data stamp = , 22-04-2022 07:06:09 602

Calibration Values: 
Slope = , 26.54 , g/V 
Offset Voltage at no contact = , -0.501760 , V 

No , Time , Stage Position ,   Mass , Force 
   ,  (s) ,      (mm)      ,   (g)  , (mN)  

1 ,0.0000 ,0.69939 ,5.35327 ,52.52631 
2 ,0.2240 ,0.69948 ,5.33616 ,52.35841 
3 ,0.6882 ,0.70085 ,5.35327 ,52.52631 
4 ,0.8644 ,0.70291 ,5.34301 ,52.42557 
5 ,1.0403 ,0.70455 ,5.34301 ,52.42557 
6 ,1.2166 ,0.70629 ,5.34985 ,52.49273 
7 ,1.3925 ,0.70804 ,5.36696 ,52.66062 
8 ,1.5845 ,0.70992 ,5.33274 ,52.32484 
9 ,1.7608 ,0.71175 ,5.32589 ,52.25768 
10 ,1.9529 ,0.71360 ,5.32247 ,52.22410 
11 ,2.1450 ,0.71563 ,5.28483 ,51.85474 
12 ,2.3206 ,0.71741 ,5.28825 ,51.88832 
13 ,2.4972 ,0.71914 ,5.27456 ,51.75401 
14 ,2.6891 ,0.72111 ,5.24718 ,51.48538 
15 ,2.8810 ,0.72296 ,5.21296 ,51.14960 
16 ,3.0573 ,0.72471 ,5.21981 ,51.21675 
17 ,3.2494 ,0.72658 ,5.20612 ,51.08244 
18 ,3.4253 ,0.72836 ,5.16848 ,50.71308 
19 ,3.6175 ,0.73026 ,5.16505 ,50.67950 
20 ,3.7932 ,0.73209 ,5.14452 ,50.47803 
21 ,3.9858 ,0.73388 ,5.13768 ,50.41087 
22 ,4.1778 ,0.73591 ,5.11372 ,50.17583 
23 ,4.3697 ,0.73781 ,5.08977 ,49.94078 
24 ,4.5619 ,0.73972 ,5.05554 ,49.60499 
25 ,4.7861 ,0.74185 ,5.04870 ,49.53784 
26 ,4.9781 ,0.74386 ,5.04528 ,49.50426 
27 ,5.1541 ,0.74573 ,5.01790 ,49.23563 
28 ,5.3301 ,0.74743 ,5.00421 ,49.10132 
29 ,5.5060 ,0.74920 ,4.98026 ,48.86627 
30 ,5.6986 ,0.75103 ,4.97683 ,48.83269 
31 ,5.8745 ,0.75294 ,4.93919 ,48.46333 
32 ,6.0503 ,0.75465 ,4.93235 ,48.39618 
33 ,6.2266 ,0.75643 ,4.90839 ,48.16113 
34 ,6.4027 ,0.75819 ,4.88786 ,47.95966 
35 ,6.5944 ,0.76009 ,4.87417 ,47.82534 
36 ,6.7707 ,0.76186 ,4.86390 ,47.72461 
37 ,6.9791 ,0.76391 ,4.85021 ,47.59030 
38 ,7.1710 ,0.76576 ,4.82626 ,47.35525 
39 ,7.3631 ,0.76772 ,4.79888 ,47.08662 
40 ,7.5552 ,0.76969 ,4.78861 ,46.98589 
41 ,7.7313 ,0.77147 ,4.77493 ,46.85157 
42 ,7.9392 ,0.77345 ,4.75097 ,46.61653 
43 ,8.1315 ,0.77549 ,4.72702 ,46.38148 
44 ,8.3235 ,0.77730 ,4.70648 ,46.18001 
45 ,8.5317 ,0.77943 ,4.68253 ,45.94496 
46 ,8.7233 ,0.78131 ,4.67911 ,45.91138 
47 ,8.9158 ,0.78325 ,4.67568 ,45.87780 
48 ,9.1078 ,0.78527 ,4.64146 ,45.54202 
49 ,9.2840 ,0.78699 ,4.63119 ,45.44128 
50 ,9.4598 ,0.78879 ,4.62777 ,45.40771 
51 ,9.6360 ,0.79049 ,4.59013 ,45.03835 
52 ,9.8437 ,0.79249 ,4.57986 ,44.93761 
53 ,10.0201 ,0.79432 ,4.55933 ,44.73614 
54 ,10.2122 ,0.79618 ,4.55933 ,44.73614 
55 ,10.4045 ,0.79810 ,4.54222 ,44.56825 
56 ,10.5964 ,0.80011 ,4.50457 ,44.19889 
57 ,10.7885 ,0.80193 ,4.49773 ,44.13173 
58 ,10.9486 ,0.80374 ,4.47720 ,43.93026 
59 ,11.1247 ,0.80542 ,4.47378 ,43.89668 
60 ,11.3009 ,0.80715 ,4.44298 ,43.59448 
61 ,11.4929 ,0.80909 ,4.44298 ,43.59448 
62 ,11.6850 ,0.81091 ,4.42586 ,43.42659 
63 ,11.8768 ,0.81285 ,4.39507 ,43.12438 
64 ,12.0690 ,0.81476 ,4.39849 ,43.15796 
65 ,12.2609 ,0.81671 ,4.35058 ,42.68786 
66 ,12.4372 ,0.81855 ,4.35400 ,42.72144 
67 ,12.6133 ,0.82021 ,4.33004 ,42.48639 
68 ,12.8056 ,0.82215 ,4.31293 ,42.31850 
69 ,13.0134 ,0.82422 ,4.28898 ,42.08345 
70 ,13.2058 ,0.82614 ,4.29240 ,42.11703 
71 ,13.4137 ,0.82826 ,4.27187 ,41.91556 
72 ,13.5897 ,0.83002 ,4.26502 ,41.84841 
73 ,13.7656 ,0.83174 ,4.24107 ,41.61336 
74 ,13.9420 ,0.83352 ,4.22053 ,41.41189 
75 ,14.1336 ,0.83541 ,4.20685 ,41.27758 
76 ,14.3261 ,0.83735 ,4.20000 ,41.21042 
77 ,14.5180 ,0.83932 ,4.15551 ,40.77390 
78 ,14.7105 ,0.84120 ,4.16236 ,40.84106 
79 ,14.9023 ,0.84308 ,4.13156 ,40.53885 
80 ,15.0945 ,0.84512 ,4.11103 ,40.33738 
81 ,15.2863 ,0.84693 ,4.10418 ,40.27023 
82 ,15.4626 ,0.84879 ,4.07680 ,40.00160 
83 ,15.6705 ,0.85067 ,4.05969 ,39.83371 
84 ,15.8788 ,0.85286 ,4.04258 ,39.66582 
85 ,16.0707 ,0.85473 ,4.04258 ,39.66582 
86 ,16.2469 ,0.85656 ,4.02205 ,39.46435 
87 ,16.4390 ,0.85846 ,3.98441 ,39.09499 
88 ,16.6471 ,0.86054 ,3.99125 ,39.16214 
89 ,16.8388 ,0.86242 ,3.95018 ,38.75920 
90 ,17.0151 ,0.86429 ,3.92623 ,38.52415 
91 ,17.1912 ,0.86607 ,3.93650 ,38.62489 
92 ,17.3671 ,0.86776 ,3.91596 ,38.42342 
93 ,17.5755 ,0.86974 ,3.90570 ,38.32268 
94 ,17.7675 ,0.87179 ,3.89885 ,38.25553 
95 ,17.9592 ,0.87359 ,3.86121 ,37.88617 
96 ,18.1353 ,0.87548 ,3.83725 ,37.65112 
97 ,18.3119 ,0.87719 ,3.83725 ,37.65112 
98 ,18.5033 ,0.87912 ,3.83041 ,37.58396 
99 ,18.7120 ,0.88105 ,3.79619 ,37.24818 
100 ,18.8880 ,0.88300 ,3.79276 ,37.21460 
101 ,19.0799 ,0.88490 ,3.76881 ,36.97955 
102 ,19.2562 ,0.88665 ,3.74828 ,36.77808 
103 ,19.4478 ,0.88858 ,3.73117 ,36.61019 
104 ,19.6241 ,0.89030 ,3.73459 ,36.64377 
105 ,19.8003 ,0.89213 ,3.71063 ,36.40872 
106 ,20.0084 ,0.89409 ,3.70037 ,36.30799 
107 ,20.1846 ,0.89593 ,3.67983 ,36.10652 
108 ,20.3765 ,0.89788 ,3.65246 ,35.83789 
109 ,20.5526 ,0.89963 ,3.64219 ,35.73716 
110 ,20.7448 ,0.90151 ,3.62850 ,35.60284 
111 ,20.9368 ,0.90339 ,3.60454 ,35.36779 
112 ,21.1291 ,0.90539 ,3.58743 ,35.19990 
113 ,21.3051 ,0.90715 ,3.58401 ,35.16632 
114 ,21.5133 ,0.90915 ,3.55663 ,34.89770 
115 ,21.7048 ,0.91109 ,3.55321 ,34.86412 
116 ,21.8973 ,0.91303 ,3.51899 ,34.52834 
117 ,22.0892 ,0.91500 ,3.51899 ,34.52834 
118 ,22.2651 ,0.91674 ,3.49846 ,34.32687 
119 ,22.4574 ,0.91861 ,3.48819 ,34.22613 
120 ,22.6490 ,0.92052 ,3.45739 ,33.92393 
121 ,22.8252 ,0.92233 ,3.44713 ,33.82319 
122 ,23.0173 ,0.92415 ,3.42659 ,33.62172 
123 ,23.2099 ,0.92610 ,3.40606 ,33.42025 
124 ,23.4174 ,0.92819 ,3.38210 ,33.18520 
125 ,23.5939 ,0.93005 ,3.36499 ,33.01731 
126 ,23.8018 ,0.93206 ,3.36499 ,33.01731 
127 ,23.9777 ,0.93387 ,3.35473 ,32.91658 
128 ,24.1699 ,0.93575 ,3.32051 ,32.58080 
129 ,24.3462 ,0.93756 ,3.31366 ,32.51364 
130 ,24.5383 ,0.93942 ,3.29655 ,32.34575 
131 ,24.7301 ,0.94130 ,3.29313 ,32.31217 
132 ,24.9066 ,0.94314 ,3.26917 ,32.07712 
133 ,25.0985 ,0.94511 ,3.26917 ,32.07712 
134 ,25.3066 ,0.94711 ,3.23495 ,31.74134 
135 ,25.5147 ,0.94906 ,3.21442 ,31.53987 
136 ,25.7067 ,0.95110 ,3.20073 ,31.40555 
137 ,25.8829 ,0.95286 ,3.19731 ,31.37198 
138 ,26.0585 ,0.95471 ,3.15282 ,30.93546 
139 ,26.2508 ,0.95658 ,3.14597 ,30.86830 
140 ,26.4751 ,0.95865 ,3.14597 ,30.86830 
141 ,26.6670 ,0.96066 ,3.10149 ,30.43178 
142 ,26.8431 ,0.96247 ,3.10833 ,30.49894 
143 ,27.0353 ,0.96436 ,3.08438 ,30.26389 
144 ,27.2113 ,0.96621 ,3.07411 ,30.16316 
145 ,27.3875 ,0.96793 ,3.03989 ,29.82737 
146 ,27.5955 ,0.96997 ,3.04331 ,29.86095 
147 ,27.7713 ,0.97180 ,3.01593 ,29.59233 
148 ,27.9477 ,0.97355 ,2.99540 ,29.39086 
149 ,28.1394 ,0.97548 ,2.99882 ,29.42444 
150 ,28.3154 ,0.97722 ,2.98513 ,29.29012 
151 ,28.4919 ,0.97894 ,2.95433 ,28.98792 
152 ,28.6838 ,0.98082 ,2.95433 ,28.98792 
153 ,28.8761 ,0.98279 ,2.93038 ,28.75287 
154 ,29.0680 ,0.98472 ,2.90642 ,28.51782 
155 ,29.2442 ,0.98649 ,2.89273 ,28.38351 
156 ,29.4362 ,0.98838 ,2.88247 ,28.28277 
157 ,29.6284 ,0.99037 ,2.86193 ,28.08130 
158 ,29.8044 ,0.99211 ,2.83798 ,27.84625 
159 ,29.9804 ,0.99383 ,2.84140 ,27.87983 
160 ,30.1563 ,0.99563 ,2.83798 ,27.84625 
161 ,30.3483 ,0.99751 ,2.79691 ,27.44332 
162 ,30.5408 ,0.99936 ,2.80376 ,27.51047 
163 ,30.7483 ,1.00140 ,2.76611 ,27.14111 
164 ,30.9249 ,1.00331 ,2.75243 ,27.00680 
165 ,31.1168 ,1.00515 ,2.74558 ,26.93964 
166 ,31.2931 ,1.00700 ,2.73531 ,26.83891 
167 ,31.4686 ,1.00877 ,2.70794 ,26.57028 
168 ,31.6452 ,1.01054 ,2.67372 ,26.23450 
169 ,31.8531 ,1.01251 ,2.69425 ,26.43597 
170 ,32.0613 ,1.01460 ,2.66687 ,26.16734 
171 ,32.2692 ,1.01660 ,2.63949 ,25.89871 
172 ,32.4455 ,1.01851 ,2.62238 ,25.73082 
173 ,32.6374 ,1.02035 ,2.62238 ,25.73082 
174 ,32.8138 ,1.02218 ,2.60527 ,25.56293 
175 ,33.0059 ,1.02404 ,2.57105 ,25.22715 
176 ,33.2139 ,1.02609 ,2.57105 ,25.22715 
177 ,33.4061 ,1.02807 ,2.52998 ,24.82421 
178 ,33.5821 ,1.02991 ,2.52998 ,24.82421 
179 ,33.7741 ,1.03180 ,2.51972 ,24.72347 
180 ,33.9502 ,1.03352 ,2.50603 ,24.58916 
181 ,34.1262 ,1.03535 ,2.47865 ,24.32053 
182 ,34.3023 ,1.03709 ,2.45470 ,24.08549 
183 ,34.4943 ,1.03899 ,2.46154 ,24.15264 
184 ,34.6701 ,1.04074 ,2.44443 ,23.98475 
185 ,34.8466 ,1.04249 ,2.43416 ,23.88402 
186 ,35.0705 ,1.04462 ,2.41705 ,23.71612 
187 ,35.2788 ,1.04677 ,2.39994 ,23.54823 
188 ,35.4707 ,1.04867 ,2.38283 ,23.38034 
189 ,35.6629 ,1.05056 ,2.34519 ,23.01098 
190 ,35.8389 ,1.05249 ,2.34861 ,23.04456 
191 ,36.0151 ,1.05421 ,2.34519 ,23.01098 
192 ,36.2069 ,1.05604 ,2.29728 ,22.54088 
193 ,36.3832 ,1.05789 ,2.28701 ,22.44015 
194 ,36.5590 ,1.05967 ,2.28701 ,22.44015 
195 ,36.7672 ,1.06160 ,2.24937 ,22.07079 
196 ,36.9432 ,1.06348 ,2.24252 ,22.00363 
197 ,37.1355 ,1.06539 ,2.23910 ,21.97005 
198 ,37.3273 ,1.06730 ,2.20488 ,21.63427 
199 ,37.5038 ,1.06907 ,2.19119 ,21.49996 
200 ,37.6954 ,1.07095 ,2.19461 ,21.53353 
201 ,37.8878 ,1.07289 ,2.16381 ,21.23133 
202 ,38.0957 ,1.07480 ,2.16039 ,21.19775 
203 ,38.2879 ,1.07689 ,2.14670 ,21.06344 
204 ,38.4638 ,1.07868 ,2.12959 ,20.89555 
205 ,38.6396 ,1.08056 ,2.10564 ,20.66050 
206 ,38.8156 ,1.08216 ,2.09537 ,20.55976 
207 ,39.0078 ,1.08404 ,2.08852 ,20.49261 
208 ,39.2001 ,1.08598 ,2.07141 ,20.32472 
209 ,39.3921 ,1.08789 ,2.04746 ,20.08967 
210 ,39.5684 ,1.08979 ,2.03035 ,19.92178 
211 ,39.7764 ,1.09172 ,2.02693 ,19.88820 
212 ,39.9522 ,1.09349 ,2.01324 ,19.75388 
213 ,40.1286 ,1.09524 ,1.99613 ,19.58599 
214 ,40.3048 ,1.09707 ,1.97559 ,19.38452 
215 ,40.4807 ,1.09884 ,1.95164 ,19.14948 
216 ,40.6568 ,1.10064 ,1.96533 ,19.28379 
217 ,40.8329 ,1.10238 ,1.93795 ,19.01516 
218 ,41.0250 ,1.10427 ,1.92084 ,18.84727 
219 ,41.2170 ,1.10610 ,1.91742 ,18.81369 
220 ,41.4094 ,1.10803 ,1.88662 ,18.51149 
221 ,41.6013 ,1.11006 ,1.86951 ,18.34360 
222 ,41.7932 ,1.11190 ,1.86608 ,18.31002 
223 ,41.9694 ,1.11376 ,1.83186 ,17.97423 
224 ,42.1455 ,1.11545 ,1.82844 ,17.94066 
225 ,42.3372 ,1.11746 ,1.81133 ,17.77276 
226 ,42.5296 ,1.11927 ,1.81133 ,17.77276 
227 ,42.7532 ,1.12134 ,1.78395 ,17.50414 
228 ,42.9298 ,1.12331 ,1.77026 ,17.36983 
229 ,43.1218 ,1.12520 ,1.76000 ,17.26909 
230 ,43.2974 ,1.12706 ,1.73604 ,17.03404 
231 ,43.4898 ,1.12883 ,1.73604 ,17.03404 
232 ,43.6820 ,1.13074 ,1.70524 ,16.73184 
233 ,43.8737 ,1.13273 ,1.70182 ,16.69826 
234 ,44.0502 ,1.13447 ,1.69155 ,16.59752 
235 ,44.2421 ,1.13635 ,1.65049 ,16.19458 
236 ,44.4179 ,1.13822 ,1.65049 ,16.19458 
237 ,44.5944 ,1.13993 ,1.62311 ,15.92596 
238 ,44.7864 ,1.14181 ,1.62995 ,15.99311 
239 ,44.9786 ,1.14370 ,1.59916 ,15.69091 
240 ,45.1546 ,1.14554 ,1.58889 ,15.59018 
241 ,45.3307 ,1.14732 ,1.58889 ,15.59018 
242 ,45.5067 ,1.14915 ,1.57520 ,15.45586 
243 ,45.6829 ,1.15081 ,1.55467 ,15.25439 
244 ,45.8589 ,1.15265 ,1.53413 ,15.05292 
245 ,46.0509 ,1.15449 ,1.53413 ,15.05292 
246 ,46.2431 ,1.15641 ,1.51702 ,14.88503 
247 ,46.4191 ,1.15825 ,1.50333 ,14.75072 
248 ,46.5951 ,1.15994 ,1.48280 ,14.54925 
249 ,46.7713 ,1.16169 ,1.46911 ,14.41493 
250 ,46.9472 ,1.16349 ,1.46227 ,14.34778 
251 ,47.1235 ,1.16523 ,1.46227 ,14.34778 
252 ,47.3313 ,1.16717 ,1.44174 ,14.14631 
253 ,47.5237 ,1.16925 ,1.42805 ,14.01199 
254 ,47.7313 ,1.17123 ,1.39725 ,13.70979 
255 ,47.9397 ,1.17332 ,1.38698 ,13.60906 
256 ,48.1158 ,1.17515 ,1.36645 ,13.40759 
257 ,48.3238 ,1.17717 ,1.36645 ,13.40759 
258 ,48.4998 ,1.17900 ,1.34591 ,13.20612 
259 ,48.6917 ,1.18084 ,1.32880 ,13.03822 
260 ,48.9158 ,1.18305 ,1.33223 ,13.07180 
261 ,49.1082 ,1.18505 ,1.30143 ,12.76960 
262 ,49.3161 ,1.18699 ,1.28089 ,12.56813 
263 ,49.4920 ,1.18893 ,1.26378 ,12.40024 
264 ,49.6680 ,1.19066 ,1.25694 ,12.33308 
265 ,49.8285 ,1.19240 ,1.25694 ,12.33308 
266 ,50.0047 ,1.19404 ,1.25352 ,12.29950 
267 ,50.1966 ,1.19590 ,1.20218 ,11.79583 
268 ,50.3882 ,1.19782 ,1.20218 ,11.79583 
269 ,50.5644 ,1.19961 ,1.21587 ,11.93014 
270 ,50.7405 ,1.20133 ,1.18850 ,11.66151 
271 ,50.9170 ,1.20317 ,1.17481 ,11.52720 
272 ,51.1093 ,1.20506 ,1.15427 ,11.32573 
273 ,51.3166 ,1.20710 ,1.13374 ,11.12426 
274 ,51.4931 ,1.20891 ,1.12005 ,10.98995 
275 ,51.6853 ,1.21070 ,1.11663 ,10.95637 
276 ,51.8612 ,1.21266 ,1.09267 ,10.72132 
277 ,52.0534 ,1.21452 ,1.08241 ,10.62059 
278 ,52.2454 ,1.21642 ,1.08583 ,10.65416 
279 ,52.4216 ,1.21817 ,1.07556 ,10.55343 
280 ,52.6138 ,1.22015 ,1.04476 ,10.25123 
281 ,52.8057 ,1.22196 ,1.05503 ,10.35196 
282 ,52.9974 ,1.22394 ,1.03450 ,10.15049 
283 ,53.1899 ,1.22578 ,1.01054 ,9.91544 
284 ,53.3979 ,1.22787 ,0.99001 ,9.71397 
285 ,53.6060 ,1.22989 ,0.97974 ,9.61324 
286 ,53.7821 ,1.23180 ,0.96605 ,9.47892 
287 ,53.9577 ,1.23356 ,0.95579 ,9.37819 
288 ,54.1337 ,1.23537 ,0.93525 ,9.17672 
289 ,54.3257 ,1.23714 ,0.93183 ,9.14314 
290 ,54.5022 ,1.23900 ,0.91130 ,8.94167 
291 ,54.7265 ,1.24118 ,0.90103 ,8.84094 
292 ,54.9342 ,1.24328 ,0.88734 ,8.70662 
293 ,55.1102 ,1.24504 ,0.86681 ,8.50515 
294 ,55.3028 ,1.24695 ,0.85312 ,8.37084 
295 ,55.4947 ,1.24888 ,0.82575 ,8.10221 
296 ,55.6869 ,1.25077 ,0.83601 ,8.20295 
297 ,55.8791 ,1.25270 ,0.82575 ,8.10221 
298 ,56.0871 ,1.25478 ,0.80521 ,7.90074 
299 ,56.2790 ,1.25666 ,0.79152 ,7.76643 
300 ,56.4552 ,1.25850 ,0.78126 ,7.66570 
301 ,56.6473 ,1.26041 ,0.76072 ,7.46423 
302 ,56.8392 ,1.26232 ,0.76072 ,7.46423 
303 ,57.0314 ,1.26418 ,0.72308 ,7.09486 
304 ,57.2394 ,1.26631 ,0.72308 ,7.09486 
305 ,57.4313 ,1.26818 ,0.69570 ,6.82624 
306 ,57.6396 ,1.27030 ,0.70939 ,6.96055 
307 ,57.8476 ,1.27226 ,0.67517 ,6.62477 
308 ,58.0397 ,1.27431 ,0.67175 ,6.59119 
309 ,58.2317 ,1.27621 ,0.64437 ,6.32256 
310 ,58.4081 ,1.27807 ,0.65121 ,6.38972 
311 ,58.5841 ,1.27978 ,0.64779 ,6.35614 
312 ,58.7601 ,1.28154 ,0.61699 ,6.05394 
313 ,58.9521 ,1.28347 ,0.60330 ,5.91962 
314 ,59.1283 ,1.28524 ,0.58962 ,5.78531 
315 ,59.3365 ,1.28724 ,0.56908 ,5.58384 
316 ,59.5126 ,1.28911 ,0.57251 ,5.61742 
317 ,59.7045 ,1.29103 ,0.54513 ,5.34879 
318 ,59.8966 ,1.29290 ,0.55882 ,5.48311 
319 ,60.0883 ,1.29481 ,0.51433 ,5.04659 
320 ,60.2647 ,1.29660 ,0.51433 ,5.04659 
321 ,60.4565 ,1.29851 ,0.50748 ,4.97943 
322 ,60.6488 ,1.30033 ,0.49380 ,4.84512 
323 ,60.8249 ,1.30220 ,0.47668 ,4.67723 
324 ,61.0010 ,1.30394 ,0.47326 ,4.64365 
325 ,61.2090 ,1.30591 ,0.45615 ,4.47576 
326 ,61.3852 ,1.30781 ,0.43562 ,4.27429 
327 ,61.5768 ,1.30963 ,0.43562 ,4.27429 
328 ,61.7528 ,1.31148 ,0.40824 ,4.00566 
329 ,61.9294 ,1.31324 ,0.40140 ,3.93850 
330 ,62.1214 ,1.31509 ,0.39797 ,3.90493 
331 ,62.3137 ,1.31699 ,0.36718 ,3.60272 
332 ,62.4896 ,1.31885 ,0.35691 ,3.50199 
333 ,62.6656 ,1.32069 ,0.36033 ,3.53557 
334 ,62.8254 ,1.32229 ,0.33980 ,3.33410 
335 ,63.0018 ,1.32399 ,0.32269 ,3.16620 
336 ,63.1938 ,1.32587 ,0.31926 ,3.13263 
337 ,63.3860 ,1.32769 ,0.29189 ,2.86400 
338 ,63.5781 ,1.32971 ,0.28847 ,2.83042 
339 ,63.8020 ,1.33173 ,0.26451 ,2.59537 
340 ,63.9783 ,1.33372 ,0.27135 ,2.66253 
341 ,64.1703 ,1.33554 ,0.23371 ,2.29317 
342 ,64.3463 ,1.33740 ,0.22687 ,2.22601 
343 ,64.5545 ,1.33944 ,0.21660 ,2.12528 
344 ,64.7302 ,1.34133 ,0.19949 ,1.95738 
345 ,64.9068 ,1.34302 ,0.19264 ,1.89023 
346 ,65.1146 ,1.34497 ,0.17553 ,1.72234 
347 ,65.2907 ,1.34681 ,0.15842 ,1.55445 
348 ,65.4669 ,1.34862 ,0.15158 ,1.48729 
349 ,65.6590 ,1.35041 ,0.16185 ,1.58802 
350 ,65.8666 ,1.35254 ,0.12078 ,1.18508 
351 ,66.0431 ,1.35436 ,0.08998 ,0.88288 
352 ,66.2668 ,1.35645 ,0.11393 ,1.11793 
353 ,66.4433 ,1.35834 ,0.07629 ,0.74857 
354 ,66.6352 ,1.36032 ,0.08314 ,0.81572 
355 ,66.8114 ,1.36206 ,0.06260 ,0.61425 
356 ,66.9875 ,1.36378 ,0.04891 ,0.47994 
357 ,67.1636 ,1.36557 ,0.03522 ,0.34563 
358 ,67.3556 ,1.36748 ,0.03180 ,0.31205 
359 ,67.5317 ,1.36920 ,0.01127 ,0.11058 
360 ,67.7078 ,1.37101 ,-0.00584 ,-0.05731 
361 ,67.8999 ,1.37296 ,-0.00584 ,-0.05731 
362 ,68.0759 ,1.37478 ,-0.02637 ,-0.25878 
363 ,68.2680 ,1.37656 ,-0.02980 ,-0.29236 
364 ,68.4761 ,1.37847 ,-0.02980 ,-0.29236 
365 ,68.6682 ,1.38054 ,-0.07428 ,-0.72888 
366 ,68.8764 ,1.38259 ,-0.07771 ,-0.76246 
367 ,69.0680 ,1.38465 ,-0.10508 ,-1.03108 
368 ,69.2765 ,1.38649 ,-0.09824 ,-0.96393 
369 ,69.4685 ,1.38856 ,-0.12904 ,-1.26613 
370 ,69.6606 ,1.39048 ,-0.13588 ,-1.33329 
371 ,69.8527 ,1.39230 ,-0.13588 ,-1.33329 
372 ,70.0449 ,1.39436 ,-0.16326 ,-1.60191 
373 ,70.2205 ,1.39615 ,-0.17353 ,-1.70265 
374 ,70.4131 ,1.39793 ,-0.16668 ,-1.63549 
375 ,70.5890 ,1.39985 ,-0.18722 ,-1.83696 
376 ,70.7651 ,1.40154 ,-0.19406 ,-1.90412 
377 ,70.9410 ,1.40329 ,-0.20433 ,-2.00485 
378 ,71.1172 ,1.40504 ,-0.19748 ,-1.93770 
379 ,71.2769 ,1.40677 ,-0.20090 ,-1.97128 
380 ,71.4693 ,1.40849 ,-0.20775 ,-2.03843 
381 ,71.6611 ,1.41042 ,-0.22486 ,-2.20632 
382 ,71.8534 ,1.41234 ,-0.22144 ,-2.17275 
383 ,72.0294 ,1.41419 ,-0.25224 ,-2.47495 
384 ,72.2374 ,1.41619 ,-0.25566 ,-2.50853 
385 ,72.4138 ,1.41807 ,-0.27961 ,-2.74358 
386 ,72.6219 ,1.42004 ,-0.27619 ,-2.71000 
387 ,72.8296 ,1.42211 ,-0.29330 ,-2.87789 
388 ,73.0062 ,1.42394 ,-0.30699 ,-3.01220 
389 ,73.2299 ,1.42600 ,-0.30357 ,-2.97863 
390 ,73.4063 ,1.42794 ,-0.32410 ,-3.18010 
391 ,73.5821 ,1.42969 ,-0.35148 ,-3.44872 
392 ,73.7583 ,1.43152 ,-0.34121 ,-3.34799 
393 ,73.9662 ,1.43342 ,-0.35148 ,-3.44872 
394 ,74.1585 ,1.43542 ,-0.36517 ,-3.58303 
395 ,74.3504 ,1.43734 ,-0.37544 ,-3.68377 
396 ,74.5266 ,1.43925 ,-0.40623 ,-3.98597 
397 ,74.7186 ,1.44103 ,-0.41650 ,-4.08671 
398 ,74.8948 ,1.44281 ,-0.40623 ,-3.98597 
399 ,75.0869 ,1.44469 ,-0.44730 ,-4.38891 
400 ,75.2630 ,1.44654 ,-0.44388 ,-4.35534 
401 ,75.4707 ,1.44853 ,-0.45072 ,-4.42249 
402 ,75.6469 ,1.45037 ,-0.45414 ,-4.45607 
403 ,75.8390 ,1.45219 ,-0.48152 ,-4.72470 
404 ,76.0151 ,1.45403 ,-0.48494 ,-4.75828 
405 ,76.1913 ,1.45584 ,-0.49863 ,-4.89259 
406 ,76.3834 ,1.45773 ,-0.51574 ,-5.06048 
407 ,76.5591 ,1.45945 ,-0.53285 ,-5.22837 
408 ,76.7512 ,1.46135 ,-0.51917 ,-5.09406 
409 ,76.9438 ,1.46323 ,-0.54654 ,-5.36268 
410 ,77.1197 ,1.46514 ,-0.53970 ,-5.29553 
411 ,77.3117 ,1.46696 ,-0.55339 ,-5.42984 
412 ,77.4878 ,1.46872 ,-0.56365 ,-5.53058 
413 ,77.6635 ,1.47051 ,-0.58761 ,-5.76562 
414 ,77.8396 ,1.47228 ,-0.60130 ,-5.89994 
415 ,78.0317 ,1.47417 ,-0.59788 ,-5.86636 
416 ,78.2239 ,1.47610 ,-0.61841 ,-6.06783 
417 ,78.3999 ,1.47790 ,-0.64236 ,-6.30288 
418 ,78.5763 ,1.47964 ,-0.64921 ,-6.37003 
419 ,78.7844 ,1.48152 ,-0.66974 ,-6.57150 
420 ,78.9922 ,1.48372 ,-0.67659 ,-6.63866 
421 ,79.1846 ,1.48563 ,-0.67659 ,-6.63866 
422 ,79.3764 ,1.48754 ,-0.68685 ,-6.73940 
423 ,79.5687 ,1.48949 ,-0.69712 ,-6.84013 
424 ,79.7444 ,1.49133 ,-0.69370 ,-6.80655 
425 ,79.9370 ,1.49316 ,-0.72107 ,-7.07518 
426 ,80.1288 ,1.49513 ,-0.72107 ,-7.07518 
427 ,80.3050 ,1.49692 ,-0.74161 ,-7.27665 
428 ,80.4811 ,1.49870 ,-0.75530 ,-7.41096 
429 ,80.6731 ,1.50061 ,-0.76214 ,-7.47812 
430 ,80.8648 ,1.50239 ,-0.77241 ,-7.57885 
431 ,81.0413 ,1.50433 ,-0.78610 ,-7.71317 
432 ,81.2332 ,1.50621 ,-0.80663 ,-7.91464 
433 ,81.4100 ,1.50794 ,-0.78610 ,-7.71317 
434 ,81.6011 ,1.50987 ,-0.84085 ,-8.25042 
435 ,81.7775 ,1.51162 ,-0.83058 ,-8.14968 
436 ,81.9533 ,1.51338 ,-0.83401 ,-8.18326 
437 ,82.1296 ,1.51511 ,-0.84085 ,-8.25042 
438 ,82.3378 ,1.51708 ,-0.84769 ,-8.31758 
439 ,82.5139 ,1.51899 ,-0.87507 ,-8.58620 
440 ,82.6901 ,1.52074 ,-0.86823 ,-8.51904 
441 ,82.8820 ,1.52262 ,-0.89560 ,-8.78767 
442 ,83.0580 ,1.52449 ,-0.89218 ,-8.75409 
443 ,83.2499 ,1.52632 ,-0.89560 ,-8.78767 
444 ,83.4261 ,1.52809 ,-0.89560 ,-8.78767 
445 ,83.6341 ,1.53007 ,-0.90587 ,-8.88841 
446 ,83.8422 ,1.53224 ,-0.89560 ,-8.78767 
447 ,84.0183 ,1.53405 ,-0.92983 ,-9.12345 
448 ,84.2105 ,1.53590 ,-0.92298 ,-9.05630 
449 ,84.4023 ,1.53790 ,-0.94351 ,-9.25777 
450 ,84.5789 ,1.53965 ,-0.96063 ,-9.42566 
451 ,84.7864 ,1.54166 ,-0.96405 ,-9.45924 
452 ,84.9629 ,1.54351 ,-0.95720 ,-9.39208 
453 ,85.1546 ,1.54530 ,-0.99143 ,-9.72786 
454 ,85.3309 ,1.54714 ,-0.99143 ,-9.72786 
455 ,85.5229 ,1.54905 ,-1.00854 ,-9.89576 
456 ,85.6992 ,1.55081 ,-1.00854 ,-9.89576 
457 ,85.8913 ,1.55273 ,-1.01538 ,-9.96291 
458 ,86.0834 ,1.55470 ,-1.04618 ,-10.26512 
459 ,86.2754 ,1.55667 ,-1.02565 ,-10.06365 
460 ,86.4353 ,1.55832 ,-1.05302 ,-10.33227 
461 ,86.6275 ,1.56008 ,-1.04960 ,-10.29869 
462 ,86.8038 ,1.56189 ,-1.07356 ,-10.53374 
