Data stamp = , 22-04-2022 05:02:53 496

Calibration Values: 
Slope = , 26.54 , g/V 
Offset Voltage at no contact = , -0.501760 , V 

No , Time , Stage Position ,   Mass , Force 
   ,  (s) ,      (mm)      ,   (g)  , (mN)  

1 ,0.0000 ,0.69954 ,5.33616 ,52.35841 
2 ,0.2109 ,0.69963 ,5.32247 ,52.22410 
3 ,0.6591 ,0.70089 ,5.30878 ,52.08979 
4 ,0.8351 ,0.70285 ,5.32247 ,52.22410 
5 ,1.0274 ,0.70457 ,5.32247 ,52.22410 
6 ,1.2197 ,0.70654 ,5.31563 ,52.15694 
7 ,1.4118 ,0.70837 ,5.33616 ,52.35841 
8 ,1.5878 ,0.71019 ,5.32247 ,52.22410 
9 ,1.7961 ,0.71216 ,5.29510 ,51.95548 
10 ,1.9718 ,0.71410 ,5.29167 ,51.92190 
11 ,2.1479 ,0.71582 ,5.27798 ,51.78758 
12 ,2.3243 ,0.71757 ,5.25061 ,51.51896 
13 ,2.5322 ,0.71960 ,5.24034 ,51.41822 
14 ,2.7083 ,0.72143 ,5.22323 ,51.25033 
15 ,2.8685 ,0.72311 ,5.18901 ,50.91455 
16 ,3.0443 ,0.72478 ,5.17532 ,50.78023 
17 ,3.2203 ,0.72655 ,5.15479 ,50.57876 
18 ,3.4149 ,0.72844 ,5.16505 ,50.67950 
19 ,3.6209 ,0.73047 ,5.12399 ,50.27656 
20 ,3.8125 ,0.73238 ,5.13425 ,50.37729 
21 ,4.0050 ,0.73436 ,5.08634 ,49.90720 
22 ,4.1971 ,0.73618 ,5.06581 ,49.70573 
23 ,4.4051 ,0.73835 ,5.06239 ,49.67215 
24 ,4.5811 ,0.74012 ,5.03501 ,49.40352 
25 ,4.7574 ,0.74191 ,5.00763 ,49.13490 
26 ,4.9494 ,0.74382 ,5.01448 ,49.20205 
27 ,5.1574 ,0.74574 ,4.97341 ,48.79911 
28 ,5.3494 ,0.74781 ,4.97683 ,48.83269 
29 ,5.5251 ,0.74956 ,4.95972 ,48.66480 
30 ,5.7016 ,0.75131 ,4.91866 ,48.26186 
31 ,5.9096 ,0.75337 ,4.91523 ,48.22828 
32 ,6.0857 ,0.75519 ,4.90155 ,48.09397 
33 ,6.2620 ,0.75692 ,4.86732 ,47.75819 
34 ,6.4375 ,0.75877 ,4.86048 ,47.69103 
35 ,6.6295 ,0.76055 ,4.83995 ,47.48956 
36 ,6.7897 ,0.76230 ,4.83652 ,47.45598 
37 ,6.9818 ,0.76404 ,4.82284 ,47.32167 
38 ,7.1901 ,0.76621 ,4.80230 ,47.12020 
39 ,7.3818 ,0.76812 ,4.76808 ,46.78442 
40 ,7.5579 ,0.76987 ,4.75782 ,46.68368 
41 ,7.7504 ,0.77170 ,4.74413 ,46.54937 
42 ,7.9423 ,0.77380 ,4.69622 ,46.07927 
43 ,8.1185 ,0.77549 ,4.70306 ,46.14643 
44 ,8.2947 ,0.77727 ,4.68595 ,45.97854 
45 ,8.4868 ,0.77912 ,4.68937 ,46.01212 
46 ,8.6783 ,0.78110 ,4.64831 ,45.60918 
47 ,8.8545 ,0.78284 ,4.62435 ,45.37413 
48 ,9.0309 ,0.78459 ,4.62093 ,45.34055 
49 ,9.2069 ,0.78638 ,4.61751 ,45.30697 
50 ,9.3830 ,0.78809 ,4.60040 ,45.13908 
51 ,9.5752 ,0.79004 ,4.57302 ,44.87045 
52 ,9.7827 ,0.79202 ,4.55249 ,44.66898 
53 ,9.9588 ,0.79392 ,4.52853 ,44.43394 
54 ,10.1351 ,0.79561 ,4.52853 ,44.43394 
55 ,10.3435 ,0.79772 ,4.51484 ,44.29962 
56 ,10.5355 ,0.79954 ,4.47720 ,43.93026 
57 ,10.7114 ,0.80145 ,4.46351 ,43.79595 
58 ,10.8879 ,0.80317 ,4.46351 ,43.79595 
59 ,11.0958 ,0.80514 ,4.42586 ,43.42659 
60 ,11.2720 ,0.80701 ,4.40875 ,43.25870 
61 ,11.4477 ,0.80878 ,4.40191 ,43.19154 
62 ,11.6238 ,0.81050 ,4.39849 ,43.15796 
63 ,11.8318 ,0.81244 ,4.36769 ,42.85576 
64 ,12.0241 ,0.81451 ,4.36427 ,42.82218 
65 ,12.2164 ,0.81649 ,4.33689 ,42.55355 
66 ,12.4080 ,0.81832 ,4.34031 ,42.58713 
67 ,12.6165 ,0.82037 ,4.30951 ,42.28492 
68 ,12.8087 ,0.82231 ,4.30267 ,42.21777 
69 ,13.0007 ,0.82419 ,4.29240 ,42.11703 
70 ,13.1766 ,0.82606 ,4.26502 ,41.84841 
71 ,13.3686 ,0.82795 ,4.25133 ,41.71409 
72 ,13.5770 ,0.82989 ,4.24449 ,41.64694 
73 ,13.7848 ,0.83213 ,4.21027 ,41.31115 
74 ,13.9609 ,0.83393 ,4.19316 ,41.14326 
75 ,14.1531 ,0.83581 ,4.17262 ,40.94179 
76 ,14.3290 ,0.83757 ,4.16236 ,40.84106 
77 ,14.4893 ,0.83926 ,4.15894 ,40.80748 
78 ,14.6655 ,0.84091 ,4.14525 ,40.67317 
79 ,14.8733 ,0.84296 ,4.10760 ,40.30380 
80 ,15.0494 ,0.84476 ,4.09391 ,40.16949 
81 ,15.2417 ,0.84664 ,4.10418 ,40.27023 
82 ,15.4495 ,0.84863 ,4.05969 ,39.83371 
83 ,15.6258 ,0.85054 ,4.06312 ,39.86729 
84 ,15.8338 ,0.85252 ,4.02547 ,39.49793 
85 ,16.0099 ,0.85435 ,4.00836 ,39.33003 
86 ,16.1856 ,0.85614 ,3.99125 ,39.16214 
87 ,16.3621 ,0.85789 ,3.99809 ,39.22930 
88 ,16.5702 ,0.85991 ,3.96387 ,38.89352 
89 ,16.7619 ,0.86181 ,3.96729 ,38.92709 
90 ,16.9383 ,0.86365 ,3.95361 ,38.79278 
91 ,17.1303 ,0.86550 ,3.91254 ,38.38984 
92 ,17.3063 ,0.86729 ,3.89201 ,38.18837 
93 ,17.4985 ,0.86913 ,3.89201 ,38.18837 
94 ,17.6746 ,0.87108 ,3.88174 ,38.08764 
95 ,17.8665 ,0.87284 ,3.86463 ,37.91975 
96 ,18.0587 ,0.87478 ,3.85094 ,37.78543 
97 ,18.2508 ,0.87668 ,3.83725 ,37.65112 
98 ,18.4425 ,0.87861 ,3.82699 ,37.55038 
99 ,18.6188 ,0.88047 ,3.81330 ,37.41607 
100 ,18.7951 ,0.88221 ,3.78592 ,37.14744 
101 ,19.0031 ,0.88418 ,3.77565 ,37.04671 
102 ,19.1953 ,0.88622 ,3.74828 ,36.77808 
103 ,19.3868 ,0.88812 ,3.72090 ,36.50946 
104 ,19.5793 ,0.88998 ,3.72774 ,36.57661 
105 ,19.7554 ,0.89183 ,3.70721 ,36.37514 
106 ,19.9315 ,0.89358 ,3.67299 ,36.03936 
107 ,20.1233 ,0.89545 ,3.66957 ,36.00578 
108 ,20.3155 ,0.89742 ,3.64903 ,35.80431 
109 ,20.5072 ,0.89936 ,3.64219 ,35.73716 
110 ,20.6837 ,0.90109 ,3.61139 ,35.43495 
111 ,20.8599 ,0.90290 ,3.60112 ,35.33422 
112 ,21.0359 ,0.90463 ,3.59770 ,35.30064 
113 ,21.2119 ,0.90640 ,3.56690 ,34.99843 
114 ,21.3881 ,0.90814 ,3.55663 ,34.89770 
115 ,21.5961 ,0.91014 ,3.54637 ,34.79696 
116 ,21.7720 ,0.91192 ,3.52926 ,34.62907 
117 ,21.9644 ,0.91384 ,3.51557 ,34.49476 
118 ,22.1403 ,0.91569 ,3.49846 ,34.32687 
119 ,22.3165 ,0.91741 ,3.48819 ,34.22613 
120 ,22.5086 ,0.91934 ,3.45739 ,33.92393 
121 ,22.6845 ,0.92107 ,3.43001 ,33.65530 
122 ,22.8607 ,0.92279 ,3.43001 ,33.65530 
123 ,23.0526 ,0.92478 ,3.41633 ,33.52099 
124 ,23.2288 ,0.92654 ,3.39237 ,33.28594 
125 ,23.4367 ,0.92854 ,3.39579 ,33.31952 
126 ,23.6290 ,0.93049 ,3.35815 ,32.95016 
127 ,23.8371 ,0.93246 ,3.36157 ,32.98374 
128 ,24.0291 ,0.93447 ,3.32051 ,32.58080 
129 ,24.2373 ,0.93655 ,3.32393 ,32.61437 
130 ,24.4449 ,0.93861 ,3.28971 ,32.27859 
131 ,24.6214 ,0.94044 ,3.29313 ,32.31217 
132 ,24.8134 ,0.94235 ,3.26917 ,32.07712 
133 ,24.9895 ,0.94413 ,3.24180 ,31.80849 
134 ,25.1976 ,0.94614 ,3.22811 ,31.67418 
135 ,25.3897 ,0.94808 ,3.21442 ,31.53987 
136 ,25.5816 ,0.94999 ,3.20415 ,31.43913 
137 ,25.7738 ,0.95187 ,3.20073 ,31.40555 
138 ,25.9498 ,0.95378 ,3.15624 ,30.96904 
139 ,26.1419 ,0.95566 ,3.15624 ,30.96904 
140 ,26.3177 ,0.95740 ,3.14255 ,30.83472 
141 ,26.4941 ,0.95919 ,3.13913 ,30.80115 
142 ,26.6862 ,0.96100 ,3.10491 ,30.46536 
143 ,26.8783 ,0.96298 ,3.10491 ,30.46536 
144 ,27.0865 ,0.96505 ,3.07411 ,30.16316 
145 ,27.2943 ,0.96709 ,3.06042 ,30.02884 
146 ,27.4705 ,0.96888 ,3.03647 ,29.79380 
147 ,27.6465 ,0.97070 ,3.01251 ,29.55875 
148 ,27.8384 ,0.97257 ,3.01935 ,29.62590 
149 ,28.0143 ,0.97439 ,3.00909 ,29.52517 
150 ,28.2066 ,0.97627 ,2.97144 ,29.15581 
151 ,28.3989 ,0.97819 ,2.97487 ,29.18939 
152 ,28.5749 ,0.97999 ,2.96118 ,29.05507 
153 ,28.7672 ,0.98190 ,2.93038 ,28.75287 
154 ,28.9430 ,0.98368 ,2.90642 ,28.51782 
155 ,29.1187 ,0.98554 ,2.91669 ,28.61856 
156 ,29.2953 ,0.98716 ,2.90642 ,28.51782 
157 ,29.4713 ,0.98898 ,2.86878 ,28.14846 
158 ,29.6632 ,0.99083 ,2.85509 ,28.01415 
159 ,29.8554 ,0.99274 ,2.85509 ,28.01415 
160 ,30.0315 ,0.99452 ,2.83798 ,27.84625 
161 ,30.2234 ,0.99639 ,2.82429 ,27.71194 
162 ,30.4156 ,0.99825 ,2.79691 ,27.44332 
163 ,30.6078 ,1.00019 ,2.77638 ,27.24185 
164 ,30.7999 ,1.00217 ,2.78322 ,27.30900 
165 ,30.9920 ,1.00407 ,2.74558 ,26.93964 
166 ,31.1835 ,1.00599 ,2.73874 ,26.87248 
167 ,31.3600 ,1.00784 ,2.73531 ,26.83891 
168 ,31.5362 ,1.00958 ,2.70794 ,26.57028 
169 ,31.7443 ,1.01163 ,2.69083 ,26.40239 
170 ,31.9204 ,1.01342 ,2.67372 ,26.23450 
171 ,32.1283 ,1.01544 ,2.64976 ,25.99945 
172 ,32.3041 ,1.01723 ,2.63949 ,25.89871 
173 ,32.4966 ,1.01908 ,2.63265 ,25.83156 
174 ,32.6724 ,1.02093 ,2.62581 ,25.76440 
175 ,32.8485 ,1.02268 ,2.59843 ,25.49577 
176 ,33.0568 ,1.02472 ,2.59501 ,25.46220 
177 ,33.2484 ,1.02659 ,2.56421 ,25.15999 
178 ,33.4085 ,1.02841 ,2.54710 ,24.99210 
179 ,33.6007 ,1.03016 ,2.54710 ,24.99210 
180 ,33.7931 ,1.03215 ,2.53341 ,24.85779 
181 ,33.9850 ,1.03400 ,2.49918 ,24.52200 
182 ,34.1772 ,1.03597 ,2.50261 ,24.55558 
183 ,34.3694 ,1.03790 ,2.48550 ,24.38769 
184 ,34.5451 ,1.03967 ,2.46154 ,24.15264 
185 ,34.7215 ,1.04139 ,2.46496 ,24.18622 
186 ,34.8973 ,1.04329 ,2.45470 ,24.08549 
187 ,35.0735 ,1.04489 ,2.43759 ,23.91759 
188 ,35.2815 ,1.04693 ,2.41021 ,23.64897 
189 ,35.4735 ,1.04886 ,2.40336 ,23.58181 
190 ,35.6658 ,1.05075 ,2.36230 ,23.17887 
191 ,35.8580 ,1.05276 ,2.36230 ,23.17887 
192 ,36.0499 ,1.05469 ,2.34861 ,23.04456 
193 ,36.2581 ,1.05668 ,2.32808 ,22.84309 
194 ,36.4496 ,1.05864 ,2.30412 ,22.60804 
195 ,36.6258 ,1.06044 ,2.29728 ,22.54088 
196 ,36.8022 ,1.06219 ,2.28359 ,22.40657 
197 ,37.0102 ,1.06423 ,2.26648 ,22.23868 
198 ,37.1864 ,1.06606 ,2.24594 ,22.03721 
199 ,37.3943 ,1.06807 ,2.24937 ,22.07079 
200 ,37.6022 ,1.07015 ,2.21857 ,21.76858 
201 ,37.7781 ,1.07197 ,2.20488 ,21.63427 
202 ,37.9547 ,1.07372 ,2.20488 ,21.63427 
203 ,38.1308 ,1.07555 ,2.17750 ,21.36564 
204 ,38.3228 ,1.07731 ,2.17066 ,21.29849 
205 ,38.5149 ,1.07932 ,2.14328 ,21.02986 
206 ,38.6910 ,1.08117 ,2.12617 ,20.86197 
207 ,38.8671 ,1.08285 ,2.12959 ,20.89555 
208 ,39.0591 ,1.08463 ,2.09537 ,20.55976 
209 ,39.2353 ,1.08655 ,2.08510 ,20.45903 
210 ,39.4111 ,1.08831 ,2.08852 ,20.49261 
211 ,39.6031 ,1.09012 ,2.05088 ,20.12325 
212 ,39.8112 ,1.09219 ,2.04746 ,20.08967 
213 ,40.0196 ,1.09430 ,2.03377 ,19.95535 
214 ,40.2277 ,1.09637 ,2.00982 ,19.72031 
215 ,40.4196 ,1.09833 ,1.99613 ,19.58599 
216 ,40.6118 ,1.10034 ,1.97902 ,19.41810 
217 ,40.8039 ,1.10212 ,1.98586 ,19.48526 
218 ,40.9955 ,1.10411 ,1.94137 ,19.04874 
219 ,41.1721 ,1.10589 ,1.94479 ,19.08232 
220 ,41.3642 ,1.10774 ,1.92084 ,18.84727 
221 ,41.5402 ,1.10956 ,1.90373 ,18.67938 
222 ,41.7483 ,1.11156 ,1.90031 ,18.64580 
223 ,41.9403 ,1.11346 ,1.87635 ,18.41075 
224 ,42.1161 ,1.11532 ,1.86608 ,18.31002 
225 ,42.3085 ,1.11725 ,1.86266 ,18.27644 
226 ,42.5002 ,1.11917 ,1.83186 ,17.97423 
227 ,42.6766 ,1.12092 ,1.82160 ,17.87350 
228 ,42.8525 ,1.12273 ,1.81475 ,17.80634 
229 ,43.0287 ,1.12446 ,1.80791 ,17.73919 
230 ,43.2048 ,1.12622 ,1.79764 ,17.63845 
231 ,43.3969 ,1.12806 ,1.77026 ,17.36983 
232 ,43.5891 ,1.13003 ,1.77369 ,17.40340 
233 ,43.7811 ,1.13198 ,1.73604 ,17.03404 
234 ,43.9572 ,1.13375 ,1.72578 ,16.93331 
235 ,44.1490 ,1.13558 ,1.73262 ,17.00046 
236 ,44.3413 ,1.13752 ,1.69498 ,16.63110 
237 ,44.5171 ,1.13934 ,1.68471 ,16.53037 
238 ,44.6934 ,1.14111 ,1.67444 ,16.42963 
239 ,44.9015 ,1.14315 ,1.65391 ,16.22816 
240 ,45.0936 ,1.14497 ,1.64707 ,16.16101 
241 ,45.3012 ,1.14701 ,1.62995 ,15.99311 
242 ,45.5097 ,1.14911 ,1.61284 ,15.82522 
243 ,45.6858 ,1.15102 ,1.60600 ,15.75807 
244 ,45.8779 ,1.15296 ,1.57862 ,15.48944 
245 ,46.0859 ,1.15484 ,1.56836 ,15.38871 
246 ,46.2621 ,1.15676 ,1.55809 ,15.28797 
247 ,46.4381 ,1.15858 ,1.54782 ,15.18724 
248 ,46.6141 ,1.16027 ,1.53071 ,15.01934 
249 ,46.7902 ,1.16207 ,1.51018 ,14.81787 
250 ,46.9821 ,1.16402 ,1.49307 ,14.64998 
251 ,47.1585 ,1.16575 ,1.47938 ,14.51567 
252 ,47.3664 ,1.16772 ,1.47253 ,14.44851 
253 ,47.5262 ,1.16951 ,1.45542 ,14.28062 
254 ,47.7186 ,1.17120 ,1.44516 ,14.17989 
255 ,47.9106 ,1.17325 ,1.42805 ,14.01199 
256 ,48.1025 ,1.17514 ,1.40751 ,13.81053 
257 ,48.2947 ,1.17709 ,1.39040 ,13.64263 
258 ,48.4864 ,1.17893 ,1.39040 ,13.64263 
259 ,48.6951 ,1.18101 ,1.36645 ,13.40759 
260 ,48.9030 ,1.18310 ,1.35960 ,13.34043 
261 ,49.0792 ,1.18496 ,1.33223 ,13.07180 
262 ,49.3033 ,1.18699 ,1.31854 ,12.93749 
263 ,49.4953 ,1.18903 ,1.30485 ,12.80318 
264 ,49.7033 ,1.19100 ,1.30143 ,12.76960 
265 ,49.8955 ,1.19313 ,1.27063 ,12.46739 
266 ,50.0876 ,1.19504 ,1.27063 ,12.46739 
267 ,50.2795 ,1.19689 ,1.23641 ,12.13161 
268 ,50.4557 ,1.19871 ,1.23298 ,12.09803 
269 ,50.6472 ,1.20053 ,1.22614 ,12.03088 
270 ,50.8396 ,1.20251 ,1.21245 ,11.89656 
271 ,51.0478 ,1.20445 ,1.20218 ,11.79583 
272 ,51.2239 ,1.20639 ,1.19192 ,11.69509 
273 ,51.4160 ,1.20820 ,1.16112 ,11.39289 
274 ,51.8319 ,1.21124 ,1.15427 ,11.32573 
275 ,52.0082 ,1.21423 ,1.12690 ,11.05710 
276 ,52.2319 ,1.21627 ,1.11663 ,10.95637 
277 ,52.4082 ,1.21820 ,1.08583 ,10.65416 
278 ,52.5846 ,1.21993 ,1.08583 ,10.65416 
279 ,52.7606 ,1.22175 ,1.06872 ,10.48627 
280 ,52.9527 ,1.22366 ,1.04134 ,10.21765 
281 ,53.1607 ,1.22566 ,1.03450 ,10.15049 
282 ,53.3369 ,1.22747 ,1.02081 ,10.01618 
283 ,53.5288 ,1.22946 ,1.01739 ,9.98260 
284 ,53.7210 ,1.23128 ,0.98317 ,9.64682 
285 ,53.8967 ,1.23308 ,0.96948 ,9.51250 
286 ,54.0726 ,1.23481 ,0.96605 ,9.47892 
287 ,54.2492 ,1.23659 ,0.95579 ,9.37819 
288 ,54.4412 ,1.23846 ,0.93183 ,9.14314 
289 ,54.6494 ,1.24057 ,0.93525 ,9.17672 
290 ,54.8573 ,1.24264 ,0.90788 ,8.90809 
291 ,55.0494 ,1.24453 ,0.91472 ,8.97525 
292 ,55.2254 ,1.24636 ,0.89761 ,8.80736 
293 ,55.4014 ,1.24812 ,0.87023 ,8.53873 
294 ,55.5937 ,1.25004 ,0.86339 ,8.47158 
295 ,55.8020 ,1.25210 ,0.83943 ,8.23653 
296 ,56.0097 ,1.25404 ,0.83259 ,8.16937 
297 ,56.2017 ,1.25618 ,0.80521 ,7.90074 
298 ,56.3939 ,1.25805 ,0.79152 ,7.76643 
299 ,56.5859 ,1.25994 ,0.78810 ,7.73285 
300 ,56.7782 ,1.26191 ,0.76415 ,7.49780 
301 ,56.9705 ,1.26383 ,0.76072 ,7.46423 
302 ,57.1619 ,1.26567 ,0.75046 ,7.36349 
303 ,57.3385 ,1.26751 ,0.72650 ,7.12844 
304 ,57.5463 ,1.26943 ,0.72992 ,7.16202 
305 ,57.7224 ,1.27131 ,0.71281 ,6.99413 
306 ,57.9145 ,1.27318 ,0.66490 ,6.52403 
307 ,58.1069 ,1.27516 ,0.69228 ,6.79266 
308 ,58.2986 ,1.27701 ,0.65806 ,6.45688 
309 ,58.4909 ,1.27902 ,0.63753 ,6.25541 
310 ,58.6828 ,1.28084 ,0.64779 ,6.35614 
311 ,58.8591 ,1.28266 ,0.61699 ,6.05394 
312 ,59.0349 ,1.28449 ,0.60330 ,5.91962 
313 ,59.2272 ,1.28629 ,0.60673 ,5.95320 
314 ,59.4188 ,1.28835 ,0.57593 ,5.65100 
315 ,59.6109 ,1.29014 ,0.56566 ,5.55026 
316 ,59.7870 ,1.29198 ,0.55882 ,5.48311 
317 ,59.9633 ,1.29370 ,0.56224 ,5.51668 
318 ,60.1551 ,1.29567 ,0.52802 ,5.18090 
319 ,60.3312 ,1.29739 ,0.51091 ,5.01301 
320 ,60.5072 ,1.29916 ,0.49722 ,4.87870 
321 ,60.6835 ,1.30088 ,0.51091 ,5.01301 
322 ,60.8757 ,1.30285 ,0.47326 ,4.64365 
323 ,61.0677 ,1.30473 ,0.46300 ,4.54291 
324 ,61.2440 ,1.30655 ,0.45957 ,4.50934 
325 ,61.4200 ,1.30829 ,0.44588 ,4.37502 
326 ,61.6123 ,1.31015 ,0.41851 ,4.10640 
327 ,61.8202 ,1.31225 ,0.41166 ,4.03924 
328 ,62.0123 ,1.31415 ,0.39797 ,3.90493 
329 ,62.2364 ,1.31620 ,0.38086 ,3.73703 
330 ,62.4281 ,1.31830 ,0.36033 ,3.53557 
331 ,62.6200 ,1.32023 ,0.36718 ,3.60272 
332 ,62.8122 ,1.32213 ,0.34322 ,3.36767 
333 ,62.9882 ,1.32401 ,0.34322 ,3.36767 
334 ,63.1806 ,1.32584 ,0.32269 ,3.16620 
335 ,63.4050 ,1.32811 ,0.32269 ,3.16620 
336 ,63.6129 ,1.33018 ,0.28162 ,2.76326 
337 ,63.8211 ,1.33228 ,0.26793 ,2.62895 
338 ,64.0130 ,1.33420 ,0.25767 ,2.52822 
339 ,64.1893 ,1.33598 ,0.23371 ,2.29317 
340 ,64.3655 ,1.33777 ,0.23713 ,2.32675 
341 ,64.5574 ,1.33963 ,0.21660 ,2.12528 
342 ,64.7652 ,1.34169 ,0.22687 ,2.22601 
343 ,64.9416 ,1.34350 ,0.21318 ,2.09170 
344 ,65.1336 ,1.34538 ,0.16869 ,1.65518 
345 ,65.3097 ,1.34719 ,0.16869 ,1.65518 
346 ,65.4858 ,1.34888 ,0.15842 ,1.55445 
347 ,65.6938 ,1.35092 ,0.13447 ,1.31940 
348 ,65.8535 ,1.35270 ,0.14131 ,1.38655 
349 ,66.0299 ,1.35438 ,0.10367 ,1.01719 
350 ,66.2059 ,1.35614 ,0.11393 ,1.11793 
351 ,66.3818 ,1.35793 ,0.09340 ,0.91646 
352 ,66.5578 ,1.35964 ,0.10025 ,0.98361 
353 ,66.7178 ,1.36136 ,0.06945 ,0.68141 
354 ,66.8940 ,1.36302 ,0.07629 ,0.74857 
355 ,67.0865 ,1.36491 ,0.06602 ,0.64783 
356 ,67.2786 ,1.36684 ,0.04549 ,0.44636 
357 ,67.4382 ,1.36856 ,0.02838 ,0.27847 
358 ,67.6145 ,1.37023 ,0.02838 ,0.27847 
359 ,67.7907 ,1.37198 ,0.01127 ,0.11058 
360 ,67.9823 ,1.37392 ,0.01469 ,0.14416 
361 ,68.1588 ,1.37570 ,0.01811 ,0.17773 
362 ,68.3508 ,1.37752 ,-0.01269 ,-0.12447 
363 ,68.5431 ,1.37942 ,-0.01611 ,-0.15805 
364 ,68.7348 ,1.38144 ,-0.02637 ,-0.25878 
365 ,68.9274 ,1.38324 ,-0.03322 ,-0.32594 
366 ,69.1348 ,1.38536 ,-0.06402 ,-0.62814 
367 ,69.3109 ,1.38716 ,-0.06744 ,-0.66172 
368 ,69.4872 ,1.38891 ,-0.07428 ,-0.72888 
369 ,69.6953 ,1.39102 ,-0.08797 ,-0.86319 
370 ,69.8874 ,1.39286 ,-0.08113 ,-0.79604 
371 ,70.0796 ,1.39481 ,-0.10166 ,-0.99751 
372 ,70.2871 ,1.39686 ,-0.13588 ,-1.33329 
373 ,70.4633 ,1.39864 ,-0.12562 ,-1.23255 
374 ,70.6395 ,1.40045 ,-0.13588 ,-1.33329 
375 ,70.8479 ,1.40252 ,-0.15984 ,-1.56834 
376 ,71.0555 ,1.40456 ,-0.17695 ,-1.73623 
377 ,71.2316 ,1.40635 ,-0.19064 ,-1.87054 
378 ,71.4081 ,1.40814 ,-0.20433 ,-2.00485 
379 ,71.6162 ,1.41013 ,-0.21802 ,-2.13917 
380 ,71.8082 ,1.41209 ,-0.22828 ,-2.23990 
381 ,72.0004 ,1.41400 ,-0.22828 ,-2.23990 
382 ,72.2081 ,1.41600 ,-0.24881 ,-2.44137 
383 ,72.4002 ,1.41795 ,-0.24539 ,-2.40779 
384 ,72.5764 ,1.41979 ,-0.26593 ,-2.60926 
385 ,72.7525 ,1.42155 ,-0.28304 ,-2.77716 
386 ,72.9447 ,1.42341 ,-0.28646 ,-2.81073 
387 ,73.1526 ,1.42543 ,-0.31041 ,-3.04578 
388 ,73.3448 ,1.42741 ,-0.31726 ,-3.11294 
389 ,73.5368 ,1.42931 ,-0.32410 ,-3.18010 
390 ,73.7606 ,1.43151 ,-0.33095 ,-3.24725 
391 ,73.9530 ,1.43345 ,-0.34464 ,-3.38156 
392 ,74.1447 ,1.43537 ,-0.38570 ,-3.78450 
393 ,74.3213 ,1.43725 ,-0.36859 ,-3.61661 
394 ,74.5290 ,1.43926 ,-0.39939 ,-3.91882 
395 ,74.7053 ,1.44106 ,-0.41308 ,-4.05313 
396 ,74.8814 ,1.44283 ,-0.41308 ,-4.05313 
397 ,75.0736 ,1.44477 ,-0.43703 ,-4.28818 
398 ,75.2657 ,1.44662 ,-0.43703 ,-4.28818 
399 ,75.4577 ,1.44866 ,-0.45414 ,-4.45607 
400 ,75.6495 ,1.45041 ,-0.47126 ,-4.62396 
401 ,75.8580 ,1.45254 ,-0.47126 ,-4.62396 
402 ,76.0499 ,1.45451 ,-0.49179 ,-4.82543 
403 ,76.2419 ,1.45638 ,-0.49179 ,-4.82543 
404 ,76.4179 ,1.45823 ,-0.50548 ,-4.95975 
405 ,76.6098 ,1.46011 ,-0.54312 ,-5.32911 
406 ,76.7860 ,1.46191 ,-0.54654 ,-5.36268 
407 ,76.9784 ,1.46384 ,-0.52943 ,-5.19479 
408 ,77.1705 ,1.46569 ,-0.57392 ,-5.63131 
409 ,77.3625 ,1.46761 ,-0.55681 ,-5.46342 
410 ,77.5545 ,1.46961 ,-0.56708 ,-5.56415 
411 ,77.7305 ,1.47142 ,-0.59445 ,-5.83278 
412 ,77.9067 ,1.47309 ,-0.61156 ,-6.00067 
413 ,78.0825 ,1.47490 ,-0.60814 ,-5.96709 
414 ,78.2589 ,1.47664 ,-0.59788 ,-5.86636 
415 ,78.4509 ,1.47846 ,-0.63894 ,-6.26930 
416 ,78.6270 ,1.48029 ,-0.64236 ,-6.30288 
417 ,78.8189 ,1.48222 ,-0.63894 ,-6.26930 
418 ,78.9952 ,1.48398 ,-0.64579 ,-6.33646 
419 ,79.1873 ,1.48580 ,-0.65605 ,-6.43719 
420 ,79.3953 ,1.48786 ,-0.67316 ,-6.60508 
421 ,79.5715 ,1.48974 ,-0.68001 ,-6.67224 
422 ,79.7635 ,1.49166 ,-0.69027 ,-6.77297 
423 ,79.9391 ,1.49348 ,-0.68343 ,-6.70582 
424 ,80.1316 ,1.49538 ,-0.70054 ,-6.87371 
425 ,80.3231 ,1.49720 ,-0.70054 ,-6.87371 
426 ,80.4998 ,1.49899 ,-0.70054 ,-6.87371 
427 ,80.6914 ,1.50089 ,-0.73134 ,-7.17591 
428 ,80.8837 ,1.50286 ,-0.74503 ,-7.31023 
429 ,81.0758 ,1.50478 ,-0.72450 ,-7.10876 
430 ,81.2682 ,1.50669 ,-0.77241 ,-7.57885 
431 ,81.4601 ,1.50858 ,-0.75872 ,-7.44454 
432 ,81.6360 ,1.51032 ,-0.77241 ,-7.57885 
433 ,81.8123 ,1.51213 ,-0.78267 ,-7.67959 
434 ,82.0039 ,1.51402 ,-0.80663 ,-7.91464 
435 ,82.1965 ,1.51590 ,-0.81005 ,-7.94821 
436 ,82.4045 ,1.51806 ,-0.83401 ,-8.18326 
437 ,82.5806 ,1.51982 ,-0.84427 ,-8.28400 
438 ,82.7727 ,1.52173 ,-0.85112 ,-8.35115 
439 ,82.9808 ,1.52376 ,-0.85112 ,-8.35115 
440 ,83.1728 ,1.52567 ,-0.85454 ,-8.38473 
441 ,83.3490 ,1.52752 ,-0.87507 ,-8.58620 
442 ,83.5410 ,1.52936 ,-0.87507 ,-8.58620 
443 ,83.7171 ,1.53121 ,-0.88876 ,-8.72051 
444 ,83.9093 ,1.53316 ,-0.91614 ,-8.98914 
445 ,84.1172 ,1.53507 ,-0.91956 ,-9.02272 
446 ,84.2931 ,1.53691 ,-0.91956 ,-9.02272 
447 ,84.4853 ,1.53884 ,-0.95378 ,-9.35850 
448 ,84.6774 ,1.54081 ,-0.94351 ,-9.25777 
449 ,84.8696 ,1.54269 ,-0.95378 ,-9.35850 
450 ,85.0775 ,1.54463 ,-0.97431 ,-9.55997 
451 ,85.2532 ,1.54653 ,-0.97774 ,-9.59355 
452 ,85.4457 ,1.54833 ,-0.99485 ,-9.76144 
453 ,85.6538 ,1.55046 ,-0.99143 ,-9.72786 
454 ,85.8459 ,1.55238 ,-1.02907 ,-10.09723 
455 ,86.0378 ,1.55432 ,-1.02565 ,-10.06365 
456 ,86.2138 ,1.55612 ,-1.01538 ,-9.96291 
457 ,86.3900 ,1.55788 ,-1.03591 ,-10.16438 
458 ,86.5662 ,1.55966 ,-1.05645 ,-10.36585 
459 ,86.7422 ,1.56139 ,-1.07356 ,-10.53374 
460 ,86.9183 ,1.56317 ,-1.08040 ,-10.60090 
461 ,87.0944 ,1.56496 ,-1.06671 ,-10.46659 
462 ,87.2865 ,1.56677 ,-1.09751 ,-10.76879 
