Data stamp = , 22-04-2022 09:35:25 155

Calibration Values: 
Slope = , 26.54 , g/V 
Offset Voltage at no contact = , -0.501760 , V 

No , Time , Stage Position ,   Mass , Force 
   ,  (s) ,      (mm)      ,   (g)  , (mN)  

1 ,0.0000 ,0.69942 ,5.27114 ,51.72043 
2 ,0.2217 ,0.69951 ,5.29852 ,51.98905 
3 ,0.5423 ,0.70037 ,5.28825 ,51.88832 
4 ,0.7499 ,0.70192 ,5.28825 ,51.88832 
5 ,0.9261 ,0.70349 ,5.30194 ,52.02263 
6 ,1.1185 ,0.70541 ,5.27798 ,51.78758 
7 ,1.3263 ,0.70740 ,5.28825 ,51.88832 
8 ,1.5187 ,0.70925 ,5.27456 ,51.75401 
9 ,1.7266 ,0.71142 ,5.28141 ,51.82116 
10 ,1.9187 ,0.71336 ,5.26087 ,51.61969 
11 ,2.1269 ,0.71546 ,5.26430 ,51.65327 
12 ,2.3189 ,0.71737 ,5.22323 ,51.25033 
13 ,2.4949 ,0.71911 ,5.21639 ,51.18317 
14 ,2.6871 ,0.72105 ,5.20270 ,51.04886 
15 ,2.8947 ,0.72315 ,5.16505 ,50.67950 
16 ,3.0871 ,0.72493 ,5.15479 ,50.57876 
17 ,3.2633 ,0.72678 ,5.15479 ,50.57876 
18 ,3.4394 ,0.72854 ,5.14110 ,50.44445 
19 ,3.6153 ,0.73031 ,5.10345 ,50.07509 
20 ,3.7911 ,0.73207 ,5.08292 ,49.87362 
21 ,3.9672 ,0.73386 ,5.07608 ,49.80646 
22 ,4.1593 ,0.73572 ,5.06239 ,49.67215 
23 ,4.3517 ,0.73770 ,5.04185 ,49.47068 
24 ,4.5435 ,0.73955 ,5.04528 ,49.50426 
25 ,4.7359 ,0.74152 ,5.00421 ,49.10132 
26 ,4.9281 ,0.74346 ,4.99052 ,48.96701 
27 ,5.1200 ,0.74539 ,4.98368 ,48.89985 
28 ,5.3120 ,0.74730 ,4.94946 ,48.56407 
29 ,5.5201 ,0.74926 ,4.93577 ,48.42975 
30 ,5.6962 ,0.75111 ,4.91181 ,48.19471 
31 ,5.8882 ,0.75302 ,4.90839 ,48.16113 
32 ,6.0643 ,0.75482 ,4.89128 ,47.99324 
33 ,6.2725 ,0.75689 ,4.86732 ,47.75819 
34 ,6.4804 ,0.75889 ,4.85706 ,47.65745 
35 ,6.6565 ,0.76068 ,4.82626 ,47.35525 
36 ,6.8327 ,0.76255 ,4.80915 ,47.18736 
37 ,7.0087 ,0.76425 ,4.78519 ,46.95231 
38 ,7.1845 ,0.76600 ,4.78861 ,46.98589 
39 ,7.3610 ,0.76781 ,4.76808 ,46.78442 
40 ,7.5690 ,0.76976 ,4.74755 ,46.58295 
41 ,7.7451 ,0.77159 ,4.73044 ,46.41506 
42 ,7.9211 ,0.77339 ,4.72359 ,46.34790 
43 ,8.1133 ,0.77524 ,4.69964 ,46.11285 
44 ,8.3211 ,0.77723 ,4.69279 ,46.04569 
45 ,8.4974 ,0.77911 ,4.66199 ,45.74349 
46 ,8.6895 ,0.78096 ,4.65857 ,45.70991 
47 ,8.8654 ,0.78290 ,4.64146 ,45.54202 
48 ,9.0417 ,0.78459 ,4.63119 ,45.44128 
49 ,9.2339 ,0.78645 ,4.60040 ,45.13908 
50 ,9.4255 ,0.78835 ,4.59355 ,45.07192 
51 ,9.6178 ,0.79032 ,4.58328 ,44.97119 
52 ,9.7940 ,0.79207 ,4.55249 ,44.66898 
53 ,9.9699 ,0.79389 ,4.52853 ,44.43394 
54 ,10.1621 ,0.79577 ,4.53537 ,44.50109 
55 ,10.3381 ,0.79750 ,4.51142 ,44.26604 
56 ,10.5143 ,0.79931 ,4.49089 ,44.06457 
57 ,10.7219 ,0.80134 ,4.45666 ,43.72879 
58 ,10.8983 ,0.80310 ,4.46009 ,43.76237 
59 ,11.0745 ,0.80488 ,4.44640 ,43.62806 
60 ,11.2506 ,0.80668 ,4.42244 ,43.39301 
61 ,11.4426 ,0.80855 ,4.41560 ,43.32585 
62 ,11.6344 ,0.81047 ,4.39164 ,43.09080 
63 ,11.8266 ,0.81240 ,4.37795 ,42.95649 
64 ,12.0029 ,0.81422 ,4.37453 ,42.92291 
65 ,12.1949 ,0.81603 ,4.34373 ,42.62071 
66 ,12.3552 ,0.81782 ,4.31293 ,42.31850 
67 ,12.5468 ,0.81961 ,4.31293 ,42.31850 
68 ,12.7391 ,0.82155 ,4.30609 ,42.25135 
69 ,12.9313 ,0.82349 ,4.26845 ,41.88198 
70 ,13.1234 ,0.82544 ,4.26845 ,41.88198 
71 ,13.2994 ,0.82716 ,4.26160 ,41.81483 
72 ,13.4754 ,0.82893 ,4.24107 ,41.61336 
73 ,13.6671 ,0.83085 ,4.22053 ,41.41189 
74 ,13.8596 ,0.83267 ,4.20000 ,41.21042 
75 ,14.0675 ,0.83479 ,4.18289 ,41.04253 
76 ,14.2436 ,0.83658 ,4.17262 ,40.94179 
77 ,14.4194 ,0.83836 ,4.15894 ,40.80748 
78 ,14.5955 ,0.84009 ,4.14183 ,40.63959 
79 ,14.7874 ,0.84203 ,4.12129 ,40.43812 
80 ,14.9638 ,0.84376 ,4.10760 ,40.30380 
81 ,15.1400 ,0.84559 ,4.08365 ,40.06876 
82 ,15.3159 ,0.84731 ,4.08023 ,40.03518 
83 ,15.5082 ,0.84919 ,4.05627 ,39.80013 
84 ,15.7004 ,0.85114 ,4.05969 ,39.83371 
85 ,15.8923 ,0.85308 ,4.01863 ,39.43077 
86 ,16.0685 ,0.85480 ,3.99809 ,39.22930 
87 ,16.2606 ,0.85671 ,4.00152 ,39.26288 
88 ,16.4366 ,0.85849 ,3.99125 ,39.16214 
89 ,16.6127 ,0.86025 ,3.97414 ,38.99425 
90 ,16.7889 ,0.86204 ,3.93307 ,38.59131 
91 ,16.9810 ,0.86386 ,3.95018 ,38.75920 
92 ,17.1890 ,0.86595 ,3.91254 ,38.38984 
93 ,17.3811 ,0.86786 ,3.91596 ,38.42342 
94 ,17.5731 ,0.86985 ,3.87147 ,37.98690 
95 ,17.7652 ,0.87181 ,3.85436 ,37.81901 
96 ,17.9410 ,0.87353 ,3.85094 ,37.78543 
97 ,18.1334 ,0.87542 ,3.83041 ,37.58396 
98 ,18.3254 ,0.87742 ,3.80987 ,37.38249 
99 ,18.5174 ,0.87929 ,3.80987 ,37.38249 
100 ,18.6934 ,0.88108 ,3.78592 ,37.14744 
101 ,18.9017 ,0.88302 ,3.76881 ,36.97955 
102 ,19.0937 ,0.88510 ,3.74828 ,36.77808 
103 ,19.2699 ,0.88684 ,3.72774 ,36.57661 
104 ,19.4620 ,0.88873 ,3.73117 ,36.61019 
105 ,19.6540 ,0.89061 ,3.70037 ,36.30799 
106 ,19.8303 ,0.89243 ,3.69010 ,36.20725 
107 ,20.0057 ,0.89424 ,3.68325 ,36.14010 
108 ,20.1822 ,0.89593 ,3.65246 ,35.83789 
109 ,20.3741 ,0.89783 ,3.64561 ,35.77073 
110 ,20.5505 ,0.89959 ,3.62508 ,35.56926 
111 ,20.7581 ,0.90161 ,3.62508 ,35.56926 
112 ,20.9826 ,0.90370 ,3.58743 ,35.19990 
113 ,21.2061 ,0.90606 ,3.57032 ,35.03201 
114 ,21.3985 ,0.90797 ,3.55321 ,34.86412 
115 ,21.5907 ,0.91000 ,3.53610 ,34.69623 
116 ,21.7665 ,0.91173 ,3.51899 ,34.52834 
117 ,21.9751 ,0.91383 ,3.51215 ,34.46118 
118 ,22.1830 ,0.91588 ,3.49504 ,34.29329 
119 ,22.3592 ,0.91771 ,3.49161 ,34.25971 
120 ,22.5513 ,0.91960 ,3.45739 ,33.92393 
121 ,22.7433 ,0.92150 ,3.44713 ,33.82319 
122 ,22.9350 ,0.92346 ,3.43344 ,33.68888 
123 ,23.1115 ,0.92524 ,3.41633 ,33.52099 
124 ,23.3351 ,0.92730 ,3.39921 ,33.35310 
125 ,23.5436 ,0.92940 ,3.37526 ,33.11805 
126 ,23.7356 ,0.93151 ,3.35473 ,32.91658 
127 ,23.9118 ,0.93323 ,3.33419 ,32.71511 
128 ,24.0878 ,0.93501 ,3.32051 ,32.58080 
129 ,24.2639 ,0.93681 ,3.31366 ,32.51364 
130 ,24.4395 ,0.93849 ,3.29997 ,32.37933 
131 ,24.6319 ,0.94036 ,3.27602 ,32.14428 
132 ,24.8401 ,0.94243 ,3.27259 ,32.11070 
133 ,25.0160 ,0.94429 ,3.25548 ,31.94281 
134 ,25.1922 ,0.94606 ,3.23153 ,31.70776 
135 ,25.3843 ,0.94789 ,3.21100 ,31.50629 
136 ,25.5764 ,0.94982 ,3.21100 ,31.50629 
137 ,25.7525 ,0.95162 ,3.20073 ,31.40555 
138 ,25.9447 ,0.95349 ,3.18020 ,31.20409 
139 ,26.1368 ,0.95546 ,3.14597 ,30.86830 
140 ,26.3286 ,0.95738 ,3.12886 ,30.70041 
141 ,26.5049 ,0.95913 ,3.11860 ,30.59968 
142 ,26.6965 ,0.96107 ,3.11518 ,30.56610 
143 ,26.8730 ,0.96285 ,3.10833 ,30.49894 
144 ,27.0650 ,0.96471 ,3.06726 ,30.09600 
145 ,27.2412 ,0.96655 ,3.06726 ,30.09600 
146 ,27.4328 ,0.96836 ,3.04673 ,29.89453 
147 ,27.6090 ,0.97019 ,3.03304 ,29.76022 
148 ,27.8013 ,0.97212 ,3.01935 ,29.62590 
149 ,27.9774 ,0.97391 ,3.01251 ,29.55875 
150 ,28.1695 ,0.97578 ,2.97829 ,29.22297 
151 ,28.3616 ,0.97767 ,2.96802 ,29.12223 
152 ,28.5537 ,0.97957 ,2.94407 ,28.88718 
153 ,28.7613 ,0.98156 ,2.93380 ,28.78645 
154 ,28.9381 ,0.98343 ,2.93038 ,28.75287 
155 ,29.1460 ,0.98548 ,2.89273 ,28.38351 
156 ,29.3381 ,0.98742 ,2.87905 ,28.24919 
157 ,29.5298 ,0.98933 ,2.86878 ,28.14846 
158 ,29.7382 ,0.99140 ,2.85167 ,27.98057 
159 ,29.9302 ,0.99340 ,2.84140 ,27.87983 
160 ,30.1222 ,0.99531 ,2.81060 ,27.57763 
161 ,30.3143 ,0.99714 ,2.82087 ,27.67836 
162 ,30.5062 ,0.99908 ,2.79691 ,27.44332 
163 ,30.6984 ,1.00101 ,2.76954 ,27.17469 
164 ,30.8743 ,1.00280 ,2.76954 ,27.17469 
165 ,31.0506 ,1.00462 ,2.74900 ,26.97322 
166 ,31.2428 ,1.00650 ,2.71136 ,26.60386 
167 ,31.4188 ,1.00831 ,2.71478 ,26.63744 
168 ,31.6109 ,1.01009 ,2.69425 ,26.43597 
169 ,31.7868 ,1.01194 ,2.68740 ,26.36881 
170 ,31.9627 ,1.01373 ,2.65660 ,26.06661 
171 ,32.1551 ,1.01560 ,2.66003 ,26.10018 
172 ,32.3793 ,1.01769 ,2.64634 ,25.96587 
173 ,32.5871 ,1.01979 ,2.62581 ,25.76440 
174 ,32.7633 ,1.02169 ,2.59843 ,25.49577 
175 ,32.9397 ,1.02350 ,2.57105 ,25.22715 
176 ,33.1311 ,1.02539 ,2.55394 ,25.05926 
177 ,33.3075 ,1.02714 ,2.55736 ,25.09283 
178 ,33.4995 ,1.02899 ,2.54710 ,24.99210 
179 ,33.6754 ,1.03084 ,2.52656 ,24.79063 
180 ,33.8518 ,1.03255 ,2.51972 ,24.72347 
181 ,34.0602 ,1.03457 ,2.49576 ,24.48842 
182 ,34.2516 ,1.03651 ,2.50261 ,24.55558 
183 ,34.4601 ,1.03870 ,2.45470 ,24.08549 
184 ,34.6519 ,1.04059 ,2.45812 ,24.11906 
185 ,34.8278 ,1.04244 ,2.43416 ,23.88402 
186 ,35.0039 ,1.04406 ,2.40679 ,23.61539 
187 ,35.1802 ,1.04590 ,2.38968 ,23.44750 
188 ,35.3884 ,1.04794 ,2.39310 ,23.48108 
189 ,35.6124 ,1.05007 ,2.35888 ,23.14529 
190 ,35.7886 ,1.05192 ,2.35888 ,23.14529 
191 ,35.9806 ,1.05387 ,2.31781 ,22.74235 
192 ,36.1566 ,1.05559 ,2.31781 ,22.74235 
193 ,36.3323 ,1.05735 ,2.31097 ,22.67520 
194 ,36.5089 ,1.05922 ,2.30412 ,22.60804 
195 ,36.7168 ,1.06114 ,2.28359 ,22.40657 
196 ,36.8928 ,1.06304 ,2.26306 ,22.20510 
197 ,37.0851 ,1.06486 ,2.23226 ,21.90290 
198 ,37.2612 ,1.06671 ,2.22541 ,21.83574 
199 ,37.4212 ,1.06837 ,2.20830 ,21.66785 
200 ,37.5973 ,1.07001 ,2.20488 ,21.63427 
201 ,37.8053 ,1.07205 ,2.18092 ,21.39922 
202 ,37.9813 ,1.07387 ,2.16039 ,21.19775 
203 ,38.1575 ,1.07566 ,2.14670 ,21.06344 
204 ,38.3496 ,1.07754 ,2.15355 ,21.13059 
205 ,38.5416 ,1.07951 ,2.12275 ,20.82839 
206 ,38.7175 ,1.08120 ,2.09879 ,20.59334 
207 ,38.8937 ,1.08305 ,2.10906 ,20.69408 
208 ,39.0698 ,1.08471 ,2.09537 ,20.55976 
209 ,39.2459 ,1.08654 ,2.07141 ,20.32472 
210 ,39.4220 ,1.08828 ,2.05773 ,20.19040 
211 ,39.5980 ,1.09008 ,2.04404 ,20.05609 
212 ,39.7900 ,1.09188 ,2.04061 ,20.02251 
213 ,39.9823 ,1.09388 ,2.01324 ,19.75388 
214 ,40.1744 ,1.09576 ,2.00297 ,19.65315 
215 ,40.3663 ,1.09764 ,1.98928 ,19.51884 
216 ,40.5423 ,1.09942 ,1.96190 ,19.25021 
217 ,40.7343 ,1.10139 ,1.94479 ,19.08232 
218 ,40.9267 ,1.10333 ,1.95164 ,19.14948 
219 ,41.1186 ,1.10513 ,1.92426 ,18.88085 
220 ,41.3107 ,1.10710 ,1.91742 ,18.81369 
221 ,41.4868 ,1.10888 ,1.89688 ,18.61222 
222 ,41.6626 ,1.11063 ,1.88319 ,18.47791 
223 ,41.8552 ,1.11251 ,1.86608 ,18.31002 
224 ,42.0632 ,1.11456 ,1.83528 ,18.00781 
225 ,42.2553 ,1.11655 ,1.83528 ,18.00781 
226 ,42.4471 ,1.11853 ,1.81817 ,17.83992 
227 ,42.6393 ,1.12045 ,1.79422 ,17.60487 
228 ,42.8150 ,1.12214 ,1.77711 ,17.43698 
229 ,43.1674 ,1.12570 ,1.76000 ,17.26909 
230 ,43.3597 ,1.12768 ,1.72920 ,16.96689 
231 ,43.5515 ,1.12953 ,1.71893 ,16.86615 
232 ,43.7277 ,1.13135 ,1.72578 ,16.93331 
233 ,43.9358 ,1.13331 ,1.70866 ,16.76542 
234 ,44.1276 ,1.13533 ,1.69498 ,16.63110 
235 ,44.3039 ,1.13705 ,1.68129 ,16.49679 
236 ,44.4962 ,1.13895 ,1.64022 ,16.09385 
237 ,44.6880 ,1.14096 ,1.63680 ,16.06027 
238 ,44.8639 ,1.14265 ,1.62995 ,15.99311 
239 ,45.0562 ,1.14453 ,1.60258 ,15.72449 
240 ,45.2645 ,1.14659 ,1.59916 ,15.69091 
241 ,45.4562 ,1.14854 ,1.56493 ,15.35513 
242 ,45.6485 ,1.15045 ,1.56836 ,15.38871 
243 ,45.8407 ,1.15234 ,1.55809 ,15.28797 
244 ,46.0169 ,1.15417 ,1.53071 ,15.01934 
245 ,46.2089 ,1.15603 ,1.52729 ,14.98577 
246 ,46.4170 ,1.15803 ,1.49649 ,14.68356 
247 ,46.6090 ,1.16003 ,1.50333 ,14.75072 
248 ,46.7852 ,1.16183 ,1.49649 ,14.68356 
249 ,46.9613 ,1.16365 ,1.47253 ,14.44851 
250 ,47.1374 ,1.16546 ,1.44516 ,14.17989 
251 ,47.3291 ,1.16731 ,1.44174 ,14.14631 
252 ,47.5055 ,1.16900 ,1.43831 ,14.11273 
253 ,47.6975 ,1.17103 ,1.40751 ,13.81053 
254 ,47.8735 ,1.17281 ,1.40751 ,13.81053 
255 ,48.0495 ,1.17453 ,1.38014 ,13.54190 
256 ,48.2418 ,1.17641 ,1.37671 ,13.50832 
257 ,48.4341 ,1.17833 ,1.34934 ,13.23969 
258 ,48.6256 ,1.18024 ,1.34591 ,13.20612 
259 ,48.8021 ,1.18202 ,1.33565 ,13.10538 
260 ,49.0102 ,1.18405 ,1.32538 ,13.00465 
261 ,49.2021 ,1.18609 ,1.29116 ,12.66886 
262 ,49.3782 ,1.18782 ,1.29458 ,12.70244 
263 ,49.5544 ,1.18953 ,1.26036 ,12.36666 
264 ,49.7461 ,1.19138 ,1.26036 ,12.36666 
265 ,49.9225 ,1.19321 ,1.25352 ,12.29950 
266 ,50.1141 ,1.19508 ,1.21587 ,11.93014 
267 ,50.2902 ,1.19699 ,1.20903 ,11.86298 
268 ,50.4663 ,1.19869 ,1.20218 ,11.79583 
269 ,50.6748 ,1.20060 ,1.19534 ,11.72867 
270 ,50.8508 ,1.20253 ,1.16796 ,11.46004 
271 ,51.0428 ,1.20433 ,1.17138 ,11.49362 
272 ,51.2186 ,1.20619 ,1.14743 ,11.25857 
273 ,51.4106 ,1.20805 ,1.12690 ,11.05710 
274 ,51.5867 ,1.20990 ,1.12690 ,11.05710 
275 ,51.7789 ,1.21174 ,1.10636 ,10.85563 
276 ,52.0032 ,1.21400 ,1.09610 ,10.75490 
277 ,52.1951 ,1.21592 ,1.06530 ,10.45270 
278 ,52.3872 ,1.21776 ,1.05845 ,10.38554 
279 ,52.5634 ,1.21965 ,1.04134 ,10.21765 
280 ,52.7554 ,1.22152 ,1.02081 ,10.01618 
281 ,52.9478 ,1.22339 ,1.02423 ,10.04976 
282 ,53.1399 ,1.22529 ,1.00028 ,9.81471 
283 ,53.3319 ,1.22723 ,0.98659 ,9.68039 
284 ,53.5400 ,1.22933 ,0.96263 ,9.44535 
285 ,53.7322 ,1.23128 ,0.95921 ,9.41177 
286 ,53.9241 ,1.23317 ,0.95921 ,9.41177 
287 ,54.1163 ,1.23507 ,0.92157 ,9.04241 
288 ,54.3242 ,1.23714 ,0.92157 ,9.04241 
289 ,54.5004 ,1.23905 ,0.90446 ,8.87451 
290 ,54.6764 ,1.24079 ,0.90446 ,8.87451 
291 ,54.8844 ,1.24279 ,0.89077 ,8.74020 
292 ,55.0607 ,1.24461 ,0.88050 ,8.63947 
293 ,55.2528 ,1.24650 ,0.84286 ,8.27011 
294 ,55.4289 ,1.24829 ,0.84286 ,8.27011 
295 ,55.6365 ,1.25029 ,0.82232 ,8.06864 
296 ,55.8129 ,1.25219 ,0.81890 ,8.03506 
297 ,55.9891 ,1.25388 ,0.79837 ,7.83359 
298 ,56.1811 ,1.25573 ,0.79152 ,7.76643 
299 ,56.3571 ,1.25755 ,0.78468 ,7.69927 
300 ,56.5335 ,1.25930 ,0.75730 ,7.43065 
301 ,56.7253 ,1.26122 ,0.75730 ,7.43065 
302 ,56.9171 ,1.26316 ,0.74361 ,7.29633 
303 ,57.1093 ,1.26498 ,0.71281 ,6.99413 
304 ,57.2854 ,1.26682 ,0.70597 ,6.92697 
305 ,57.4776 ,1.26872 ,0.69913 ,6.85982 
306 ,57.6855 ,1.27073 ,0.67859 ,6.65835 
307 ,57.8614 ,1.27264 ,0.66833 ,6.55761 
308 ,58.0381 ,1.27437 ,0.66833 ,6.55761 
309 ,58.2457 ,1.27640 ,0.65121 ,6.38972 
310 ,58.4221 ,1.27820 ,0.62726 ,6.15467 
311 ,58.6142 ,1.28014 ,0.61015 ,5.98678 
312 ,58.8057 ,1.28196 ,0.58962 ,5.78531 
313 ,58.9980 ,1.28384 ,0.59646 ,5.85247 
314 ,59.1740 ,1.28572 ,0.56908 ,5.58384 
315 ,59.3662 ,1.28756 ,0.55882 ,5.48311 
316 ,59.5586 ,1.28946 ,0.55197 ,5.41595 
317 ,59.7504 ,1.29138 ,0.52802 ,5.18090 
318 ,59.9266 ,1.29333 ,0.51775 ,5.08017 
319 ,60.1025 ,1.29499 ,0.51433 ,5.04659 
320 ,60.2948 ,1.29683 ,0.49380 ,4.84512 
321 ,60.5028 ,1.29887 ,0.47668 ,4.67723 
322 ,60.6948 ,1.30085 ,0.46642 ,4.57649 
323 ,60.8867 ,1.30282 ,0.44588 ,4.37502 
324 ,61.0630 ,1.30457 ,0.43562 ,4.27429 
325 ,61.2870 ,1.30671 ,0.43562 ,4.27429 
326 ,61.4632 ,1.30858 ,0.42193 ,4.13997 
327 ,61.6552 ,1.31043 ,0.40824 ,4.00566 
328 ,61.8314 ,1.31235 ,0.39455 ,3.87135 
329 ,62.0070 ,1.31400 ,0.38086 ,3.73703 
330 ,62.1995 ,1.31587 ,0.37402 ,3.66988 
331 ,62.3915 ,1.31788 ,0.34664 ,3.40125 
332 ,62.5675 ,1.31957 ,0.34322 ,3.36767 
333 ,62.7437 ,1.32138 ,0.32611 ,3.19978 
334 ,62.9354 ,1.32321 ,0.32269 ,3.16620 
335 ,63.1115 ,1.32503 ,0.29873 ,2.93116 
336 ,63.3197 ,1.32697 ,0.27820 ,2.72969 
337 ,63.5120 ,1.32901 ,0.27820 ,2.72969 
338 ,63.7201 ,1.33107 ,0.28162 ,2.76326 
339 ,63.9120 ,1.33301 ,0.24398 ,2.39390 
340 ,64.0881 ,1.33480 ,0.23371 ,2.29317 
341 ,64.2643 ,1.33659 ,0.22002 ,2.15885 
342 ,64.4404 ,1.33837 ,0.22002 ,2.15885 
343 ,64.6164 ,1.34015 ,0.22002 ,2.15885 
344 ,64.7925 ,1.34187 ,0.19264 ,1.89023 
345 ,64.9686 ,1.34360 ,0.17896 ,1.75592 
346 ,65.1768 ,1.34566 ,0.17896 ,1.75592 
347 ,65.3528 ,1.34751 ,0.15500 ,1.52087 
348 ,65.5448 ,1.34933 ,0.14816 ,1.45371 
349 ,65.7369 ,1.35136 ,0.12420 ,1.21866 
350 ,65.9129 ,1.35306 ,0.13105 ,1.28582 
351 ,66.1211 ,1.35512 ,0.12762 ,1.25224 
352 ,66.3127 ,1.35700 ,0.07971 ,0.78214 
353 ,66.4892 ,1.35888 ,0.08314 ,0.81572 
354 ,66.6970 ,1.36082 ,0.07629 ,0.74857 
355 ,66.8733 ,1.36265 ,0.08656 ,0.84930 
356 ,67.0494 ,1.36446 ,0.05918 ,0.58067 
357 ,67.2416 ,1.36637 ,0.03522 ,0.34563 
358 ,67.4495 ,1.36830 ,0.03865 ,0.37920 
359 ,67.6255 ,1.37018 ,0.00100 ,0.00984 
360 ,67.8494 ,1.37226 ,0.00100 ,0.00984 
361 ,68.0419 ,1.37430 ,-0.01611 ,-0.15805 
362 ,68.2177 ,1.37615 ,-0.00926 ,-0.09089 
363 ,68.4101 ,1.37796 ,-0.05717 ,-0.56099 
364 ,68.6021 ,1.37991 ,-0.04691 ,-0.46025 
365 ,68.7782 ,1.38169 ,-0.04348 ,-0.42667 
366 ,68.9702 ,1.38366 ,-0.07771 ,-0.76246 
367 ,69.1623 ,1.38549 ,-0.08113 ,-0.79604 
368 ,69.3385 ,1.38730 ,-0.09482 ,-0.93035 
369 ,69.5305 ,1.38920 ,-0.11877 ,-1.16540 
370 ,69.7065 ,1.39106 ,-0.12219 ,-1.19898 
371 ,69.8826 ,1.39284 ,-0.13588 ,-1.33329 
372 ,70.0588 ,1.39456 ,-0.15642 ,-1.53476 
373 ,70.2508 ,1.39648 ,-0.15642 ,-1.53476 
374 ,70.4429 ,1.39825 ,-0.16668 ,-1.63549 
375 ,70.6346 ,1.40020 ,-0.18037 ,-1.76981 
376 ,70.8111 ,1.40205 ,-0.18722 ,-1.83696 
377 ,71.0191 ,1.40403 ,-0.19064 ,-1.87054 
378 ,71.2112 ,1.40605 ,-0.22144 ,-2.17275 
379 ,71.4033 ,1.40794 ,-0.22828 ,-2.23990 
380 ,71.5792 ,1.40973 ,-0.24539 ,-2.40779 
381 ,71.7390 ,1.41142 ,-0.24881 ,-2.44137 
382 ,71.9154 ,1.41304 ,-0.25224 ,-2.47495 
383 ,72.1072 ,1.41491 ,-0.26593 ,-2.60926 
384 ,72.2996 ,1.41679 ,-0.28646 ,-2.81073 
385 ,72.4914 ,1.41876 ,-0.28646 ,-2.81073 
386 ,72.6517 ,1.42056 ,-0.29673 ,-2.91147 
387 ,72.8279 ,1.42225 ,-0.30699 ,-3.01220 
388 ,73.0200 ,1.42415 ,-0.33437 ,-3.28083 
389 ,73.2120 ,1.42603 ,-0.33095 ,-3.24725 
390 ,73.3881 ,1.42775 ,-0.36175 ,-3.54946 
391 ,73.5799 ,1.42973 ,-0.35832 ,-3.51588 
392 ,73.7722 ,1.43161 ,-0.34464 ,-3.38156 
393 ,73.9644 ,1.43352 ,-0.38228 ,-3.75093 
394 ,74.1723 ,1.43561 ,-0.38570 ,-3.78450 
395 ,74.3644 ,1.43749 ,-0.39255 ,-3.85166 
396 ,74.5566 ,1.43945 ,-0.40623 ,-3.98597 
397 ,74.7485 ,1.44128 ,-0.41650 ,-4.08671 
398 ,74.9242 ,1.44318 ,-0.43361 ,-4.25460 
399 ,75.1167 ,1.44502 ,-0.42335 ,-4.15387 
400 ,75.3249 ,1.44711 ,-0.46441 ,-4.55681 
401 ,75.5169 ,1.44896 ,-0.45414 ,-4.45607 
402 ,75.6929 ,1.45082 ,-0.46783 ,-4.59038 
403 ,75.8847 ,1.45269 ,-0.47810 ,-4.69112 
404 ,76.0609 ,1.45451 ,-0.50548 ,-4.95975 
405 ,76.2371 ,1.45626 ,-0.51232 ,-5.02690 
406 ,76.4129 ,1.45804 ,-0.51232 ,-5.02690 
407 ,76.5894 ,1.45983 ,-0.51574 ,-5.06048 
408 ,76.7815 ,1.46175 ,-0.55681 ,-5.46342 
409 ,76.9895 ,1.46372 ,-0.53970 ,-5.29553 
410 ,77.1816 ,1.46567 ,-0.57392 ,-5.63131 
411 ,77.3897 ,1.46769 ,-0.58419 ,-5.73205 
412 ,77.5658 ,1.46961 ,-0.60130 ,-5.89994 
413 ,77.7418 ,1.47136 ,-0.61841 ,-6.06783 
414 ,77.9339 ,1.47320 ,-0.61156 ,-6.00067 
415 ,78.1255 ,1.47506 ,-0.61841 ,-6.06783 
416 ,78.3181 ,1.47703 ,-0.63210 ,-6.20214 
417 ,78.5260 ,1.47910 ,-0.65947 ,-6.47077 
418 ,78.7021 ,1.48098 ,-0.66632 ,-6.53793 
419 ,78.8782 ,1.48274 ,-0.67316 ,-6.60508 
420 ,79.0705 ,1.48458 ,-0.67316 ,-6.60508 
421 ,79.2620 ,1.48659 ,-0.71423 ,-7.00802 
422 ,79.4383 ,1.48827 ,-0.71765 ,-7.04160 
423 ,79.6142 ,1.49000 ,-0.72107 ,-7.07518 
424 ,79.7903 ,1.49179 ,-0.72450 ,-7.10876 
425 ,79.9503 ,1.49351 ,-0.71765 ,-7.04160 
426 ,80.1265 ,1.49518 ,-0.73476 ,-7.20949 
427 ,80.3025 ,1.49691 ,-0.75187 ,-7.37738 
428 ,80.4786 ,1.49867 ,-0.77925 ,-7.64601 
429 ,80.6547 ,1.50041 ,-0.78610 ,-7.71317 
430 ,80.8308 ,1.50222 ,-0.79294 ,-7.78032 
431 ,81.0068 ,1.50398 ,-0.78610 ,-7.71317 
432 ,81.1829 ,1.50568 ,-0.81005 ,-7.94821 
433 ,81.3748 ,1.50765 ,-0.83058 ,-8.14968 
434 ,81.5349 ,1.50934 ,-0.81689 ,-8.01537 
435 ,81.7111 ,1.51099 ,-0.84085 ,-8.25042 
436 ,81.8872 ,1.51272 ,-0.83743 ,-8.21684 
437 ,82.0632 ,1.51452 ,-0.85796 ,-8.41831 
438 ,82.2393 ,1.51627 ,-0.87165 ,-8.55262 
439 ,82.4153 ,1.51800 ,-0.89218 ,-8.75409 
440 ,82.5914 ,1.51979 ,-0.87849 ,-8.61978 
441 ,82.7675 ,1.52157 ,-0.87849 ,-8.61978 
442 ,82.9436 ,1.52329 ,-0.88876 ,-8.72051 
443 ,83.1197 ,1.52508 ,-0.91614 ,-8.98914 
444 ,83.2957 ,1.52679 ,-0.93325 ,-9.15703 
445 ,83.4718 ,1.52857 ,-0.93325 ,-9.15703 
446 ,83.6640 ,1.53055 ,-0.92640 ,-9.08988 
447 ,83.8563 ,1.53245 ,-0.96063 ,-9.42566 
448 ,84.0482 ,1.53427 ,-0.96063 ,-9.42566 
449 ,84.2406 ,1.53622 ,-0.97431 ,-9.55997 
450 ,84.4327 ,1.53814 ,-0.96063 ,-9.42566 
451 ,84.6244 ,1.54007 ,-0.98800 ,-9.69429 
452 ,84.8006 ,1.54193 ,-0.99485 ,-9.76144 
453 ,84.9766 ,1.54364 ,-1.01538 ,-9.96291 
454 ,85.1530 ,1.54539 ,-1.01538 ,-9.96291 
455 ,85.3290 ,1.54722 ,-1.00854 ,-9.89576 
456 ,85.5051 ,1.54896 ,-1.02222 ,-10.03007 
457 ,85.7132 ,1.55091 ,-1.02907 ,-10.09723 
458 ,85.9052 ,1.55297 ,-1.05302 ,-10.33227 
459 ,86.1134 ,1.55492 ,-1.03934 ,-10.19796 
460 ,86.2894 ,1.55679 ,-1.06329 ,-10.43301 
461 ,86.4652 ,1.55859 ,-1.06671 ,-10.46659 
462 ,86.6412 ,1.56028 ,-1.07356 ,-10.53374 
