Data stamp = , 22-04-2022 02:07:44 082

Calibration Values: 
Slope = , 26.54 , g/V 
Offset Voltage at no contact = , -0.501760 , V 

No , Time , Stage Position ,   Mass , Force 
   ,  (s) ,      (mm)      ,   (g)  , (mN)  

1 ,0.0000 ,0.69936 ,5.34985 ,52.49273 
2 ,0.2136 ,0.69944 ,5.34643 ,52.45915 
3 ,0.7743 ,0.70142 ,5.33616 ,52.35841 
4 ,0.9665 ,0.70374 ,5.35327 ,52.52631 
5 ,1.1584 ,0.70565 ,5.34643 ,52.45915 
6 ,1.3181 ,0.70738 ,5.34985 ,52.49273 
7 ,1.4946 ,0.70897 ,5.35327 ,52.52631 
8 ,1.6862 ,0.71092 ,5.34985 ,52.49273 
9 ,1.8632 ,0.71276 ,5.31563 ,52.15694 
10 ,2.0385 ,0.71457 ,5.32932 ,52.29126 
11 ,2.2309 ,0.71640 ,5.31221 ,52.12337 
12 ,2.4229 ,0.71831 ,5.27456 ,51.75401 
13 ,2.6149 ,0.72025 ,5.26087 ,51.61969 
14 ,2.8070 ,0.72215 ,5.26087 ,51.61969 
15 ,2.9992 ,0.72408 ,5.23692 ,51.38464 
16 ,3.1910 ,0.72602 ,5.20612 ,51.08244 
17 ,3.3834 ,0.72790 ,5.18559 ,50.88097 
18 ,3.5589 ,0.72974 ,5.17874 ,50.81381 
19 ,3.7355 ,0.73150 ,5.15821 ,50.61234 
20 ,3.9435 ,0.73350 ,5.13768 ,50.41087 
21 ,4.1517 ,0.73557 ,5.12741 ,50.31014 
22 ,4.3273 ,0.73745 ,5.10688 ,50.10867 
23 ,4.5038 ,0.73917 ,5.09661 ,50.00793 
24 ,4.6794 ,0.74093 ,5.09319 ,49.97436 
25 ,4.8719 ,0.74280 ,5.07950 ,49.84004 
26 ,5.0639 ,0.74474 ,5.05554 ,49.60499 
27 ,5.2401 ,0.74650 ,5.02817 ,49.33637 
28 ,5.4322 ,0.74840 ,5.02817 ,49.33637 
29 ,5.6237 ,0.75028 ,5.00079 ,49.06774 
30 ,5.7997 ,0.75214 ,4.96657 ,48.73196 
31 ,5.9764 ,0.75392 ,4.96315 ,48.69838 
32 ,6.1683 ,0.75580 ,4.95288 ,48.59764 
33 ,6.3445 ,0.75756 ,4.94603 ,48.53049 
34 ,6.5365 ,0.75949 ,4.91866 ,48.26186 
35 ,6.7284 ,0.76133 ,4.90839 ,48.16113 
36 ,6.9047 ,0.76316 ,4.89128 ,47.99324 
37 ,7.1129 ,0.76516 ,4.86390 ,47.72461 
38 ,7.3047 ,0.76713 ,4.85364 ,47.62387 
39 ,7.4807 ,0.76895 ,4.83652 ,47.45598 
40 ,7.6729 ,0.77083 ,4.83310 ,47.42240 
41 ,7.8650 ,0.77266 ,4.80230 ,47.12020 
42 ,8.0411 ,0.77453 ,4.79546 ,47.05304 
43 ,8.2170 ,0.77629 ,4.76808 ,46.78442 
44 ,8.3933 ,0.77804 ,4.75782 ,46.68368 
45 ,8.6170 ,0.78017 ,4.73728 ,46.48221 
46 ,8.7935 ,0.78205 ,4.72702 ,46.38148 
47 ,8.9852 ,0.78392 ,4.71333 ,46.24716 
48 ,9.1776 ,0.78587 ,4.67568 ,45.87780 
49 ,9.3855 ,0.78788 ,4.67568 ,45.87780 
50 ,9.5777 ,0.78976 ,4.64831 ,45.60918 
51 ,9.7537 ,0.79164 ,4.63804 ,45.50844 
52 ,9.9297 ,0.79342 ,4.63462 ,45.47486 
53 ,10.1219 ,0.79530 ,4.61066 ,45.23981 
54 ,10.2977 ,0.79704 ,4.59013 ,45.03835 
55 ,10.4902 ,0.79892 ,4.57644 ,44.90403 
56 ,10.6979 ,0.80106 ,4.54906 ,44.63541 
57 ,10.8903 ,0.80294 ,4.55933 ,44.73614 
58 ,11.0823 ,0.80494 ,4.52511 ,44.40036 
59 ,11.2423 ,0.80663 ,4.50115 ,44.16531 
60 ,11.4345 ,0.80839 ,4.50457 ,44.19889 
61 ,11.6266 ,0.81026 ,4.48062 ,43.96384 
62 ,11.8346 ,0.81243 ,4.46009 ,43.76237 
63 ,12.0108 ,0.81425 ,4.44298 ,43.59448 
64 ,12.1864 ,0.81595 ,4.43271 ,43.49374 
65 ,12.3790 ,0.81785 ,4.40875 ,43.25870 
66 ,12.5710 ,0.81973 ,4.39849 ,43.15796 
67 ,12.7632 ,0.82170 ,4.37111 ,42.88933 
68 ,12.9713 ,0.82369 ,4.36084 ,42.78860 
69 ,13.1635 ,0.82572 ,4.35058 ,42.68786 
70 ,13.3552 ,0.82757 ,4.33347 ,42.51997 
71 ,13.5312 ,0.82944 ,4.31978 ,42.38566 
72 ,13.7235 ,0.83126 ,4.29240 ,42.11703 
73 ,13.8996 ,0.83310 ,4.27871 ,41.98272 
74 ,14.0917 ,0.83493 ,4.26502 ,41.84841 
75 ,14.2836 ,0.83687 ,4.23422 ,41.54620 
76 ,14.4436 ,0.83863 ,4.23080 ,41.51262 
77 ,14.6358 ,0.84040 ,4.20685 ,41.27758 
78 ,14.8277 ,0.84231 ,4.22053 ,41.41189 
79 ,15.0040 ,0.84414 ,4.18974 ,41.10968 
80 ,15.1959 ,0.84611 ,4.16920 ,40.90821 
81 ,15.3721 ,0.84777 ,4.15551 ,40.77390 
82 ,15.5481 ,0.84962 ,4.13156 ,40.53885 
83 ,15.7402 ,0.85150 ,4.12471 ,40.47170 
84 ,15.9320 ,0.85337 ,4.09049 ,40.13591 
85 ,16.1080 ,0.85518 ,4.09391 ,40.16949 
86 ,16.2844 ,0.85694 ,4.08365 ,40.06876 
87 ,16.4924 ,0.85900 ,4.05969 ,39.83371 
88 ,16.6847 ,0.86092 ,4.05969 ,39.83371 
89 ,16.8765 ,0.86286 ,4.00152 ,39.26288 
90 ,17.0688 ,0.86470 ,4.02889 ,39.53150 
91 ,17.2608 ,0.86666 ,3.98783 ,39.12856 
92 ,17.4368 ,0.86848 ,3.96045 ,38.85994 
93 ,17.6449 ,0.87050 ,3.96729 ,38.92709 
94 ,17.8211 ,0.87229 ,3.93650 ,38.62489 
95 ,17.9971 ,0.87401 ,3.91596 ,38.42342 
96 ,18.1733 ,0.87582 ,3.89885 ,38.25553 
97 ,18.3653 ,0.87764 ,3.88858 ,38.15479 
98 ,18.5415 ,0.87946 ,3.88174 ,38.08764 
99 ,18.7335 ,0.88134 ,3.86121 ,37.88617 
100 ,18.9096 ,0.88322 ,3.86121 ,37.88617 
101 ,19.1017 ,0.88507 ,3.81330 ,37.41607 
102 ,19.2935 ,0.88701 ,3.79619 ,37.24818 
103 ,19.4859 ,0.88893 ,3.80303 ,37.31534 
104 ,19.6938 ,0.89095 ,3.77223 ,37.01313 
105 ,19.8860 ,0.89286 ,3.77565 ,37.04671 
106 ,20.0940 ,0.89494 ,3.75512 ,36.84524 
107 ,20.3022 ,0.89692 ,3.72432 ,36.54303 
108 ,20.4942 ,0.89893 ,3.71063 ,36.40872 
109 ,20.6702 ,0.90073 ,3.70721 ,36.37514 
110 ,20.8459 ,0.90253 ,3.69352 ,36.24083 
111 ,21.0383 ,0.90436 ,3.65930 ,35.90505 
112 ,21.2144 ,0.90621 ,3.63877 ,35.70358 
113 ,21.4226 ,0.90825 ,3.61823 ,35.50211 
114 ,21.6147 ,0.91019 ,3.60454 ,35.36779 
115 ,21.8067 ,0.91207 ,3.60797 ,35.40137 
116 ,21.9826 ,0.91386 ,3.58401 ,35.16632 
117 ,22.1591 ,0.91567 ,3.55663 ,34.89770 
118 ,22.3510 ,0.91756 ,3.54979 ,34.83054 
119 ,22.5269 ,0.91934 ,3.53952 ,34.72981 
120 ,22.7031 ,0.92110 ,3.53952 ,34.72981 
121 ,22.9110 ,0.92303 ,3.49846 ,34.32687 
122 ,23.1030 ,0.92510 ,3.49504 ,34.29329 
123 ,23.2950 ,0.92701 ,3.46766 ,34.02466 
124 ,23.4714 ,0.92878 ,3.44713 ,33.82319 
125 ,23.6633 ,0.93063 ,3.42659 ,33.62172 
126 ,23.8395 ,0.93249 ,3.42317 ,33.58814 
127 ,24.0313 ,0.93428 ,3.41633 ,33.52099 
128 ,24.2076 ,0.93619 ,3.39921 ,33.35310 
129 ,24.3997 ,0.93808 ,3.37184 ,33.08447 
130 ,24.5918 ,0.93988 ,3.36499 ,33.01731 
131 ,24.7839 ,0.94192 ,3.34788 ,32.84942 
132 ,24.9759 ,0.94371 ,3.31708 ,32.54722 
133 ,25.1515 ,0.94555 ,3.31366 ,32.51364 
134 ,25.3278 ,0.94731 ,3.30339 ,32.41290 
135 ,25.5363 ,0.94944 ,3.27259 ,32.11070 
136 ,25.7280 ,0.95126 ,3.27602 ,32.14428 
137 ,25.9044 ,0.95310 ,3.26575 ,32.04354 
138 ,26.0805 ,0.95489 ,3.23495 ,31.74134 
139 ,26.2725 ,0.95684 ,3.22468 ,31.64060 
140 ,26.4646 ,0.95861 ,3.20757 ,31.47271 
141 ,26.6566 ,0.96057 ,3.19046 ,31.30482 
142 ,26.8484 ,0.96247 ,3.17335 ,31.13693 
143 ,27.0408 ,0.96436 ,3.16651 ,31.06977 
144 ,27.2325 ,0.96640 ,3.14940 ,30.90188 
145 ,27.4249 ,0.96823 ,3.12886 ,30.70041 
146 ,27.6327 ,0.97032 ,3.10833 ,30.49894 
147 ,27.8090 ,0.97210 ,3.10833 ,30.49894 
148 ,28.0012 ,0.97400 ,3.06384 ,30.06242 
149 ,28.1932 ,0.97594 ,3.06042 ,30.02884 
150 ,28.3691 ,0.97770 ,3.05700 ,29.99527 
151 ,28.5454 ,0.97946 ,3.05015 ,29.92811 
152 ,28.7373 ,0.98139 ,3.00567 ,29.49159 
153 ,28.9295 ,0.98321 ,2.99198 ,29.35728 
154 ,29.1057 ,0.98509 ,2.99540 ,29.39086 
155 ,29.2975 ,0.98701 ,2.96118 ,29.05507 
156 ,29.4577 ,0.98873 ,2.95091 ,28.95434 
157 ,29.6336 ,0.99034 ,2.94064 ,28.85360 
158 ,29.8098 ,0.99216 ,2.93038 ,28.75287 
159 ,29.9860 ,0.99385 ,2.91669 ,28.61856 
160 ,30.1620 ,0.99563 ,2.89616 ,28.41709 
161 ,30.3381 ,0.99745 ,2.86878 ,28.14846 
162 ,30.5303 ,0.99927 ,2.85167 ,27.98057 
163 ,30.7062 ,1.00117 ,2.84482 ,27.91341 
164 ,30.8823 ,1.00286 ,2.84140 ,27.87983 
165 ,31.0583 ,1.00462 ,2.81745 ,27.64479 
166 ,31.2345 ,1.00634 ,2.80718 ,27.54405 
167 ,31.4264 ,1.00818 ,2.79007 ,27.37616 
168 ,31.6025 ,1.01004 ,2.78665 ,27.34258 
169 ,31.7945 ,1.01191 ,2.77296 ,27.20827 
170 ,31.9864 ,1.01379 ,2.75927 ,27.07395 
171 ,32.1628 ,1.01567 ,2.72847 ,26.77175 
172 ,32.3390 ,1.01739 ,2.72505 ,26.73817 
173 ,32.5310 ,1.01924 ,2.71478 ,26.63744 
174 ,32.7231 ,1.02119 ,2.69083 ,26.40239 
175 ,32.8830 ,1.02299 ,2.65660 ,26.06661 
176 ,33.0594 ,1.02460 ,2.65660 ,26.06661 
177 ,33.2511 ,1.02656 ,2.64634 ,25.96587 
178 ,33.4595 ,1.02854 ,2.62923 ,25.79798 
179 ,33.6830 ,1.03068 ,2.60869 ,25.59651 
180 ,33.8597 ,1.03259 ,2.58816 ,25.39504 
181 ,34.0676 ,1.03463 ,2.58474 ,25.36146 
182 ,34.2436 ,1.03648 ,2.56763 ,25.19357 
183 ,34.4515 ,1.03839 ,2.53341 ,24.85779 
184 ,34.6599 ,1.04051 ,2.53683 ,24.89136 
185 ,34.8517 ,1.04247 ,2.52314 ,24.75705 
186 ,35.0601 ,1.04454 ,2.49234 ,24.45485 
187 ,35.2519 ,1.04647 ,2.48550 ,24.38769 
188 ,35.4442 ,1.04839 ,2.46154 ,24.15264 
189 ,35.6362 ,1.05034 ,2.44443 ,23.98475 
190 ,35.8118 ,1.05218 ,2.43759 ,23.91759 
191 ,35.9881 ,1.05389 ,2.43074 ,23.85044 
192 ,36.1805 ,1.05572 ,2.39310 ,23.48108 
193 ,36.3725 ,1.05770 ,2.39994 ,23.54823 
194 ,36.5807 ,1.05963 ,2.35888 ,23.14529 
195 ,36.7726 ,1.06176 ,2.36230 ,23.17887 
196 ,36.9647 ,1.06365 ,2.33150 ,22.87667 
197 ,37.1568 ,1.06555 ,2.32123 ,22.77593 
198 ,37.3485 ,1.06747 ,2.31439 ,22.70877 
199 ,37.5410 ,1.06934 ,2.28359 ,22.40657 
200 ,37.7330 ,1.07127 ,2.27674 ,22.33941 
201 ,37.9088 ,1.07307 ,2.26990 ,22.27226 
202 ,38.0853 ,1.07483 ,2.26648 ,22.23868 
203 ,38.2931 ,1.07689 ,2.22883 ,21.86932 
204 ,38.4855 ,1.07878 ,2.21857 ,21.76858 
205 ,38.6774 ,1.08076 ,2.19119 ,21.49996 
206 ,38.8700 ,1.08267 ,2.19119 ,21.49996 
207 ,39.0613 ,1.08452 ,2.15355 ,21.13059 
208 ,39.2376 ,1.08636 ,2.13986 ,20.99628 
209 ,39.4297 ,1.08824 ,2.13986 ,20.99628 
210 ,39.6059 ,1.09002 ,2.12959 ,20.89555 
211 ,39.7980 ,1.09193 ,2.10564 ,20.66050 
212 ,39.9900 ,1.09382 ,2.09879 ,20.59334 
213 ,40.1661 ,1.09562 ,2.08852 ,20.49261 
214 ,40.3427 ,1.09741 ,2.06115 ,20.22398 
215 ,40.5342 ,1.09933 ,2.03377 ,19.95535 
216 ,40.7103 ,1.10111 ,2.04061 ,20.02251 
217 ,40.8861 ,1.10285 ,2.03719 ,19.98893 
218 ,41.0626 ,1.10467 ,1.98928 ,19.51884 
219 ,41.2385 ,1.10647 ,1.97902 ,19.41810 
220 ,41.4144 ,1.10812 ,1.95848 ,19.21663 
221 ,41.6226 ,1.11007 ,1.96875 ,19.31737 
222 ,41.8143 ,1.11210 ,1.95164 ,19.14948 
223 ,41.9907 ,1.11389 ,1.94137 ,19.04874 
224 ,42.1827 ,1.11579 ,1.90715 ,18.71296 
225 ,42.3749 ,1.11777 ,1.90715 ,18.71296 
226 ,42.5510 ,1.11950 ,1.87977 ,18.44433 
227 ,42.7432 ,1.12144 ,1.86951 ,18.34360 
228 ,42.9511 ,1.12334 ,1.84897 ,18.14213 
229 ,43.1592 ,1.12555 ,1.83186 ,17.97423 
230 ,43.3350 ,1.12730 ,1.80791 ,17.73919 
231 ,43.5430 ,1.12934 ,1.81133 ,17.77276 
232 ,43.7350 ,1.13127 ,1.78737 ,17.53772 
233 ,43.9111 ,1.13319 ,1.78737 ,17.53772 
234 ,44.1031 ,1.13493 ,1.76000 ,17.26909 
235 ,44.3116 ,1.13692 ,1.74289 ,17.10120 
236 ,44.5677 ,1.13952 ,1.72235 ,16.89973 
237 ,44.7762 ,1.14167 ,1.69498 ,16.63110 
238 ,44.9681 ,1.14358 ,1.70866 ,16.76542 
239 ,45.1602 ,1.14554 ,1.66418 ,16.32890 
240 ,45.3685 ,1.14759 ,1.67102 ,16.39605 
241 ,45.5602 ,1.14957 ,1.64022 ,16.09385 
242 ,45.7522 ,1.15145 ,1.63680 ,16.06027 
243 ,45.9444 ,1.15341 ,1.62311 ,15.92596 
244 ,46.1365 ,1.15526 ,1.59231 ,15.62375 
245 ,46.3286 ,1.15717 ,1.59573 ,15.65733 
246 ,46.5523 ,1.15933 ,1.56151 ,15.32155 
247 ,46.7447 ,1.16138 ,1.56151 ,15.32155 
248 ,46.9366 ,1.16330 ,1.52387 ,14.95219 
249 ,47.1289 ,1.16514 ,1.51018 ,14.81787 
250 ,47.3050 ,1.16701 ,1.51018 ,14.81787 
251 ,47.4809 ,1.16887 ,1.48965 ,14.61640 
252 ,47.6567 ,1.17053 ,1.46911 ,14.41493 
253 ,47.8331 ,1.17231 ,1.45200 ,14.24704 
254 ,48.0573 ,1.17441 ,1.44174 ,14.14631 
255 ,48.2655 ,1.17655 ,1.44174 ,14.14631 
256 ,48.4571 ,1.17846 ,1.41094 ,13.84410 
257 ,48.6335 ,1.18031 ,1.40067 ,13.74337 
258 ,48.8254 ,1.18225 ,1.37671 ,13.50832 
259 ,49.0015 ,1.18394 ,1.38698 ,13.60906 
260 ,49.1775 ,1.18571 ,1.35960 ,13.34043 
261 ,49.3534 ,1.18746 ,1.33565 ,13.10538 
262 ,49.7059 ,1.19095 ,1.33223 ,13.07180 
263 ,49.8819 ,1.19276 ,1.31854 ,12.93749 
264 ,50.0581 ,1.19448 ,1.30485 ,12.80318 
265 ,50.2500 ,1.19646 ,1.27747 ,12.53455 
266 ,50.4262 ,1.19821 ,1.28089 ,12.56813 
267 ,50.6182 ,1.20017 ,1.25694 ,12.33308 
268 ,50.7943 ,1.20193 ,1.25694 ,12.33308 
269 ,50.9703 ,1.20364 ,1.22272 ,11.99730 
270 ,51.1625 ,1.20547 ,1.22614 ,12.03088 
271 ,51.3705 ,1.20756 ,1.21587 ,11.93014 
272 ,51.5465 ,1.20941 ,1.19876 ,11.76225 
273 ,51.7387 ,1.21126 ,1.17138 ,11.49362 
274 ,51.9306 ,1.21318 ,1.14743 ,11.25857 
275 ,52.1229 ,1.21514 ,1.14401 ,11.22500 
276 ,52.3310 ,1.21707 ,1.13374 ,11.12426 
277 ,52.5226 ,1.21922 ,1.10294 ,10.82206 
278 ,52.7147 ,1.22099 ,1.08925 ,10.68774 
279 ,52.9066 ,1.22295 ,1.08583 ,10.65416 
280 ,53.0826 ,1.22481 ,1.06187 ,10.41912 
281 ,53.2588 ,1.22652 ,1.06187 ,10.41912 
282 ,53.4510 ,1.22841 ,1.06872 ,10.48627 
283 ,53.6755 ,1.23070 ,1.02081 ,10.01618 
284 ,53.8680 ,1.23263 ,1.02081 ,10.01618 
285 ,54.0596 ,1.23455 ,1.01396 ,9.94902 
286 ,54.2355 ,1.23623 ,0.98659 ,9.68039 
287 ,54.4275 ,1.23822 ,0.99001 ,9.71397 
288 ,54.6040 ,1.24000 ,0.97632 ,9.57966 
289 ,54.7959 ,1.24187 ,0.94552 ,9.27745 
290 ,54.9716 ,1.24363 ,0.92499 ,9.07598 
291 ,55.1636 ,1.24547 ,0.93183 ,9.14314 
292 ,55.3558 ,1.24741 ,0.91130 ,8.94167 
293 ,55.5804 ,1.24974 ,0.88392 ,8.67305 
294 ,55.7882 ,1.25187 ,0.88734 ,8.70662 
295 ,55.9646 ,1.25363 ,0.85997 ,8.43800 
296 ,56.1563 ,1.25544 ,0.84628 ,8.30368 
297 ,56.3325 ,1.25730 ,0.85654 ,8.40442 
298 ,56.5086 ,1.25907 ,0.82917 ,8.13579 
299 ,56.7008 ,1.26090 ,0.80521 ,7.90074 
300 ,56.8923 ,1.26278 ,0.78468 ,7.69927 
301 ,57.0849 ,1.26471 ,0.79152 ,7.76643 
302 ,57.2928 ,1.26681 ,0.76757 ,7.53138 
303 ,57.4851 ,1.26872 ,0.76757 ,7.53138 
304 ,57.6770 ,1.27071 ,0.73335 ,7.19560 
305 ,57.8530 ,1.27245 ,0.71624 ,7.02771 
306 ,58.0449 ,1.27436 ,0.73335 ,7.19560 
307 ,58.2370 ,1.27621 ,0.69570 ,6.82624 
308 ,58.4290 ,1.27819 ,0.69228 ,6.79266 
309 ,58.6055 ,1.27998 ,0.68201 ,6.69193 
310 ,58.8135 ,1.28201 ,0.66833 ,6.55761 
311 ,58.9896 ,1.28383 ,0.65464 ,6.42330 
312 ,59.1657 ,1.28556 ,0.64095 ,6.28899 
313 ,59.3576 ,1.28747 ,0.62726 ,6.15467 
314 ,59.5334 ,1.28927 ,0.59988 ,5.88605 
315 ,59.7100 ,1.29097 ,0.59646 ,5.85247 
316 ,59.9339 ,1.29310 ,0.58962 ,5.78531 
317 ,60.1101 ,1.29501 ,0.55882 ,5.48311 
318 ,60.2862 ,1.29679 ,0.55539 ,5.44953 
319 ,60.4781 ,1.29870 ,0.52802 ,5.18090 
320 ,60.6706 ,1.30056 ,0.52117 ,5.11375 
321 ,60.8629 ,1.30253 ,0.52459 ,5.14732 
322 ,61.0706 ,1.30447 ,0.51433 ,5.04659 
323 ,61.2785 ,1.30666 ,0.48695 ,4.77796 
324 ,61.4542 ,1.30849 ,0.47668 ,4.67723 
325 ,61.6304 ,1.31028 ,0.47668 ,4.67723 
326 ,61.8227 ,1.31203 ,0.45273 ,4.44218 
327 ,62.0309 ,1.31413 ,0.44246 ,4.34144 
328 ,62.2229 ,1.31607 ,0.42193 ,4.13997 
329 ,62.3990 ,1.31791 ,0.41509 ,4.07282 
330 ,62.5911 ,1.31970 ,0.38771 ,3.80419 
331 ,62.7988 ,1.32186 ,0.37402 ,3.66988 
332 ,62.9752 ,1.32364 ,0.36033 ,3.53557 
333 ,63.1670 ,1.32549 ,0.36718 ,3.60272 
334 ,63.3435 ,1.32732 ,0.35006 ,3.43483 
335 ,63.5356 ,1.32923 ,0.32611 ,3.19978 
336 ,63.7436 ,1.33120 ,0.32611 ,3.19978 
337 ,63.9356 ,1.33324 ,0.30558 ,2.99831 
338 ,64.1437 ,1.33522 ,0.31584 ,3.09905 
339 ,64.3198 ,1.33710 ,0.28504 ,2.79684 
340 ,64.5278 ,1.33907 ,0.27478 ,2.69611 
341 ,64.7355 ,1.34116 ,0.25424 ,2.49464 
342 ,64.9115 ,1.34299 ,0.25424 ,2.49464 
343 ,65.0881 ,1.34484 ,0.23029 ,2.25959 
344 ,65.2802 ,1.34672 ,0.23713 ,2.32675 
345 ,65.4723 ,1.34852 ,0.22687 ,2.22601 
346 ,65.6644 ,1.35053 ,0.22002 ,2.15885 
347 ,65.8563 ,1.35247 ,0.18922 ,1.85665 
348 ,66.0481 ,1.35432 ,0.17553 ,1.72234 
349 ,66.2404 ,1.35620 ,0.19607 ,1.92381 
350 ,66.4164 ,1.35809 ,0.15842 ,1.55445 
351 ,66.5925 ,1.35980 ,0.14816 ,1.45371 
352 ,66.7688 ,1.36155 ,0.14473 ,1.42013 
353 ,66.9448 ,1.36332 ,0.13105 ,1.28582 
354 ,67.1528 ,1.36523 ,0.10709 ,1.05077 
355 ,67.3449 ,1.36730 ,0.10709 ,1.05077 
356 ,67.5211 ,1.36914 ,0.10367 ,1.01719 
357 ,67.7290 ,1.37114 ,0.06945 ,0.68141 
358 ,67.9371 ,1.37316 ,0.05918 ,0.58067 
359 ,68.1609 ,1.37536 ,0.04891 ,0.47994 
360 ,68.3534 ,1.37735 ,0.02838 ,0.27847 
361 ,68.5453 ,1.37933 ,0.02154 ,0.21131 
362 ,68.7216 ,1.38109 ,0.01469 ,0.14416 
363 ,68.9135 ,1.38294 ,-0.01269 ,-0.12447 
364 ,69.0897 ,1.38481 ,-0.02637 ,-0.25878 
365 ,69.2814 ,1.38670 ,-0.01953 ,-0.19163 
366 ,69.4574 ,1.38848 ,-0.04691 ,-0.46025 
367 ,69.6339 ,1.39022 ,-0.06744 ,-0.66172 
368 ,69.8419 ,1.39223 ,-0.06402 ,-0.62814 
369 ,70.0178 ,1.39406 ,-0.07771 ,-0.76246 
370 ,70.1942 ,1.39580 ,-0.09824 ,-0.96393 
371 ,70.3857 ,1.39767 ,-0.09140 ,-0.89677 
372 ,70.5623 ,1.39946 ,-0.10166 ,-0.99751 
373 ,70.7703 ,1.40147 ,-0.11877 ,-1.16540 
374 ,70.9463 ,1.40332 ,-0.12562 ,-1.23255 
375 ,71.1382 ,1.40530 ,-0.14615 ,-1.43402 
376 ,71.3306 ,1.40714 ,-0.16668 ,-1.63549 
377 ,71.5223 ,1.40906 ,-0.16668 ,-1.63549 
378 ,71.7148 ,1.41102 ,-0.19748 ,-1.93770 
379 ,71.9225 ,1.41293 ,-0.21117 ,-2.07201 
380 ,72.1145 ,1.41494 ,-0.22144 ,-2.17275 
381 ,72.2908 ,1.41679 ,-0.23170 ,-2.27348 
382 ,72.4826 ,1.41861 ,-0.21802 ,-2.13917 
383 ,72.6910 ,1.42061 ,-0.23170 ,-2.27348 
384 ,72.8832 ,1.42268 ,-0.24539 ,-2.40779 
385 ,73.0590 ,1.42445 ,-0.27277 ,-2.67642 
386 ,73.2352 ,1.42619 ,-0.29330 ,-2.87789 
387 ,73.4112 ,1.42797 ,-0.30357 ,-2.97863 
388 ,73.5709 ,1.42967 ,-0.29673 ,-2.91147 
389 ,73.7636 ,1.43144 ,-0.30357 ,-2.97863 
390 ,73.9556 ,1.43340 ,-0.32752 ,-3.21367 
391 ,74.1636 ,1.43544 ,-0.32752 ,-3.21367 
392 ,74.3398 ,1.43722 ,-0.34806 ,-3.41514 
393 ,74.5158 ,1.43906 ,-0.35490 ,-3.48230 
394 ,74.6918 ,1.44074 ,-0.36175 ,-3.54946 
395 ,74.8684 ,1.44251 ,-0.37201 ,-3.65019 
396 ,75.0440 ,1.44435 ,-0.39939 ,-3.91882 
397 ,75.2202 ,1.44606 ,-0.39597 ,-3.88524 
398 ,75.4120 ,1.44788 ,-0.40623 ,-3.98597 
399 ,75.6041 ,1.44986 ,-0.40623 ,-3.98597 
400 ,75.7801 ,1.45162 ,-0.41650 ,-4.08671 
401 ,75.9720 ,1.45349 ,-0.44388 ,-4.35534 
402 ,76.1481 ,1.45533 ,-0.44388 ,-4.35534 
403 ,76.3242 ,1.45707 ,-0.44046 ,-4.32176 
404 ,76.5163 ,1.45894 ,-0.46441 ,-4.55681 
405 ,76.7087 ,1.46100 ,-0.47468 ,-4.65754 
406 ,76.9326 ,1.46301 ,-0.49179 ,-4.82543 
407 ,77.1249 ,1.46508 ,-0.47468 ,-4.65754 
408 ,77.3328 ,1.46710 ,-0.50206 ,-4.92617 
409 ,77.5091 ,1.46895 ,-0.51574 ,-5.06048 
410 ,77.7010 ,1.47079 ,-0.52601 ,-5.16121 
411 ,77.8930 ,1.47270 ,-0.52943 ,-5.19479 
412 ,78.0692 ,1.47454 ,-0.53628 ,-5.26195 
413 ,78.2615 ,1.47648 ,-0.54312 ,-5.32911 
414 ,78.4533 ,1.47834 ,-0.56708 ,-5.56415 
415 ,78.6455 ,1.48021 ,-0.58419 ,-5.73205 
416 ,78.8375 ,1.48216 ,-0.60130 ,-5.89994 
417 ,79.0138 ,1.48398 ,-0.60814 ,-5.96709 
418 ,79.2217 ,1.48598 ,-0.60814 ,-5.96709 
419 ,79.4134 ,1.48790 ,-0.61499 ,-6.03425 
420 ,79.5899 ,1.48974 ,-0.63894 ,-6.26930 
421 ,79.7821 ,1.49162 ,-0.63552 ,-6.23572 
422 ,79.9736 ,1.49350 ,-0.65947 ,-6.47077 
423 ,80.1502 ,1.49538 ,-0.68001 ,-6.67224 
424 ,80.3739 ,1.49751 ,-0.69370 ,-6.80655 
425 ,80.5662 ,1.49942 ,-0.68001 ,-6.67224 
426 ,80.7424 ,1.50127 ,-0.68343 ,-6.70582 
427 ,80.9345 ,1.50309 ,-0.72107 ,-7.07518 
428 ,81.1262 ,1.50506 ,-0.72450 ,-7.10876 
429 ,81.3026 ,1.50685 ,-0.72450 ,-7.10876 
430 ,81.5106 ,1.50883 ,-0.75187 ,-7.37738 
431 ,81.6865 ,1.51067 ,-0.75187 ,-7.37738 
432 ,81.8632 ,1.51245 ,-0.76214 ,-7.47812 
433 ,82.0547 ,1.51439 ,-0.79294 ,-7.78032 
434 ,82.2468 ,1.51622 ,-0.78610 ,-7.71317 
435 ,82.4230 ,1.51818 ,-0.80321 ,-7.88106 
436 ,82.5992 ,1.51982 ,-0.81005 ,-7.94821 
437 ,82.7753 ,1.52160 ,-0.83401 ,-8.18326 
438 ,82.9514 ,1.52338 ,-0.85112 ,-8.35115 
439 ,83.1433 ,1.52519 ,-0.83743 ,-8.21684 
440 ,83.3194 ,1.52701 ,-0.85112 ,-8.35115 
441 ,83.5115 ,1.52895 ,-0.87165 ,-8.55262 
442 ,83.6875 ,1.53067 ,-0.88876 ,-8.72051 
443 ,83.8794 ,1.53263 ,-0.87165 ,-8.55262 
444 ,84.0875 ,1.53454 ,-0.88534 ,-8.68694 
445 ,84.2954 ,1.53669 ,-0.91956 ,-9.02272 
446 ,84.4878 ,1.53861 ,-0.91272 ,-8.95556 
447 ,84.6639 ,1.54046 ,-0.92298 ,-9.05630 
448 ,84.8400 ,1.54224 ,-0.94009 ,-9.22419 
449 ,85.0319 ,1.54411 ,-0.96405 ,-9.45924 
450 ,85.2559 ,1.54625 ,-0.96747 ,-9.49282 
451 ,85.4322 ,1.54810 ,-0.98116 ,-9.62713 
452 ,85.6082 ,1.54985 ,-0.98458 ,-9.66071 
453 ,85.7841 ,1.55164 ,-0.98116 ,-9.62713 
454 ,85.9766 ,1.55358 ,-1.00511 ,-9.86218 
455 ,86.1685 ,1.55542 ,-0.99485 ,-9.76144 
456 ,86.3768 ,1.55749 ,-1.04276 ,-10.23154 
457 ,86.5527 ,1.55940 ,-1.02907 ,-10.09723 
458 ,86.7289 ,1.56110 ,-1.04276 ,-10.23154 
459 ,86.9210 ,1.56292 ,-1.04960 ,-10.29869 
460 ,87.1129 ,1.56493 ,-1.05987 ,-10.39943 
461 ,87.2891 ,1.56668 ,-1.07014 ,-10.50016 
462 ,87.4653 ,1.56842 ,-1.06329 ,-10.43301 
