Data stamp = , 22-04-2022 06:46:41 781

Calibration Values: 
Slope = , 26.54 , g/V 
Offset Voltage at no contact = , -0.501760 , V 

No , Time , Stage Position ,   Mass , Force 
   ,  (s) ,      (mm)      ,   (g)  , (mN)  

1 ,0.0000 ,0.69939 ,5.31563 ,52.15694 
2 ,0.2151 ,0.69950 ,5.31563 ,52.15694 
3 ,0.5356 ,0.70034 ,5.32589 ,52.25768 
4 ,0.7438 ,0.70189 ,5.31563 ,52.15694 
5 ,0.9678 ,0.70369 ,5.31905 ,52.19052 
6 ,1.1598 ,0.70572 ,5.30878 ,52.08979 
7 ,1.3358 ,0.70745 ,5.30194 ,52.02263 
8 ,1.5121 ,0.70938 ,5.32589 ,52.25768 
9 ,1.6881 ,0.71105 ,5.31905 ,52.19052 
10 ,1.8798 ,0.71295 ,5.28825 ,51.88832 
11 ,2.0722 ,0.71483 ,5.29852 ,51.98905 
12 ,2.2645 ,0.71686 ,5.28483 ,51.85474 
13 ,2.4562 ,0.71876 ,5.24718 ,51.48538 
14 ,2.6325 ,0.72044 ,5.24376 ,51.45180 
15 ,2.8247 ,0.72236 ,5.22323 ,51.25033 
16 ,3.0162 ,0.72429 ,5.19585 ,50.98170 
17 ,3.1923 ,0.72610 ,5.19243 ,50.94813 
18 ,3.3690 ,0.72783 ,5.17874 ,50.81381 
19 ,3.5607 ,0.72977 ,5.15136 ,50.54519 
20 ,3.7367 ,0.73155 ,5.14452 ,50.47803 
21 ,3.9130 ,0.73330 ,5.12399 ,50.27656 
22 ,4.1050 ,0.73516 ,5.11372 ,50.17583 
23 ,4.3132 ,0.73719 ,5.08977 ,49.94078 
24 ,4.5052 ,0.73924 ,5.06923 ,49.73931 
25 ,4.6814 ,0.74098 ,5.05212 ,49.57142 
26 ,4.8733 ,0.74293 ,5.03501 ,49.40352 
27 ,5.0495 ,0.74462 ,5.03501 ,49.40352 
28 ,5.2255 ,0.74644 ,4.99394 ,49.00058 
29 ,5.4175 ,0.74825 ,4.98368 ,48.89985 
30 ,5.6092 ,0.75012 ,4.96999 ,48.76554 
31 ,5.7858 ,0.75201 ,4.96315 ,48.69838 
32 ,5.9778 ,0.75385 ,4.92208 ,48.29544 
33 ,6.1540 ,0.75570 ,4.91181 ,48.19471 
34 ,6.3456 ,0.75755 ,4.90497 ,48.12755 
35 ,6.5381 ,0.75952 ,4.87759 ,47.85892 
36 ,6.7136 ,0.76134 ,4.88101 ,47.89250 
37 ,6.8903 ,0.76306 ,4.85021 ,47.59030 
38 ,7.0823 ,0.76491 ,4.81599 ,47.25451 
39 ,7.2581 ,0.76683 ,4.79888 ,47.08662 
40 ,7.4344 ,0.76847 ,4.78861 ,46.98589 
41 ,7.6422 ,0.77051 ,4.77150 ,46.81800 
42 ,7.8186 ,0.77229 ,4.75097 ,46.61653 
43 ,8.0105 ,0.77424 ,4.75782 ,46.68368 
44 ,8.2027 ,0.77615 ,4.73044 ,46.41506 
45 ,8.3948 ,0.77799 ,4.71333 ,46.24716 
46 ,8.5705 ,0.77984 ,4.69622 ,46.07927 
47 ,8.7468 ,0.78156 ,4.70306 ,46.14643 
48 ,8.9549 ,0.78367 ,4.67226 ,45.84422 
49 ,9.1311 ,0.78543 ,4.64146 ,45.54202 
50 ,9.3072 ,0.78724 ,4.65173 ,45.64275 
51 ,9.4832 ,0.78900 ,4.60382 ,45.17266 
52 ,9.6754 ,0.79083 ,4.60040 ,45.13908 
53 ,9.8514 ,0.79263 ,4.59355 ,45.07192 
54 ,10.0275 ,0.79441 ,4.57644 ,44.90403 
55 ,10.2195 ,0.79631 ,4.54906 ,44.63541 
56 ,10.4114 ,0.79825 ,4.53537 ,44.50109 
57 ,10.6036 ,0.80011 ,4.52511 ,44.40036 
58 ,10.7957 ,0.80208 ,4.49773 ,44.13173 
59 ,10.9877 ,0.80405 ,4.48062 ,43.96384 
60 ,11.1959 ,0.80601 ,4.46009 ,43.76237 
61 ,11.3880 ,0.80792 ,4.46351 ,43.79595 
62 ,11.5797 ,0.80983 ,4.42929 ,43.46016 
63 ,11.7562 ,0.81165 ,4.40875 ,43.25870 
64 ,11.9482 ,0.81356 ,4.42244 ,43.39301 
65 ,12.1238 ,0.81536 ,4.39507 ,43.12438 
66 ,12.2999 ,0.81718 ,4.36084 ,42.78860 
67 ,12.4920 ,0.81896 ,4.35058 ,42.68786 
68 ,12.6521 ,0.82078 ,4.34716 ,42.65429 
69 ,12.8282 ,0.82246 ,4.33689 ,42.55355 
70 ,13.0046 ,0.82416 ,4.32662 ,42.45282 
71 ,13.1808 ,0.82594 ,4.29924 ,42.18419 
72 ,13.3728 ,0.82779 ,4.28898 ,42.08345 
73 ,13.5810 ,0.82990 ,4.26845 ,41.88198 
74 ,13.7729 ,0.83174 ,4.24107 ,41.61336 
75 ,13.9810 ,0.83377 ,4.22053 ,41.41189 
76 ,14.1571 ,0.83568 ,4.20685 ,41.27758 
77 ,14.3493 ,0.83753 ,4.19658 ,41.17684 
78 ,14.5413 ,0.83954 ,4.18631 ,41.07611 
79 ,14.7332 ,0.84137 ,4.15551 ,40.77390 
80 ,14.9093 ,0.84323 ,4.15209 ,40.74032 
81 ,15.1015 ,0.84508 ,4.13156 ,40.53885 
82 ,15.2936 ,0.84697 ,4.11445 ,40.37096 
83 ,15.4698 ,0.84881 ,4.09049 ,40.13591 
84 ,15.6456 ,0.85060 ,4.07338 ,39.96802 
85 ,15.8214 ,0.85234 ,4.06996 ,39.93444 
86 ,16.0140 ,0.85419 ,4.04600 ,39.69940 
87 ,16.2060 ,0.85618 ,4.04258 ,39.66582 
88 ,16.3981 ,0.85812 ,4.00836 ,39.33003 
89 ,16.5742 ,0.85986 ,3.99125 ,39.16214 
90 ,16.7659 ,0.86175 ,3.98441 ,39.09499 
91 ,16.9418 ,0.86350 ,3.97756 ,39.02783 
92 ,17.1183 ,0.86529 ,3.94676 ,38.72562 
93 ,17.3105 ,0.86723 ,3.93307 ,38.59131 
94 ,17.5024 ,0.86910 ,3.91938 ,38.45700 
95 ,17.6946 ,0.87096 ,3.89885 ,38.25553 
96 ,17.9024 ,0.87309 ,3.88858 ,38.15479 
97 ,18.0944 ,0.87499 ,3.86121 ,37.88617 
98 ,18.2544 ,0.87675 ,3.85094 ,37.78543 
99 ,18.4305 ,0.87835 ,3.83041 ,37.58396 
100 ,18.6068 ,0.88022 ,3.82014 ,37.48323 
101 ,18.8146 ,0.88221 ,3.80303 ,37.31534 
102 ,18.9908 ,0.88402 ,3.78592 ,37.14744 
103 ,19.1831 ,0.88586 ,3.77908 ,37.08029 
104 ,19.3913 ,0.88796 ,3.75512 ,36.84524 
105 ,19.5833 ,0.88993 ,3.73801 ,36.67735 
106 ,19.7595 ,0.89172 ,3.72774 ,36.57661 
107 ,19.9514 ,0.89353 ,3.71063 ,36.40872 
108 ,20.1431 ,0.89557 ,3.68325 ,36.14010 
109 ,20.3197 ,0.89734 ,3.67299 ,36.03936 
110 ,20.5117 ,0.89920 ,3.64903 ,35.80431 
111 ,20.7038 ,0.90113 ,3.64561 ,35.77073 
112 ,20.8799 ,0.90290 ,3.62850 ,35.60284 
113 ,21.0722 ,0.90476 ,3.60112 ,35.33422 
114 ,21.2640 ,0.90676 ,3.59428 ,35.26706 
115 ,21.4400 ,0.90852 ,3.58059 ,35.13275 
116 ,21.6159 ,0.91024 ,3.54979 ,34.83054 
117 ,21.7919 ,0.91204 ,3.54637 ,34.79696 
118 ,21.9685 ,0.91376 ,3.54295 ,34.76338 
119 ,22.1443 ,0.91558 ,3.50872 ,34.42760 
120 ,22.3204 ,0.91725 ,3.50188 ,34.36045 
121 ,22.4965 ,0.91900 ,3.48477 ,34.19255 
122 ,22.7206 ,0.92113 ,3.47108 ,34.05824 
123 ,22.8965 ,0.92303 ,3.44713 ,33.82319 
124 ,23.0887 ,0.92501 ,3.43686 ,33.72246 
125 ,23.2808 ,0.92683 ,3.41975 ,33.55457 
126 ,23.4889 ,0.92887 ,3.40264 ,33.38667 
127 ,23.6968 ,0.93094 ,3.37184 ,33.08447 
128 ,23.8733 ,0.93278 ,3.35130 ,32.88300 
129 ,24.0652 ,0.93476 ,3.34104 ,32.78227 
130 ,24.2733 ,0.93671 ,3.31366 ,32.51364 
131 ,24.4493 ,0.93861 ,3.32735 ,32.64795 
132 ,24.6253 ,0.94036 ,3.30339 ,32.41290 
133 ,24.8174 ,0.94215 ,3.29655 ,32.34575 
134 ,25.0094 ,0.94409 ,3.26917 ,32.07712 
135 ,25.2016 ,0.94609 ,3.25548 ,31.94281 
136 ,25.3776 ,0.94780 ,3.22811 ,31.67418 
137 ,25.5538 ,0.94963 ,3.20415 ,31.43913 
138 ,25.7457 ,0.95149 ,3.21442 ,31.53987 
139 ,25.9219 ,0.95331 ,3.19731 ,31.37198 
140 ,26.1140 ,0.95519 ,3.17335 ,31.13693 
141 ,26.3061 ,0.95710 ,3.16993 ,31.10335 
142 ,26.4979 ,0.95900 ,3.14255 ,30.83472 
143 ,26.6903 ,0.96094 ,3.12202 ,30.63325 
144 ,26.8823 ,0.96292 ,3.11518 ,30.56610 
145 ,27.0742 ,0.96481 ,3.06384 ,30.06242 
146 ,27.2665 ,0.96672 ,3.08780 ,30.29747 
147 ,27.4586 ,0.96862 ,3.04331 ,29.86095 
148 ,27.6342 ,0.97040 ,3.03304 ,29.76022 
149 ,27.8107 ,0.97215 ,3.02620 ,29.69306 
150 ,27.9869 ,0.97395 ,3.01593 ,29.59233 
151 ,28.1789 ,0.97576 ,2.98855 ,29.32370 
152 ,28.3547 ,0.97766 ,2.96802 ,29.12223 
153 ,28.5471 ,0.97938 ,2.95091 ,28.95434 
154 ,28.7230 ,0.98134 ,2.93380 ,28.78645 
155 ,28.8831 ,0.98299 ,2.92696 ,28.71929 
156 ,29.0592 ,0.98468 ,2.90985 ,28.55140 
157 ,29.2352 ,0.98639 ,2.88247 ,28.28277 
158 ,29.4274 ,0.98825 ,2.89616 ,28.41709 
159 ,29.6194 ,0.99019 ,2.87905 ,28.24919 
160 ,29.8115 ,0.99211 ,2.84825 ,27.94699 
161 ,29.9876 ,0.99392 ,2.84825 ,27.94699 
162 ,30.1798 ,0.99573 ,2.82771 ,27.74552 
163 ,30.3718 ,0.99770 ,2.80034 ,27.47689 
164 ,30.5479 ,0.99948 ,2.78322 ,27.30900 
165 ,30.7559 ,1.00152 ,2.75585 ,27.04038 
166 ,30.9480 ,1.00345 ,2.75585 ,27.04038 
167 ,31.1558 ,1.00552 ,2.72505 ,26.73817 
168 ,31.3322 ,1.00743 ,2.71478 ,26.63744 
169 ,31.5242 ,1.00926 ,2.71478 ,26.63744 
170 ,31.7001 ,1.01106 ,2.69425 ,26.43597 
171 ,31.8920 ,1.01299 ,2.66345 ,26.13376 
172 ,32.0686 ,1.01474 ,2.65660 ,26.06661 
173 ,32.2606 ,1.01662 ,2.65318 ,26.03303 
174 ,32.4523 ,1.01858 ,2.61212 ,25.63009 
175 ,32.6448 ,1.02041 ,2.60869 ,25.59651 
176 ,32.8367 ,1.02233 ,2.58474 ,25.36146 
177 ,33.0128 ,1.02421 ,2.58474 ,25.36146 
178 ,33.1890 ,1.02593 ,2.55736 ,25.09283 
179 ,33.3807 ,1.02780 ,2.54367 ,24.95852 
180 ,33.5732 ,1.02966 ,2.53341 ,24.85779 
181 ,33.7659 ,1.03161 ,2.53683 ,24.89136 
182 ,33.9412 ,1.03348 ,2.49234 ,24.45485 
183 ,34.1170 ,1.03526 ,2.49576 ,24.48842 
184 ,34.3253 ,1.03723 ,2.47523 ,24.28696 
185 ,34.5172 ,1.03914 ,2.45127 ,24.05191 
186 ,34.7094 ,1.04110 ,2.43759 ,23.91759 
187 ,34.8854 ,1.04287 ,2.42732 ,23.81686 
188 ,35.0613 ,1.04466 ,2.42390 ,23.78328 
189 ,35.2536 ,1.04653 ,2.39310 ,23.48108 
190 ,35.4456 ,1.04846 ,2.38625 ,23.41392 
191 ,35.6219 ,1.05026 ,2.37599 ,23.31318 
192 ,35.7979 ,1.05202 ,2.34519 ,23.01098 
193 ,36.0058 ,1.05397 ,2.33834 ,22.94382 
194 ,36.1816 ,1.05581 ,2.32123 ,22.77593 
195 ,36.3742 ,1.05768 ,2.30412 ,22.60804 
196 ,36.5661 ,1.05963 ,2.28701 ,22.44015 
197 ,36.7584 ,1.06155 ,2.25621 ,22.13794 
198 ,36.9343 ,1.06340 ,2.25279 ,22.10437 
199 ,37.1265 ,1.06527 ,2.23568 ,21.93647 
200 ,37.3024 ,1.06711 ,2.20488 ,21.63427 
201 ,37.4786 ,1.06885 ,2.20830 ,21.66785 
202 ,37.6543 ,1.07062 ,2.19461 ,21.53353 
203 ,37.8464 ,1.07241 ,2.18092 ,21.39922 
204 ,38.0228 ,1.07428 ,2.16381 ,21.23133 
205 ,38.2148 ,1.07607 ,2.13301 ,20.92912 
206 ,38.3908 ,1.07805 ,2.12959 ,20.89555 
207 ,38.5990 ,1.07983 ,2.10221 ,20.62692 
208 ,38.7750 ,1.08178 ,2.09537 ,20.55976 
209 ,38.9511 ,1.08361 ,2.10221 ,20.62692 
210 ,39.1592 ,1.08553 ,2.06115 ,20.22398 
211 ,39.3669 ,1.08763 ,2.05773 ,20.19040 
212 ,39.5594 ,1.08952 ,2.02350 ,19.85462 
213 ,39.7354 ,1.09137 ,2.00639 ,19.68673 
214 ,39.9113 ,1.09312 ,2.00297 ,19.65315 
215 ,40.0876 ,1.09493 ,2.01324 ,19.75388 
216 ,40.2795 ,1.09672 ,1.98586 ,19.48526 
217 ,40.4714 ,1.09865 ,1.96533 ,19.28379 
218 ,40.6639 ,1.10057 ,1.95164 ,19.14948 
219 ,40.8399 ,1.10245 ,1.94479 ,19.08232 
220 ,41.0159 ,1.10419 ,1.91742 ,18.81369 
221 ,41.2238 ,1.10623 ,1.91057 ,18.74654 
222 ,41.4003 ,1.10803 ,1.89004 ,18.54507 
223 ,41.5922 ,1.10987 ,1.86608 ,18.31002 
224 ,41.7687 ,1.11168 ,1.85240 ,18.17570 
225 ,41.9605 ,1.11357 ,1.83871 ,18.04139 
226 ,42.1685 ,1.11573 ,1.82502 ,17.90708 
227 ,42.3766 ,1.11771 ,1.81133 ,17.77276 
228 ,42.5685 ,1.11964 ,1.80106 ,17.67203 
229 ,42.7447 ,1.12153 ,1.78395 ,17.50414 
230 ,42.9207 ,1.12322 ,1.78395 ,17.50414 
231 ,43.0968 ,1.12494 ,1.74973 ,17.16836 
232 ,43.3209 ,1.12708 ,1.72920 ,16.96689 
233 ,43.5131 ,1.12910 ,1.72578 ,16.93331 
234 ,43.6887 ,1.13089 ,1.70866 ,16.76542 
235 ,43.8654 ,1.13273 ,1.70524 ,16.73184 
236 ,44.0732 ,1.13466 ,1.66760 ,16.36248 
237 ,44.2492 ,1.13644 ,1.66418 ,16.32890 
238 ,44.4413 ,1.13842 ,1.67102 ,16.39605 
239 ,44.6334 ,1.14028 ,1.63338 ,16.02669 
240 ,44.8094 ,1.14211 ,1.61627 ,15.85880 
241 ,44.9852 ,1.14380 ,1.61627 ,15.85880 
242 ,45.1774 ,1.14580 ,1.59231 ,15.62375 
243 ,45.3698 ,1.14762 ,1.58547 ,15.55660 
244 ,45.5459 ,1.14943 ,1.58547 ,15.55660 
245 ,45.7378 ,1.15135 ,1.56151 ,15.32155 
246 ,45.9139 ,1.15309 ,1.53756 ,15.08650 
247 ,46.0900 ,1.15488 ,1.53071 ,15.01934 
248 ,46.2821 ,1.15673 ,1.51018 ,14.81787 
249 ,46.4740 ,1.15863 ,1.50333 ,14.75072 
250 ,46.6664 ,1.16061 ,1.50333 ,14.75072 
251 ,46.8579 ,1.16255 ,1.46911 ,14.41493 
252 ,47.0504 ,1.16443 ,1.45200 ,14.24704 
253 ,47.2583 ,1.16653 ,1.45200 ,14.24704 
254 ,47.4502 ,1.16849 ,1.41094 ,13.84410 
255 ,47.6264 ,1.17029 ,1.41094 ,13.84410 
256 ,47.8187 ,1.17214 ,1.40751 ,13.81053 
257 ,48.0264 ,1.17413 ,1.37671 ,13.50832 
258 ,48.2029 ,1.17600 ,1.36987 ,13.44116 
259 ,48.4107 ,1.17804 ,1.35276 ,13.27327 
260 ,48.6030 ,1.18001 ,1.35276 ,13.27327 
261 ,48.7949 ,1.18193 ,1.31512 ,12.90391 
262 ,48.9708 ,1.18371 ,1.30485 ,12.80318 
263 ,49.1471 ,1.18542 ,1.29800 ,12.73602 
264 ,49.3392 ,1.18738 ,1.30143 ,12.76960 
265 ,49.5152 ,1.18910 ,1.27405 ,12.50097 
266 ,49.6914 ,1.19090 ,1.25694 ,12.33308 
267 ,49.8677 ,1.19263 ,1.25352 ,12.29950 
268 ,50.0596 ,1.19460 ,1.22956 ,12.06445 
269 ,50.2515 ,1.19649 ,1.21587 ,11.93014 
270 ,50.4596 ,1.19853 ,1.19876 ,11.76225 
271 ,50.6360 ,1.20033 ,1.18850 ,11.66151 
272 ,50.8437 ,1.20238 ,1.19192 ,11.69509 
273 ,51.0356 ,1.20428 ,1.14743 ,11.25857 
274 ,51.2117 ,1.20605 ,1.13716 ,11.15784 
275 ,51.4043 ,1.20804 ,1.14401 ,11.22500 
276 ,51.5960 ,1.20989 ,1.11663 ,10.95637 
277 ,51.7884 ,1.21188 ,1.10979 ,10.88921 
278 ,51.9804 ,1.21372 ,1.09952 ,10.78848 
279 ,52.1565 ,1.21551 ,1.07556 ,10.55343 
280 ,52.3325 ,1.21741 ,1.05503 ,10.35196 
281 ,52.5086 ,1.21909 ,1.05161 ,10.31838 
282 ,52.6843 ,1.22089 ,1.03792 ,10.18407 
283 ,52.8609 ,1.22258 ,1.04476 ,10.25123 
284 ,53.0527 ,1.22442 ,1.01396 ,9.94902 
285 ,53.2610 ,1.22646 ,1.00028 ,9.81471 
286 ,53.4530 ,1.22841 ,0.96948 ,9.51250 
287 ,53.6449 ,1.23037 ,0.98659 ,9.68039 
288 ,53.8211 ,1.23219 ,0.96605 ,9.47892 
289 ,54.0132 ,1.23403 ,0.93183 ,9.14314 
290 ,54.1891 ,1.23583 ,0.93183 ,9.14314 
291 ,54.3813 ,1.23770 ,0.93868 ,9.21030 
292 ,54.5734 ,1.23965 ,0.90103 ,8.84094 
293 ,54.7976 ,1.24191 ,0.88392 ,8.67305 
294 ,54.9733 ,1.24373 ,0.87366 ,8.57231 
295 ,55.1652 ,1.24548 ,0.87023 ,8.53873 
296 ,55.3413 ,1.24745 ,0.85312 ,8.37084 
297 ,55.5174 ,1.24915 ,0.85312 ,8.37084 
298 ,55.6934 ,1.25092 ,0.81890 ,8.03506 
299 ,55.8703 ,1.25267 ,0.80521 ,7.90074 
300 ,56.0621 ,1.25459 ,0.80179 ,7.86717 
301 ,56.2382 ,1.25634 ,0.79152 ,7.76643 
302 ,56.4303 ,1.25825 ,0.75730 ,7.43065 
303 ,56.6060 ,1.25997 ,0.76072 ,7.46423 
304 ,56.7824 ,1.26184 ,0.76072 ,7.46423 
305 ,56.9745 ,1.26367 ,0.74361 ,7.29633 
306 ,57.1666 ,1.26554 ,0.72650 ,7.12844 
307 ,57.3587 ,1.26758 ,0.72992 ,7.16202 
308 ,57.5508 ,1.26934 ,0.70597 ,6.92697 
309 ,57.7428 ,1.27131 ,0.70255 ,6.89340 
310 ,57.9189 ,1.27318 ,0.69228 ,6.79266 
311 ,58.0952 ,1.27491 ,0.65464 ,6.42330 
312 ,58.3031 ,1.27696 ,0.66490 ,6.52403 
313 ,58.4789 ,1.27879 ,0.63410 ,6.22183 
314 ,58.6552 ,1.28049 ,0.62726 ,6.15467 
315 ,58.8470 ,1.28247 ,0.62042 ,6.08752 
316 ,59.0234 ,1.28418 ,0.61015 ,5.98678 
317 ,59.1992 ,1.28596 ,0.59646 ,5.85247 
318 ,59.3916 ,1.28787 ,0.56566 ,5.55026 
319 ,59.5833 ,1.28975 ,0.55197 ,5.41595 
320 ,59.7754 ,1.29161 ,0.53486 ,5.24806 
321 ,59.9677 ,1.29354 ,0.52802 ,5.18090 
322 ,60.1438 ,1.29534 ,0.52459 ,5.14732 
323 ,60.3358 ,1.29721 ,0.49722 ,4.87870 
324 ,60.5119 ,1.29905 ,0.49037 ,4.81154 
325 ,60.6879 ,1.30080 ,0.47668 ,4.67723 
326 ,60.8640 ,1.30256 ,0.48011 ,4.71081 
327 ,61.0561 ,1.30444 ,0.43562 ,4.27429 
328 ,61.2483 ,1.30645 ,0.43562 ,4.27429 
329 ,61.4562 ,1.30843 ,0.42193 ,4.13997 
330 ,61.6481 ,1.31036 ,0.41851 ,4.10640 
331 ,61.8564 ,1.31241 ,0.38771 ,3.80419 
332 ,62.0325 ,1.31423 ,0.37744 ,3.70346 
333 ,62.2086 ,1.31603 ,0.36375 ,3.56914 
334 ,62.3848 ,1.31775 ,0.37744 ,3.70346 
335 ,62.5929 ,1.31970 ,0.34322 ,3.36767 
336 ,62.7848 ,1.32176 ,0.34322 ,3.36767 
337 ,62.9770 ,1.32364 ,0.32611 ,3.19978 
338 ,63.1851 ,1.32571 ,0.31584 ,3.09905 
339 ,63.3931 ,1.32782 ,0.29531 ,2.89758 
340 ,63.5694 ,1.32960 ,0.27478 ,2.69611 
341 ,63.7613 ,1.33145 ,0.27820 ,2.72969 
342 ,63.9534 ,1.33340 ,0.24055 ,2.36032 
343 ,64.1451 ,1.33528 ,0.25082 ,2.46106 
344 ,64.3215 ,1.33715 ,0.24055 ,2.36032 
345 ,64.5294 ,1.33907 ,0.21318 ,2.09170 
346 ,64.7055 ,1.34097 ,0.20291 ,1.99096 
347 ,64.9296 ,1.34305 ,0.18238 ,1.78949 
348 ,65.1219 ,1.34513 ,0.17896 ,1.75592 
349 ,65.2980 ,1.34690 ,0.17553 ,1.72234 
350 ,65.4900 ,1.34882 ,0.13789 ,1.35298 
351 ,65.6822 ,1.35076 ,0.15158 ,1.48729 
352 ,65.8744 ,1.35264 ,0.12420 ,1.21866 
353 ,66.0823 ,1.35467 ,0.13789 ,1.35298 
354 ,66.2579 ,1.35649 ,0.11393 ,1.11793 
355 ,66.4502 ,1.35837 ,0.07971 ,0.78214 
356 ,66.6424 ,1.36025 ,0.08314 ,0.81572 
357 ,66.8346 ,1.36226 ,0.06260 ,0.61425 
358 ,67.0424 ,1.36427 ,0.05576 ,0.54710 
359 ,67.2188 ,1.36607 ,0.04891 ,0.47994 
360 ,67.3948 ,1.36792 ,0.01127 ,0.11058 
361 ,67.5868 ,1.36965 ,0.00100 ,0.00984 
362 ,67.7629 ,1.37152 ,0.01469 ,0.14416 
363 ,67.9390 ,1.37331 ,0.00443 ,0.04342 
364 ,68.1309 ,1.37519 ,-0.03664 ,-0.35952 
365 ,68.3071 ,1.37694 ,-0.04348 ,-0.42667 
366 ,68.4829 ,1.37878 ,-0.05033 ,-0.49383 
367 ,68.6592 ,1.38054 ,-0.04691 ,-0.46025 
368 ,68.8353 ,1.38223 ,-0.06744 ,-0.66172 
369 ,69.0430 ,1.38430 ,-0.08797 ,-0.86319 
370 ,69.2354 ,1.38619 ,-0.08455 ,-0.82961 
371 ,69.4276 ,1.38822 ,-0.11535 ,-1.13182 
372 ,69.6196 ,1.39010 ,-0.10508 ,-1.03108 
373 ,69.8278 ,1.39211 ,-0.12219 ,-1.19898 
374 ,70.0195 ,1.39401 ,-0.12562 ,-1.23255 
375 ,70.1960 ,1.39584 ,-0.13931 ,-1.36687 
376 ,70.3879 ,1.39768 ,-0.16668 ,-1.63549 
377 ,70.5638 ,1.39959 ,-0.16326 ,-1.60191 
378 ,70.7401 ,1.40127 ,-0.17011 ,-1.66907 
379 ,70.9160 ,1.40306 ,-0.17011 ,-1.66907 
380 ,71.0922 ,1.40491 ,-0.18722 ,-1.83696 
381 ,71.2521 ,1.40656 ,-0.20775 ,-2.03843 
382 ,71.4284 ,1.40816 ,-0.22144 ,-2.17275 
383 ,71.6042 ,1.40992 ,-0.23170 ,-2.27348 
384 ,71.7807 ,1.41173 ,-0.22144 ,-2.17275 
385 ,71.9726 ,1.41354 ,-0.24881 ,-2.44137 
386 ,72.1487 ,1.41535 ,-0.26250 ,-2.57569 
387 ,72.3248 ,1.41720 ,-0.26250 ,-2.57569 
388 ,72.5010 ,1.41890 ,-0.26593 ,-2.60926 
389 ,72.6764 ,1.42064 ,-0.27961 ,-2.74358 
390 ,72.8526 ,1.42246 ,-0.30699 ,-3.01220 
391 ,73.0445 ,1.42427 ,-0.30357 ,-2.97863 
392 ,73.2370 ,1.42616 ,-0.30357 ,-2.97863 
393 ,73.4613 ,1.42851 ,-0.32410 ,-3.18010 
394 ,73.6534 ,1.43034 ,-0.34464 ,-3.38156 
395 ,73.8454 ,1.43227 ,-0.35148 ,-3.44872 
396 ,74.0215 ,1.43410 ,-0.36175 ,-3.54946 
397 ,74.1976 ,1.43588 ,-0.37544 ,-3.68377 
398 ,74.3737 ,1.43766 ,-0.39255 ,-3.85166 
399 ,74.5498 ,1.43935 ,-0.41308 ,-4.05313 
400 ,74.7418 ,1.44125 ,-0.39939 ,-3.91882 
401 ,74.9017 ,1.44299 ,-0.40966 ,-4.01955 
402 ,75.0778 ,1.44461 ,-0.42335 ,-4.15387 
403 ,75.2701 ,1.44648 ,-0.44388 ,-4.35534 
404 ,75.4621 ,1.44846 ,-0.44046 ,-4.32176 
405 ,75.6383 ,1.45021 ,-0.45414 ,-4.45607 
406 ,75.8139 ,1.45208 ,-0.48837 ,-4.79185 
407 ,75.9903 ,1.45377 ,-0.50206 ,-4.92617 
408 ,76.1665 ,1.45553 ,-0.50890 ,-4.99332 
409 ,76.3425 ,1.45728 ,-0.50890 ,-4.99332 
410 ,76.5346 ,1.45919 ,-0.52259 ,-5.12764 
411 ,76.7266 ,1.46114 ,-0.54997 ,-5.39626 
412 ,76.9507 ,1.46318 ,-0.57050 ,-5.59773 
413 ,77.1429 ,1.46528 ,-0.56365 ,-5.53058 
414 ,77.3507 ,1.46729 ,-0.58077 ,-5.69847 
415 ,77.5269 ,1.46911 ,-0.58419 ,-5.73205 
416 ,77.7030 ,1.47094 ,-0.58077 ,-5.69847 
417 ,77.8792 ,1.47263 ,-0.59788 ,-5.86636 
418 ,78.0709 ,1.47451 ,-0.62868 ,-6.16856 
419 ,78.2469 ,1.47645 ,-0.62868 ,-6.16856 
420 ,78.4230 ,1.47808 ,-0.63210 ,-6.20214 
421 ,78.5995 ,1.47984 ,-0.63894 ,-6.26930 
422 ,78.7753 ,1.48162 ,-0.64921 ,-6.37003 
423 ,78.9516 ,1.48340 ,-0.67659 ,-6.63866 
424 ,79.1278 ,1.48513 ,-0.68685 ,-6.73940 
425 ,79.3358 ,1.48716 ,-0.70054 ,-6.87371 
426 ,79.5600 ,1.48935 ,-0.69027 ,-6.77297 
427 ,79.7520 ,1.49128 ,-0.72450 ,-7.10876 
428 ,79.9441 ,1.49328 ,-0.72792 ,-7.14233 
429 ,80.1358 ,1.49513 ,-0.74503 ,-7.31023 
430 ,80.3440 ,1.49720 ,-0.74503 ,-7.31023 
431 ,80.5523 ,1.49920 ,-0.76214 ,-7.47812 
432 ,80.7442 ,1.50131 ,-0.77241 ,-7.57885 
433 ,80.9365 ,1.50312 ,-0.79294 ,-7.78032 
434 ,81.1285 ,1.50517 ,-0.80321 ,-7.88106 
435 ,81.3361 ,1.50717 ,-0.80663 ,-7.91464 
436 ,81.5287 ,1.50904 ,-0.81347 ,-7.98179 
437 ,81.7209 ,1.51096 ,-0.80321 ,-7.88106 
438 ,81.9128 ,1.51293 ,-0.84769 ,-8.31758 
439 ,82.0889 ,1.51472 ,-0.84427 ,-8.28400 
440 ,82.2651 ,1.51647 ,-0.84085 ,-8.25042 
441 ,82.4570 ,1.51832 ,-0.84085 ,-8.25042 
442 ,82.6331 ,1.52016 ,-0.86481 ,-8.48547 
443 ,82.8093 ,1.52195 ,-0.85796 ,-8.41831 
444 ,83.0173 ,1.52395 ,-0.86823 ,-8.51904 
445 ,83.2253 ,1.52605 ,-0.86823 ,-8.51904 
446 ,83.4013 ,1.52791 ,-0.88192 ,-8.65336 
447 ,83.5774 ,1.52959 ,-0.88876 ,-8.72051 
448 ,83.7696 ,1.53150 ,-0.91614 ,-8.98914 
449 ,83.9456 ,1.53326 ,-0.92983 ,-9.12345 
450 ,84.3939 ,1.53637 ,-0.91956 ,-9.02272 
451 ,84.6018 ,1.53978 ,-0.93667 ,-9.19061 
452 ,84.7781 ,1.54163 ,-0.96405 ,-9.45924 
453 ,84.9541 ,1.54344 ,-0.98458 ,-9.66071 
454 ,85.1141 ,1.54508 ,-0.99485 ,-9.76144 
455 ,85.3060 ,1.54682 ,-1.00169 ,-9.82860 
456 ,85.4983 ,1.54886 ,-0.98116 ,-9.62713 
457 ,85.6743 ,1.55062 ,-1.02222 ,-10.03007 
458 ,85.8501 ,1.55236 ,-1.02222 ,-10.03007 
459 ,86.0262 ,1.55406 ,-1.04276 ,-10.23154 
460 ,86.2025 ,1.55587 ,-1.03934 ,-10.19796 
461 ,86.3787 ,1.55763 ,-1.04276 ,-10.23154 
462 ,86.5865 ,1.55966 ,-1.05302 ,-10.33227 
