Data stamp = , 21-04-2022 18:49:56 637

Calibration Values: 
Slope = , 26.54 , g/V 
Offset Voltage at no contact = , -0.501760 , V 

No , Time , Stage Position ,   Mass , Force 
   ,  (s) ,      (mm)      ,   (g)  , (mN)  

1 ,0.0000 ,0.74942 ,5.08634 ,49.90720 
2 ,0.2102 ,0.74950 ,5.09319 ,49.97436 
3 ,0.5790 ,0.75050 ,5.10003 ,50.04151 
4 ,0.7866 ,0.75219 ,5.07265 ,49.77289 
5 ,0.9787 ,0.75392 ,5.08977 ,49.94078 
6 ,1.1549 ,0.75573 ,5.10345 ,50.07509 
7 ,1.3473 ,0.75752 ,5.08634 ,49.90720 
8 ,1.5552 ,0.75966 ,5.08977 ,49.94078 
9 ,1.7312 ,0.76154 ,5.07950 ,49.84004 
10 ,1.9233 ,0.76342 ,5.07950 ,49.84004 
11 ,2.1156 ,0.76532 ,5.06923 ,49.73931 
12 ,2.3236 ,0.76727 ,5.04185 ,49.47068 
13 ,2.4998 ,0.76918 ,5.03501 ,49.40352 
14 ,2.6918 ,0.77103 ,4.99737 ,49.03416 
15 ,2.8840 ,0.77299 ,5.00079 ,49.06774 
16 ,3.0596 ,0.77481 ,4.97683 ,48.83269 
17 ,3.2357 ,0.77654 ,4.96315 ,48.69838 
18 ,3.3957 ,0.77825 ,4.94261 ,48.49691 
19 ,3.5720 ,0.77992 ,4.92208 ,48.29544 
20 ,3.7482 ,0.78166 ,4.90839 ,48.16113 
21 ,3.9402 ,0.78360 ,4.91866 ,48.26186 
22 ,4.1160 ,0.78535 ,4.88101 ,47.89250 
23 ,4.2923 ,0.78714 ,4.85021 ,47.59030 
24 ,4.5006 ,0.78911 ,4.84337 ,47.52314 
25 ,4.6924 ,0.79102 ,4.81941 ,47.28809 
26 ,4.8849 ,0.79301 ,4.80915 ,47.18736 
27 ,5.0608 ,0.79485 ,4.78861 ,46.98589 
28 ,5.2369 ,0.79660 ,4.76808 ,46.78442 
29 ,5.4130 ,0.79833 ,4.74755 ,46.58295 
30 ,5.6210 ,0.80021 ,4.73728 ,46.48221 
31 ,5.8288 ,0.80237 ,4.73728 ,46.48221 
32 ,6.0051 ,0.80428 ,4.70648 ,46.18001 
33 ,6.1970 ,0.80617 ,4.67911 ,45.91138 
34 ,6.4213 ,0.80830 ,4.67568 ,45.87780 
35 ,6.6452 ,0.81047 ,4.64831 ,45.60918 
36 ,6.8215 ,0.81246 ,4.63804 ,45.50844 
37 ,6.9974 ,0.81418 ,4.62093 ,45.34055 
38 ,7.1734 ,0.81595 ,4.58671 ,45.00477 
39 ,7.3653 ,0.81776 ,4.59697 ,45.10550 
40 ,7.5418 ,0.81957 ,4.56275 ,44.76972 
41 ,7.7497 ,0.82152 ,4.55591 ,44.70256 
42 ,7.9260 ,0.82343 ,4.53195 ,44.46751 
43 ,8.1497 ,0.82549 ,4.50457 ,44.19889 
44 ,8.3421 ,0.82751 ,4.49773 ,44.13173 
45 ,8.5178 ,0.82931 ,4.47720 ,43.93026 
46 ,8.6937 ,0.83117 ,4.47720 ,43.93026 
47 ,8.8538 ,0.83283 ,4.46351 ,43.79595 
48 ,9.0464 ,0.83448 ,4.43955 ,43.56090 
49 ,9.2545 ,0.83665 ,4.41560 ,43.32585 
50 ,9.4306 ,0.83844 ,4.41902 ,43.35943 
51 ,9.6227 ,0.84032 ,4.39164 ,43.09080 
52 ,9.8307 ,0.84244 ,4.39164 ,43.09080 
53 ,10.0227 ,0.84433 ,4.35058 ,42.68786 
54 ,10.1986 ,0.84611 ,4.34373 ,42.62071 
55 ,10.3749 ,0.84790 ,4.33004 ,42.48639 
56 ,10.5507 ,0.84962 ,4.31978 ,42.38566 
57 ,10.7271 ,0.85145 ,4.32320 ,42.41924 
58 ,10.9192 ,0.85336 ,4.27871 ,41.98272 
59 ,11.1113 ,0.85521 ,4.28213 ,42.01630 
60 ,11.3034 ,0.85714 ,4.25133 ,41.71409 
61 ,11.4954 ,0.85911 ,4.23765 ,41.57978 
62 ,11.6713 ,0.86089 ,4.22738 ,41.47905 
63 ,11.8477 ,0.86260 ,4.21369 ,41.34473 
64 ,12.0235 ,0.86443 ,4.18289 ,41.04253 
65 ,12.2155 ,0.86631 ,4.18631 ,41.07611 
66 ,12.4234 ,0.86835 ,4.14525 ,40.67317 
67 ,12.6159 ,0.87029 ,4.14867 ,40.70674 
68 ,12.7759 ,0.87200 ,4.13498 ,40.57243 
69 ,12.9520 ,0.87363 ,4.12471 ,40.47170 
70 ,13.1440 ,0.87560 ,4.09049 ,40.13591 
71 ,13.3199 ,0.87748 ,4.08365 ,40.06876 
72 ,13.5280 ,0.87927 ,4.05969 ,39.83371 
73 ,13.7043 ,0.88118 ,4.05285 ,39.76655 
74 ,13.8963 ,0.88305 ,4.04943 ,39.73297 
75 ,14.0724 ,0.88491 ,4.01863 ,39.43077 
76 ,14.2483 ,0.88659 ,4.01520 ,39.39719 
77 ,14.4405 ,0.88848 ,3.99467 ,39.19572 
78 ,14.6167 ,0.89033 ,3.98098 ,39.06141 
79 ,14.8088 ,0.89217 ,3.94334 ,38.69205 
80 ,15.0008 ,0.89406 ,3.96045 ,38.85994 
81 ,15.2084 ,0.89609 ,3.91938 ,38.45700 
82 ,15.4009 ,0.89816 ,3.90912 ,38.35626 
83 ,15.5929 ,0.90004 ,3.90227 ,38.28911 
84 ,15.7687 ,0.90180 ,3.87490 ,38.02048 
85 ,15.9286 ,0.90354 ,3.86121 ,37.88617 
86 ,16.1052 ,0.90520 ,3.84067 ,37.68470 
87 ,16.2974 ,0.90705 ,3.83725 ,37.65112 
88 ,16.4894 ,0.90905 ,3.81330 ,37.41607 
89 ,16.6813 ,0.91089 ,3.81330 ,37.41607 
90 ,16.8736 ,0.91278 ,3.80303 ,37.31534 
91 ,17.0655 ,0.91470 ,3.77223 ,37.01313 
92 ,17.2738 ,0.91680 ,3.75170 ,36.81166 
93 ,17.4496 ,0.91867 ,3.73117 ,36.61019 
94 ,17.6579 ,0.92065 ,3.72090 ,36.50946 
95 ,17.8499 ,0.92262 ,3.69694 ,36.27441 
96 ,18.0416 ,0.92445 ,3.70379 ,36.34157 
97 ,18.2340 ,0.92642 ,3.68325 ,36.14010 
98 ,18.4422 ,0.92858 ,3.65246 ,35.83789 
99 ,18.6502 ,0.93055 ,3.62508 ,35.56926 
100 ,18.8263 ,0.93235 ,3.63192 ,35.63642 
101 ,19.0185 ,0.93432 ,3.62508 ,35.56926 
102 ,19.1945 ,0.93620 ,3.59428 ,35.26706 
103 ,19.3702 ,0.93784 ,3.57717 ,35.09917 
104 ,19.5467 ,0.93964 ,3.57717 ,35.09917 
105 ,19.7545 ,0.94157 ,3.54295 ,34.76338 
106 ,19.9305 ,0.94342 ,3.53268 ,34.66265 
107 ,20.1069 ,0.94517 ,3.52584 ,34.59549 
108 ,20.2988 ,0.94700 ,3.50530 ,34.39402 
109 ,20.4910 ,0.94897 ,3.49161 ,34.25971 
110 ,20.6991 ,0.95103 ,3.48819 ,34.22613 
111 ,20.8754 ,0.95289 ,3.46766 ,34.02466 
112 ,21.0513 ,0.95470 ,3.44370 ,33.78961 
113 ,21.2590 ,0.95668 ,3.44028 ,33.75604 
114 ,21.4355 ,0.95847 ,3.40948 ,33.45383 
115 ,21.6435 ,0.96051 ,3.41633 ,33.52099 
116 ,21.8196 ,0.96231 ,3.38895 ,33.25236 
117 ,22.0119 ,0.96422 ,3.36499 ,33.01731 
118 ,22.2193 ,0.96613 ,3.35130 ,32.88300 
119 ,22.3957 ,0.96806 ,3.34104 ,32.78227 
120 ,22.5879 ,0.96987 ,3.32393 ,32.61437 
121 ,22.7800 ,0.97185 ,3.31708 ,32.54722 
122 ,22.9878 ,0.97395 ,3.31024 ,32.48006 
123 ,23.1641 ,0.97578 ,3.27944 ,32.17786 
124 ,23.3561 ,0.97767 ,3.26233 ,32.00996 
125 ,23.5481 ,0.97954 ,3.25206 ,31.90923 
126 ,23.7402 ,0.98150 ,3.23837 ,31.77492 
127 ,23.9323 ,0.98331 ,3.22126 ,31.60702 
128 ,24.1086 ,0.98519 ,3.20757 ,31.47271 
129 ,24.3006 ,0.98707 ,3.18020 ,31.20409 
130 ,24.4765 ,0.98888 ,3.17335 ,31.13693 
131 ,24.6685 ,0.99076 ,3.15966 ,31.00262 
132 ,24.8771 ,0.99287 ,3.14940 ,30.90188 
133 ,25.0686 ,0.99472 ,3.14255 ,30.83472 
134 ,25.2449 ,0.99652 ,3.13229 ,30.73399 
135 ,25.4211 ,0.99832 ,3.10833 ,30.49894 
136 ,25.6128 ,1.00022 ,3.08780 ,30.29747 
137 ,25.7891 ,1.00195 ,3.07411 ,30.16316 
138 ,25.9814 ,1.00382 ,3.07411 ,30.16316 
139 ,26.1735 ,1.00579 ,3.04331 ,29.86095 
140 ,26.3816 ,1.00784 ,3.01251 ,29.55875 
141 ,26.5576 ,1.00966 ,3.00567 ,29.49159 
142 ,26.7336 ,1.01150 ,3.01251 ,29.55875 
143 ,26.9097 ,1.01322 ,2.97829 ,29.22297 
144 ,27.0856 ,1.01497 ,2.97144 ,29.15581 
145 ,27.2780 ,1.01689 ,2.95091 ,28.95434 
146 ,27.4539 ,1.01867 ,2.93038 ,28.75287 
147 ,27.6461 ,1.02049 ,2.94407 ,28.88718 
148 ,27.8220 ,1.02233 ,2.91327 ,28.58498 
149 ,28.0142 ,1.02422 ,2.89616 ,28.41709 
150 ,28.2062 ,1.02610 ,2.88931 ,28.34993 
151 ,28.3982 ,1.02807 ,2.85167 ,27.98057 
152 ,28.5904 ,1.03000 ,2.85851 ,28.04772 
153 ,28.7661 ,1.03182 ,2.83114 ,27.77910 
154 ,28.9426 ,1.03351 ,2.82087 ,27.67836 
155 ,29.1347 ,1.03540 ,2.81060 ,27.57763 
156 ,29.3266 ,1.03730 ,2.80376 ,27.51047 
157 ,29.5028 ,1.03908 ,2.76954 ,27.17469 
158 ,29.6789 ,1.04090 ,2.75927 ,27.07395 
159 ,29.8546 ,1.04265 ,2.77296 ,27.20827 
160 ,30.0471 ,1.04450 ,2.73189 ,26.80533 
161 ,30.2388 ,1.04638 ,2.72163 ,26.70459 
162 ,30.4313 ,1.04836 ,2.71478 ,26.63744 
163 ,30.6233 ,1.05023 ,2.68398 ,26.33523 
164 ,30.7993 ,1.05215 ,2.68740 ,26.36881 
165 ,30.9749 ,1.05390 ,2.68056 ,26.30165 
166 ,31.1516 ,1.05556 ,2.67029 ,26.20092 
167 ,31.3274 ,1.05741 ,2.62923 ,25.79798 
168 ,31.5197 ,1.05919 ,2.62238 ,25.73082 
169 ,31.6957 ,1.06109 ,2.62238 ,25.73082 
170 ,31.8718 ,1.06282 ,2.60869 ,25.59651 
171 ,32.0314 ,1.06450 ,2.58132 ,25.32788 
172 ,32.2080 ,1.06616 ,2.57447 ,25.26073 
173 ,32.4160 ,1.06824 ,2.56763 ,25.19357 
174 ,32.5919 ,1.07001 ,2.54710 ,24.99210 
175 ,32.7843 ,1.07194 ,2.52656 ,24.79063 
176 ,32.9920 ,1.07394 ,2.52314 ,24.75705 
177 ,33.1683 ,1.07579 ,2.49576 ,24.48842 
178 ,33.3764 ,1.07769 ,2.49918 ,24.52200 
179 ,33.5684 ,1.07970 ,2.47523 ,24.28696 
180 ,33.7446 ,1.08148 ,2.45127 ,24.05191 
181 ,33.9367 ,1.08334 ,2.45470 ,24.08549 
182 ,34.1284 ,1.08528 ,2.42732 ,23.81686 
183 ,34.3208 ,1.08725 ,2.42048 ,23.74970 
184 ,34.5129 ,1.08916 ,2.38625 ,23.41392 
185 ,34.6888 ,1.09101 ,2.38283 ,23.38034 
186 ,34.8811 ,1.09276 ,2.36914 ,23.24603 
187 ,35.0731 ,1.09474 ,2.35888 ,23.14529 
188 ,35.2327 ,1.09649 ,2.34861 ,23.04456 
189 ,35.4253 ,1.09822 ,2.34519 ,23.01098 
190 ,35.6173 ,1.10024 ,2.32123 ,22.77593 
191 ,35.8253 ,1.10219 ,2.30070 ,22.57446 
192 ,36.0016 ,1.10408 ,2.28017 ,22.37299 
193 ,36.1935 ,1.10595 ,2.26648 ,22.23868 
194 ,36.4014 ,1.10798 ,2.24937 ,22.07079 
195 ,36.5937 ,1.10994 ,2.23910 ,21.97005 
196 ,36.7698 ,1.11175 ,2.23226 ,21.90290 
197 ,36.9459 ,1.11353 ,2.21857 ,21.76858 
198 ,37.1217 ,1.11526 ,2.20830 ,21.66785 
199 ,37.2980 ,1.11703 ,2.20488 ,21.63427 
200 ,37.5220 ,1.11910 ,2.16723 ,21.26491 
201 ,37.7137 ,1.12117 ,2.17066 ,21.29849 
202 ,37.8901 ,1.12294 ,2.14328 ,21.02986 
203 ,38.0982 ,1.12497 ,2.15012 ,21.09702 
204 ,38.2902 ,1.12688 ,2.11932 ,20.79481 
205 ,38.4659 ,1.12875 ,2.12959 ,20.89555 
206 ,38.6425 ,1.13052 ,2.10221 ,20.62692 
207 ,38.8342 ,1.13235 ,2.08510 ,20.45903 
208 ,39.0107 ,1.13414 ,2.05088 ,20.12325 
209 ,39.1866 ,1.13600 ,2.06457 ,20.25756 
210 ,39.3629 ,1.13768 ,2.05773 ,20.19040 
211 ,39.5543 ,1.13956 ,2.04746 ,20.08967 
212 ,39.7307 ,1.14130 ,2.02008 ,19.82104 
213 ,39.9070 ,1.14312 ,2.00982 ,19.72031 
214 ,40.0831 ,1.14488 ,2.00982 ,19.72031 
215 ,40.2752 ,1.14680 ,1.99613 ,19.58599 
216 ,40.4673 ,1.14870 ,1.98244 ,19.45168 
217 ,40.6591 ,1.15059 ,1.97559 ,19.38452 
218 ,40.8353 ,1.15252 ,1.93795 ,19.01516 
219 ,41.0115 ,1.15419 ,1.93111 ,18.94801 
220 ,41.2036 ,1.15610 ,1.93795 ,19.01516 
221 ,41.3957 ,1.15796 ,1.91057 ,18.74654 
222 ,41.5878 ,1.15994 ,1.89688 ,18.61222 
223 ,41.7798 ,1.16179 ,1.89004 ,18.54507 
224 ,41.9719 ,1.16370 ,1.87635 ,18.41075 
225 ,42.1641 ,1.16564 ,1.88662 ,18.51149 
226 ,42.3559 ,1.16763 ,1.84555 ,18.10855 
227 ,42.5481 ,1.16938 ,1.83528 ,18.00781 
228 ,42.7399 ,1.17141 ,1.83871 ,18.04139 
229 ,42.9323 ,1.17325 ,1.81133 ,17.77276 
230 ,43.1243 ,1.17531 ,1.82160 ,17.87350 
231 ,43.3165 ,1.17721 ,1.79764 ,17.63845 
232 ,43.4926 ,1.17900 ,1.77026 ,17.36983 
233 ,43.6843 ,1.18088 ,1.77711 ,17.43698 
234 ,43.8442 ,1.18259 ,1.76000 ,17.26909 
235 ,44.0207 ,1.18426 ,1.76684 ,17.33625 
236 ,44.2129 ,1.18604 ,1.74631 ,17.13478 
237 ,44.4049 ,1.18801 ,1.73262 ,17.00046 
238 ,44.5808 ,1.18982 ,1.72578 ,16.93331 
239 ,44.7570 ,1.19165 ,1.70524 ,16.73184 
240 ,44.9327 ,1.19334 ,1.68129 ,16.49679 
241 ,45.1090 ,1.19511 ,1.69155 ,16.59752 
242 ,45.3011 ,1.19711 ,1.67786 ,16.46321 
243 ,45.4774 ,1.19880 ,1.66418 ,16.32890 
244 ,45.6694 ,1.20075 ,1.65391 ,16.22816 
245 ,45.8614 ,1.20257 ,1.64707 ,16.16101 
246 ,46.0375 ,1.20444 ,1.64022 ,16.09385 
247 ,46.2134 ,1.20619 ,1.62311 ,15.92596 
248 ,46.3733 ,1.20788 ,1.61969 ,15.89238 
249 ,46.5493 ,1.20948 ,1.60600 ,15.75807 
250 ,46.7255 ,1.21127 ,1.59916 ,15.69091 
251 ,46.9175 ,1.21320 ,1.56836 ,15.38871 
252 ,47.1094 ,1.21509 ,1.57178 ,15.42228 
253 ,47.2855 ,1.21686 ,1.57520 ,15.45586 
254 ,47.4780 ,1.21872 ,1.54098 ,15.12008 
255 ,47.6700 ,1.22070 ,1.54440 ,15.15366 
256 ,47.8462 ,1.22248 ,1.52729 ,14.98577 
257 ,48.0222 ,1.22424 ,1.52045 ,14.91861 
258 ,48.1980 ,1.22595 ,1.49649 ,14.68356 
259 ,48.3900 ,1.22783 ,1.50676 ,14.78430 
260 ,48.5826 ,1.22975 ,1.48280 ,14.54925 
261 ,48.7746 ,1.23165 ,1.48280 ,14.54925 
262 ,48.9504 ,1.23352 ,1.48622 ,14.58283 
263 ,49.1428 ,1.23537 ,1.45885 ,14.31420 
264 ,49.3347 ,1.23733 ,1.44858 ,14.21346 
265 ,49.5268 ,1.23929 ,1.45200 ,14.24704 
266 ,49.7031 ,1.24107 ,1.42805 ,14.01199 
267 ,49.9111 ,1.24305 ,1.43831 ,14.11273 
268 ,50.1192 ,1.24518 ,1.41094 ,13.84410 
269 ,50.2947 ,1.24701 ,1.41094 ,13.84410 
270 ,50.4712 ,1.24873 ,1.41436 ,13.87768 
271 ,50.6474 ,1.25051 ,1.39040 ,13.64263 
272 ,50.8234 ,1.25226 ,1.38356 ,13.57548 
273 ,50.9994 ,1.25396 ,1.36987 ,13.44116 
274 ,51.1756 ,1.25576 ,1.36303 ,13.37401 
275 ,51.6238 ,1.25892 ,1.34934 ,13.23969 
276 ,51.8315 ,1.26224 ,1.33907 ,13.13896 
277 ,52.0079 ,1.26409 ,1.33223 ,13.07180 
278 ,52.2000 ,1.26592 ,1.32538 ,13.00465 
279 ,52.3920 ,1.26790 ,1.32538 ,13.00465 
280 ,52.5679 ,1.26972 ,1.28774 ,12.63528 
281 ,52.7602 ,1.27159 ,1.28774 ,12.63528 
282 ,52.9521 ,1.27351 ,1.29800 ,12.73602 
283 ,53.1444 ,1.27548 ,1.28432 ,12.60171 
284 ,53.3362 ,1.27731 ,1.29800 ,12.73602 
285 ,53.5280 ,1.27919 ,1.27063 ,12.46739 
286 ,53.7204 ,1.28109 ,1.26378 ,12.40024 
287 ,53.9128 ,1.28310 ,1.27063 ,12.46739 
288 ,54.1366 ,1.28527 ,1.26720 ,12.43381 
289 ,54.3445 ,1.28728 ,1.27063 ,12.46739 
290 ,54.5208 ,1.28918 ,1.25009 ,12.26592 
291 ,54.7290 ,1.29123 ,1.24667 ,12.23235 
292 ,54.9210 ,1.29316 ,1.23298 ,12.09803 
293 ,55.0973 ,1.29497 ,1.23641 ,12.13161 
294 ,55.2891 ,1.29679 ,1.21587 ,11.93014 
295 ,55.4815 ,1.29874 ,1.24667 ,12.23235 
296 ,55.6730 ,1.30069 ,1.22956 ,12.06445 
297 ,55.8494 ,1.30247 ,1.24325 ,12.19877 
298 ,56.0413 ,1.30443 ,1.22272 ,11.99730 
299 ,56.2337 ,1.30619 ,1.22614 ,12.03088 
300 ,56.4256 ,1.30821 ,1.21587 ,11.93014 
301 ,56.6337 ,1.31023 ,1.22272 ,11.99730 
302 ,56.8259 ,1.31221 ,1.21245 ,11.89656 
303 ,57.0339 ,1.31431 ,1.21245 ,11.89656 
304 ,57.2419 ,1.31628 ,1.20561 ,11.82941 
305 ,57.4180 ,1.31817 ,1.21929 ,11.96372 
306 ,57.6100 ,1.32001 ,1.19192 ,11.69509 
307 ,57.7862 ,1.32183 ,1.20561 ,11.82941 
308 ,57.9941 ,1.32383 ,1.22614 ,12.03088 
309 ,58.2024 ,1.32595 ,1.23983 ,12.16519 
310 ,58.3943 ,1.32785 ,1.23983 ,12.16519 
311 ,58.5867 ,1.32984 ,1.21929 ,11.96372 
312 ,58.7947 ,1.33174 ,1.21929 ,11.96372 
313 ,58.9867 ,1.33375 ,1.22272 ,11.99730 
314 ,59.1787 ,1.33570 ,1.23641 ,12.13161 
315 ,59.3545 ,1.33750 ,1.23641 ,12.13161 
316 ,59.5308 ,1.33925 ,1.21929 ,11.96372 
317 ,59.7230 ,1.34116 ,1.23298 ,12.09803 
318 ,59.8987 ,1.34293 ,1.22956 ,12.06445 
319 ,60.0752 ,1.34473 ,1.20903 ,11.86298 
320 ,60.2671 ,1.34669 ,1.21929 ,11.96372 
321 ,60.4593 ,1.34853 ,1.20561 ,11.82941 
322 ,60.6513 ,1.35041 ,1.19876 ,11.76225 
323 ,60.8434 ,1.35239 ,1.19876 ,11.76225 
324 ,61.0191 ,1.35417 ,1.20561 ,11.82941 
325 ,61.2116 ,1.35599 ,1.17138 ,11.49362 
326 ,61.4036 ,1.35800 ,1.19192 ,11.69509 
327 ,61.5957 ,1.35993 ,1.17823 ,11.56078 
328 ,61.7877 ,1.36182 ,1.16796 ,11.46004 
329 ,61.9639 ,1.36360 ,1.17481 ,11.52720 
330 ,62.1555 ,1.36555 ,1.15427 ,11.32573 
331 ,62.3320 ,1.36730 ,1.16112 ,11.39289 
332 ,62.5239 ,1.36916 ,1.16112 ,11.39289 
333 ,62.7162 ,1.37109 ,1.14401 ,11.22500 
334 ,62.9243 ,1.37308 ,1.15427 ,11.32573 
335 ,63.1164 ,1.37507 ,1.12347 ,11.02353 
336 ,63.3241 ,1.37714 ,1.14058 ,11.19142 
337 ,63.5001 ,1.37894 ,1.14058 ,11.19142 
338 ,63.6761 ,1.38071 ,1.11321 ,10.92279 
339 ,63.8524 ,1.38248 ,1.11321 ,10.92279 
340 ,64.0287 ,1.38428 ,1.12005 ,10.98995 
341 ,64.2207 ,1.38615 ,1.12005 ,10.98995 
342 ,64.3969 ,1.38788 ,1.09952 ,10.78848 
343 ,64.5730 ,1.38969 ,1.09267 ,10.72132 
344 ,64.7489 ,1.39143 ,1.10979 ,10.88921 
345 ,64.9251 ,1.39322 ,1.09952 ,10.78848 
346 ,65.1172 ,1.39506 ,1.07899 ,10.58701 
347 ,65.3091 ,1.39697 ,1.09267 ,10.72132 
348 ,65.5014 ,1.39886 ,1.07899 ,10.58701 
349 ,65.6933 ,1.40078 ,1.07899 ,10.58701 
350 ,65.8855 ,1.40281 ,1.07899 ,10.58701 
351 ,66.0614 ,1.40459 ,1.06187 ,10.41912 
352 ,66.2538 ,1.40638 ,1.06872 ,10.48627 
353 ,66.4294 ,1.40831 ,1.05161 ,10.31838 
354 ,66.6216 ,1.41013 ,1.04476 ,10.25123 
355 ,66.8139 ,1.41208 ,1.03792 ,10.18407 
356 ,66.9898 ,1.41381 ,1.05845 ,10.38554 
357 ,67.1660 ,1.41572 ,1.02765 ,10.08333 
358 ,67.3421 ,1.41736 ,1.02081 ,10.01618 
359 ,67.5178 ,1.41916 ,1.03108 ,10.11691 
360 ,67.7101 ,1.42096 ,1.01739 ,9.98260 
361 ,67.8863 ,1.42279 ,1.02423 ,10.04976 
362 ,68.0624 ,1.42459 ,1.01396 ,9.94902 
363 ,68.2544 ,1.42639 ,0.99343 ,9.74755 
364 ,68.4466 ,1.42833 ,1.00028 ,9.81471 
365 ,68.6382 ,1.43026 ,0.99343 ,9.74755 
366 ,68.8148 ,1.43203 ,0.99685 ,9.78113 
367 ,68.9904 ,1.43386 ,0.99685 ,9.78113 
368 ,69.1663 ,1.43562 ,0.97290 ,9.54608 
369 ,69.3424 ,1.43735 ,0.97632 ,9.57966 
370 ,69.5188 ,1.43915 ,0.96948 ,9.51250 
371 ,69.7267 ,1.44110 ,0.96605 ,9.47892 
372 ,69.9029 ,1.44299 ,0.95237 ,9.34461 
373 ,70.0791 ,1.44476 ,0.97290 ,9.54608 
374 ,70.2711 ,1.44655 ,0.96605 ,9.47892 
375 ,70.4473 ,1.44843 ,0.94552 ,9.27745 
376 ,70.6233 ,1.45014 ,0.93868 ,9.21030 
377 ,70.7835 ,1.45186 ,0.93525 ,9.17672 
378 ,70.9596 ,1.45356 ,0.92841 ,9.10956 
379 ,71.1516 ,1.45538 ,0.93525 ,9.17672 
380 ,71.3277 ,1.45716 ,0.92499 ,9.07598 
381 ,71.5359 ,1.45925 ,0.92841 ,9.10956 
382 ,71.7279 ,1.46120 ,0.91130 ,8.94167 
383 ,71.9039 ,1.46304 ,0.91472 ,8.97525 
384 ,72.1121 ,1.46493 ,0.91814 ,9.00883 
385 ,72.3037 ,1.46699 ,0.88734 ,8.70662 
386 ,72.4960 ,1.46888 ,0.90103 ,8.84094 
387 ,72.6882 ,1.47079 ,0.87708 ,8.60589 
388 ,72.8640 ,1.47255 ,0.88050 ,8.63947 
389 ,73.0564 ,1.47443 ,0.88734 ,8.70662 
390 ,73.2645 ,1.47652 ,0.88392 ,8.67305 
391 ,73.4566 ,1.47841 ,0.88050 ,8.63947 
392 ,73.6485 ,1.48045 ,0.86339 ,8.47158 
393 ,73.8247 ,1.48217 ,0.84970 ,8.33726 
394 ,74.0167 ,1.48400 ,0.86681 ,8.50515 
395 ,74.1928 ,1.48583 ,0.84628 ,8.30368 
396 ,74.3849 ,1.48768 ,0.84286 ,8.27011 
397 ,74.5605 ,1.48948 ,0.84286 ,8.27011 
398 ,74.7368 ,1.49127 ,0.84628 ,8.30368 
399 ,74.9289 ,1.49313 ,0.81548 ,8.00148 
400 ,75.1212 ,1.49510 ,0.83259 ,8.16937 
401 ,75.3288 ,1.49708 ,0.81206 ,7.96790 
402 ,75.5054 ,1.49892 ,0.80179 ,7.86717 
403 ,75.6973 ,1.50082 ,0.79495 ,7.80001 
404 ,75.8733 ,1.50265 ,0.80179 ,7.86717 
405 ,76.0652 ,1.50449 ,0.79152 ,7.76643 
406 ,76.2416 ,1.50630 ,0.79495 ,7.80001 
407 ,76.4177 ,1.50806 ,0.79152 ,7.76643 
408 ,76.5938 ,1.50982 ,0.77099 ,7.56496 
409 ,76.8016 ,1.51181 ,0.78126 ,7.66570 
410 ,76.9780 ,1.51367 ,0.77784 ,7.63212 
411 ,77.1538 ,1.51544 ,0.74019 ,7.26276 
412 ,77.3461 ,1.51732 ,0.74704 ,7.32991 
413 ,77.5378 ,1.51925 ,0.75046 ,7.36349 
414 ,77.7142 ,1.52106 ,0.73677 ,7.22918 
415 ,77.8903 ,1.52281 ,0.73335 ,7.19560 
416 ,78.0825 ,1.52476 ,0.73677 ,7.22918 
417 ,78.2579 ,1.52644 ,0.74361 ,7.29633 
418 ,78.4503 ,1.52832 ,0.72308 ,7.09486 
419 ,78.6425 ,1.53022 ,0.71281 ,6.99413 
420 ,78.8347 ,1.53214 ,0.71281 ,6.99413 
421 ,79.0268 ,1.53412 ,0.69913 ,6.85982 
422 ,79.2507 ,1.53622 ,0.70255 ,6.89340 
423 ,79.4265 ,1.53813 ,0.67859 ,6.65835 
424 ,79.6029 ,1.53992 ,0.69228 ,6.79266 
425 ,79.7789 ,1.54169 ,0.68886 ,6.75908 
426 ,79.9547 ,1.54341 ,0.67517 ,6.62477 
427 ,80.1309 ,1.54518 ,0.65464 ,6.42330 
428 ,80.3071 ,1.54696 ,0.66833 ,6.55761 
429 ,80.5152 ,1.54892 ,0.66833 ,6.55761 
430 ,80.7071 ,1.55097 ,0.66833 ,6.55761 
431 ,80.9155 ,1.55300 ,0.65464 ,6.42330 
432 ,81.1074 ,1.55489 ,0.65464 ,6.42330 
433 ,81.2994 ,1.55686 ,0.63410 ,6.22183 
434 ,81.5073 ,1.55891 ,0.65121 ,6.38972 
435 ,81.6838 ,1.56071 ,0.64437 ,6.32256 
436 ,81.8756 ,1.56259 ,0.62726 ,6.15467 
437 ,82.0519 ,1.56444 ,0.61699 ,6.05394 
438 ,82.2597 ,1.56632 ,0.61357 ,6.02036 
439 ,82.4680 ,1.56846 ,0.62726 ,6.15467 
440 ,82.6599 ,1.57037 ,0.60673 ,5.95320 
441 ,82.8522 ,1.57243 ,0.61015 ,5.98678 
442 ,83.0281 ,1.57415 ,0.62384 ,6.12109 
443 ,83.2203 ,1.57606 ,0.59988 ,5.88605 
444 ,83.3964 ,1.57785 ,0.59304 ,5.81889 
445 ,83.6040 ,1.57989 ,0.59304 ,5.81889 
446 ,83.7964 ,1.58180 ,0.58962 ,5.78531 
447 ,83.9889 ,1.58377 ,0.59646 ,5.85247 
448 ,84.1808 ,1.58562 ,0.58277 ,5.71815 
449 ,84.3885 ,1.58769 ,0.59304 ,5.81889 
450 ,84.5650 ,1.58955 ,0.57935 ,5.68458 
451 ,84.7406 ,1.59133 ,0.57251 ,5.61742 
452 ,84.9172 ,1.59302 ,0.57251 ,5.61742 
453 ,85.0931 ,1.59481 ,0.57593 ,5.65100 
454 ,85.3013 ,1.59681 ,0.56566 ,5.55026 
455 ,85.4934 ,1.59869 ,0.57593 ,5.65100 
456 ,85.7013 ,1.60075 ,0.54855 ,5.38237 
457 ,85.9095 ,1.60287 ,0.55197 ,5.41595 
458 ,86.1015 ,1.60491 ,0.54513 ,5.34879 
459 ,86.2777 ,1.60665 ,0.54513 ,5.34879 
460 ,86.4538 ,1.60841 ,0.53486 ,5.24806 
461 ,86.6298 ,1.61013 ,0.54171 ,5.31522 
462 ,86.8056 ,1.61190 ,0.53828 ,5.28164 
463 ,86.9821 ,1.61372 ,0.53144 ,5.21448 
464 ,87.1741 ,1.61560 ,0.53486 ,5.24806 
465 ,87.3660 ,1.61742 ,0.52459 ,5.14732 
