Data stamp = , 22-04-2022 14:21:00 542

Calibration Values: 
Slope = , 26.54 , g/V 
Offset Voltage at no contact = , -0.501760 , V 

No , Time , Stage Position ,   Mass , Force 
   ,  (s) ,      (mm)      ,   (g)  , (mN)  

1 ,0.0000 ,0.69951 ,5.39092 ,52.89567 
2 ,0.2085 ,0.69960 ,5.40118 ,52.99640 
3 ,0.5291 ,0.70041 ,5.39434 ,52.92925 
4 ,0.7372 ,0.70190 ,5.40118 ,52.99640 
5 ,0.9292 ,0.70352 ,5.39776 ,52.96282 
6 ,1.1050 ,0.70534 ,5.39092 ,52.89567 
7 ,1.2974 ,0.70719 ,5.40460 ,53.02998 
8 ,1.5055 ,0.70922 ,5.37381 ,52.72778 
9 ,1.6976 ,0.71121 ,5.39434 ,52.92925 
10 ,1.8896 ,0.71318 ,5.37723 ,52.76135 
11 ,2.0817 ,0.71505 ,5.35669 ,52.55988 
12 ,2.2733 ,0.71704 ,5.35669 ,52.55988 
13 ,2.4659 ,0.71894 ,5.32247 ,52.22410 
14 ,2.6577 ,0.72091 ,5.32589 ,52.25768 
15 ,2.8340 ,0.72266 ,5.30536 ,52.05621 
16 ,3.0101 ,0.72438 ,5.28825 ,51.88832 
17 ,3.1858 ,0.72615 ,5.26772 ,51.68685 
18 ,3.3616 ,0.72783 ,5.24034 ,51.41822 
19 ,3.5383 ,0.72967 ,5.23350 ,51.35107 
20 ,3.7299 ,0.73156 ,5.19927 ,51.01528 
21 ,3.9226 ,0.73340 ,5.17874 ,50.81381 
22 ,4.0984 ,0.73531 ,5.18901 ,50.91455 
23 ,4.2904 ,0.73714 ,5.16505 ,50.67950 
24 ,4.4825 ,0.73901 ,5.13425 ,50.37729 
25 ,4.6587 ,0.74085 ,5.13425 ,50.37729 
26 ,4.8506 ,0.74273 ,5.08977 ,49.94078 
27 ,5.0427 ,0.74467 ,5.08292 ,49.87362 
28 ,5.2189 ,0.74643 ,5.07950 ,49.84004 
29 ,5.3948 ,0.74825 ,5.05554 ,49.60499 
30 ,5.5708 ,0.74997 ,5.02817 ,49.33637 
31 ,5.7631 ,0.75197 ,5.00421 ,49.10132 
32 ,5.9553 ,0.75385 ,5.00763 ,49.13490 
33 ,6.1474 ,0.75567 ,4.97683 ,48.83269 
34 ,6.3713 ,0.75787 ,4.94946 ,48.56407 
35 ,6.5630 ,0.75993 ,4.92892 ,48.36260 
36 ,6.7555 ,0.76181 ,4.92892 ,48.36260 
37 ,6.9314 ,0.76361 ,4.89470 ,48.02681 
38 ,7.1077 ,0.76541 ,4.89470 ,48.02681 
39 ,7.2835 ,0.76714 ,4.86048 ,47.69103 
40 ,7.4599 ,0.76889 ,4.84337 ,47.52314 
41 ,7.6515 ,0.77073 ,4.82626 ,47.35525 
42 ,7.8279 ,0.77253 ,4.81599 ,47.25451 
43 ,8.0038 ,0.77427 ,4.79888 ,47.08662 
44 ,8.1801 ,0.77605 ,4.78861 ,46.98589 
45 ,8.3722 ,0.77801 ,4.77835 ,46.88515 
46 ,8.5641 ,0.77984 ,4.74413 ,46.54937 
47 ,8.7398 ,0.78167 ,4.73386 ,46.44863 
48 ,8.9323 ,0.78349 ,4.72359 ,46.34790 
49 ,9.1242 ,0.78554 ,4.69622 ,46.07927 
50 ,9.3005 ,0.78727 ,4.68253 ,45.94496 
51 ,9.4926 ,0.78911 ,4.65515 ,45.67633 
52 ,9.6687 ,0.79100 ,4.65173 ,45.64275 
53 ,9.8767 ,0.79297 ,4.65173 ,45.64275 
54 ,10.0368 ,0.79472 ,4.61751 ,45.30697 
55 ,10.2129 ,0.79642 ,4.61066 ,45.23981 
56 ,10.4051 ,0.79825 ,4.58671 ,45.00477 
57 ,10.5967 ,0.80015 ,4.58328 ,44.97119 
58 ,10.7731 ,0.80203 ,4.56617 ,44.80330 
59 ,10.9652 ,0.80391 ,4.52853 ,44.43394 
60 ,11.1732 ,0.80587 ,4.51484 ,44.29962 
61 ,11.3654 ,0.80784 ,4.49773 ,44.13173 
62 ,11.5575 ,0.80980 ,4.49773 ,44.13173 
63 ,11.7814 ,0.81189 ,4.48746 ,44.03100 
64 ,11.9731 ,0.81388 ,4.45666 ,43.72879 
65 ,12.1497 ,0.81576 ,4.42586 ,43.42659 
66 ,12.3578 ,0.81779 ,4.42586 ,43.42659 
67 ,12.5498 ,0.81971 ,4.39164 ,43.09080 
68 ,12.7417 ,0.82162 ,4.38480 ,43.02365 
69 ,12.9182 ,0.82345 ,4.38138 ,42.99007 
70 ,13.1101 ,0.82538 ,4.35058 ,42.68786 
71 ,13.3020 ,0.82725 ,4.33689 ,42.55355 
72 ,13.4781 ,0.82898 ,4.32320 ,42.41924 
73 ,13.6382 ,0.83073 ,4.30951 ,42.28492 
74 ,13.8143 ,0.83241 ,4.30267 ,42.21777 
75 ,13.9901 ,0.83414 ,4.28213 ,42.01630 
76 ,14.1665 ,0.83588 ,4.25133 ,41.71409 
77 ,14.3585 ,0.83782 ,4.25133 ,41.71409 
78 ,14.5504 ,0.83968 ,4.21711 ,41.37831 
79 ,14.7267 ,0.84153 ,4.20342 ,41.24400 
80 ,14.9026 ,0.84327 ,4.18631 ,41.07611 
81 ,15.0948 ,0.84515 ,4.16920 ,40.90821 
82 ,15.2867 ,0.84710 ,4.15551 ,40.77390 
83 ,15.4789 ,0.84898 ,4.15551 ,40.77390 
84 ,15.6550 ,0.85080 ,4.13840 ,40.60601 
85 ,15.8630 ,0.85277 ,4.11445 ,40.37096 
86 ,16.0550 ,0.85470 ,4.09734 ,40.20307 
87 ,16.2309 ,0.85656 ,4.08365 ,40.06876 
88 ,16.4233 ,0.85840 ,4.06654 ,39.90087 
89 ,16.5991 ,0.86025 ,4.04600 ,39.69940 
90 ,16.7755 ,0.86201 ,4.03916 ,39.63224 
91 ,16.9675 ,0.86386 ,4.00152 ,39.26288 
92 ,17.1755 ,0.86590 ,4.00494 ,39.29646 
93 ,17.3516 ,0.86780 ,3.97414 ,38.99425 
94 ,17.5278 ,0.86949 ,3.97414 ,38.99425 
95 ,17.7038 ,0.87124 ,3.94676 ,38.72562 
96 ,17.8800 ,0.87303 ,3.95018 ,38.75920 
97 ,18.0720 ,0.87485 ,3.91938 ,38.45700 
98 ,18.2480 ,0.87675 ,3.91254 ,38.38984 
99 ,18.4401 ,0.87857 ,3.90227 ,38.28911 
100 ,18.6162 ,0.88042 ,3.88174 ,38.08764 
101 ,18.7923 ,0.88211 ,3.86463 ,37.91975 
102 ,18.9844 ,0.88399 ,3.83725 ,37.65112 
103 ,19.1924 ,0.88619 ,3.81672 ,37.44965 
104 ,19.3844 ,0.88809 ,3.81330 ,37.41607 
105 ,19.5767 ,0.88997 ,3.79961 ,37.28176 
106 ,19.7687 ,0.89194 ,3.77565 ,37.04671 
107 ,19.9610 ,0.89382 ,3.77565 ,37.04671 
108 ,20.1688 ,0.89586 ,3.74143 ,36.71093 
109 ,20.3452 ,0.89771 ,3.71748 ,36.47588 
110 ,20.5371 ,0.89962 ,3.71063 ,36.40872 
111 ,20.7129 ,0.90131 ,3.71063 ,36.40872 
112 ,20.8892 ,0.90312 ,3.68668 ,36.17367 
113 ,21.0652 ,0.90488 ,3.66614 ,35.97220 
114 ,21.2415 ,0.90663 ,3.64561 ,35.77073 
115 ,21.4174 ,0.90839 ,3.65246 ,35.83789 
116 ,21.5930 ,0.91019 ,3.64219 ,35.73716 
117 ,21.7696 ,0.91189 ,3.60454 ,35.36779 
118 ,21.9776 ,0.91393 ,3.60112 ,35.33422 
119 ,22.1537 ,0.91575 ,3.58743 ,35.19990 
120 ,22.3298 ,0.91750 ,3.57717 ,35.09917 
121 ,22.5215 ,0.91938 ,3.54637 ,34.79696 
122 ,22.6818 ,0.92115 ,3.52926 ,34.62907 
123 ,22.8578 ,0.92279 ,3.52584 ,34.59549 
124 ,23.0501 ,0.92462 ,3.49846 ,34.32687 
125 ,23.2266 ,0.92650 ,3.47450 ,34.09182 
126 ,23.4182 ,0.92839 ,3.47108 ,34.05824 
127 ,23.5942 ,0.93017 ,3.46424 ,33.99108 
128 ,23.7700 ,0.93189 ,3.45055 ,33.85677 
129 ,23.9465 ,0.93368 ,3.42317 ,33.58814 
130 ,24.1543 ,0.93559 ,3.42317 ,33.58814 
131 ,24.3466 ,0.93769 ,3.38553 ,33.21878 
132 ,24.5228 ,0.93942 ,3.36499 ,33.01731 
133 ,24.7149 ,0.94130 ,3.36157 ,32.98374 
134 ,24.9231 ,0.94339 ,3.34788 ,32.84942 
135 ,25.0989 ,0.94518 ,3.33077 ,32.68153 
136 ,25.2750 ,0.94699 ,3.32051 ,32.58080 
137 ,25.4509 ,0.94868 ,3.30339 ,32.41290 
138 ,25.6267 ,0.95049 ,3.28286 ,32.21143 
139 ,25.8032 ,0.95224 ,3.25891 ,31.97639 
140 ,25.9795 ,0.95400 ,3.25206 ,31.90923 
141 ,26.1874 ,0.95591 ,3.22468 ,31.64060 
142 ,26.3635 ,0.95783 ,3.20757 ,31.47271 
143 ,26.5556 ,0.95965 ,3.23153 ,31.70776 
144 ,26.7476 ,0.96168 ,3.18020 ,31.20409 
145 ,26.9233 ,0.96346 ,3.16651 ,31.06977 
146 ,27.0998 ,0.96521 ,3.15624 ,30.96904 
147 ,27.2919 ,0.96713 ,3.15624 ,30.96904 
148 ,27.4841 ,0.96898 ,3.11860 ,30.59968 
149 ,27.6919 ,0.97108 ,3.11860 ,30.59968 
150 ,27.8841 ,0.97299 ,3.09122 ,30.33105 
151 ,28.0600 ,0.97474 ,3.07069 ,30.12958 
152 ,28.2363 ,0.97655 ,3.07411 ,30.16316 
153 ,28.4442 ,0.97854 ,3.04673 ,29.89453 
154 ,28.6362 ,0.98041 ,3.02278 ,29.65948 
155 ,28.8283 ,0.98245 ,3.00567 ,29.49159 
156 ,29.0045 ,0.98423 ,2.98855 ,29.32370 
157 ,29.1964 ,0.98620 ,2.98855 ,29.32370 
158 ,29.3887 ,0.98806 ,2.97144 ,29.15581 
159 ,29.5803 ,0.98999 ,2.95091 ,28.95434 
160 ,29.7569 ,0.99179 ,2.93722 ,28.82003 
161 ,29.9810 ,0.99383 ,2.93722 ,28.82003 
162 ,30.1566 ,0.99580 ,2.92011 ,28.65213 
163 ,30.3328 ,0.99755 ,2.90300 ,28.48424 
164 ,30.5251 ,0.99939 ,2.86536 ,28.11488 
165 ,30.7011 ,1.00121 ,2.85851 ,28.04772 
166 ,30.8933 ,1.00305 ,2.85851 ,28.04772 
167 ,31.0693 ,1.00491 ,2.82087 ,27.67836 
168 ,31.2451 ,1.00662 ,2.80718 ,27.54405 
169 ,31.4375 ,1.00853 ,2.80718 ,27.54405 
170 ,31.6294 ,1.01044 ,2.79349 ,27.40974 
171 ,31.8215 ,1.01237 ,2.76611 ,27.14111 
172 ,32.0299 ,1.01446 ,2.75243 ,27.00680 
173 ,32.2378 ,1.01651 ,2.73874 ,26.87248 
174 ,32.3978 ,1.01825 ,2.72163 ,26.70459 
175 ,32.5739 ,1.01988 ,2.71136 ,26.60386 
176 ,32.7501 ,1.02173 ,2.69767 ,26.46954 
177 ,32.9264 ,1.02344 ,2.67029 ,26.20092 
178 ,33.1502 ,1.02565 ,2.64976 ,25.99945 
179 ,33.3263 ,1.02745 ,2.63949 ,25.89871 
180 ,33.5024 ,1.02919 ,2.61896 ,25.69724 
181 ,33.7105 ,1.03119 ,2.61896 ,25.69724 
182 ,33.9026 ,1.03312 ,2.60185 ,25.52935 
183 ,34.0947 ,1.03510 ,2.58816 ,25.39504 
184 ,34.3028 ,1.03711 ,2.56421 ,25.15999 
185 ,34.4785 ,1.03900 ,2.55394 ,25.05926 
186 ,34.6545 ,1.04074 ,2.52314 ,24.75705 
187 ,34.8308 ,1.04246 ,2.52998 ,24.82421 
188 ,35.0230 ,1.04443 ,2.49576 ,24.48842 
189 ,35.1986 ,1.04613 ,2.48892 ,24.42127 
190 ,35.3747 ,1.04797 ,2.47181 ,24.25338 
191 ,35.5668 ,1.04975 ,2.46496 ,24.18622 
192 ,35.7592 ,1.05168 ,2.44443 ,23.98475 
193 ,35.9835 ,1.05396 ,2.41021 ,23.64897 
194 ,36.1756 ,1.05580 ,2.39994 ,23.54823 
195 ,36.3676 ,1.05779 ,2.38968 ,23.44750 
196 ,36.5435 ,1.05957 ,2.36230 ,23.17887 
197 ,36.7355 ,1.06149 ,2.37599 ,23.31318 
198 ,36.9279 ,1.06332 ,2.34861 ,23.04456 
199 ,37.1039 ,1.06515 ,2.32123 ,22.77593 
200 ,37.2799 ,1.06703 ,2.31439 ,22.70877 
201 ,37.4561 ,1.06869 ,2.30412 ,22.60804 
202 ,37.6321 ,1.07049 ,2.30070 ,22.57446 
203 ,37.8082 ,1.07218 ,2.26990 ,22.27226 
204 ,38.0163 ,1.07426 ,2.26990 ,22.27226 
205 ,38.2083 ,1.07619 ,2.23568 ,21.93647 
206 ,38.4002 ,1.07807 ,2.22883 ,21.86932 
207 ,38.5923 ,1.08003 ,2.20488 ,21.63427 
208 ,38.7682 ,1.08181 ,2.19461 ,21.53353 
209 ,38.9606 ,1.08372 ,2.17408 ,21.33206 
210 ,39.1845 ,1.08586 ,2.16381 ,21.23133 
211 ,39.3768 ,1.08795 ,2.16039 ,21.19775 
212 ,39.5686 ,1.08981 ,2.12275 ,20.82839 
213 ,39.7606 ,1.09164 ,2.11248 ,20.72766 
214 ,39.9365 ,1.09350 ,2.08510 ,20.45903 
215 ,40.1127 ,1.09525 ,2.08168 ,20.42545 
216 ,40.2891 ,1.09703 ,2.07826 ,20.39187 
217 ,40.4648 ,1.09881 ,2.04404 ,20.05609 
218 ,40.6412 ,1.10053 ,2.03719 ,19.98893 
219 ,40.8334 ,1.10251 ,2.03035 ,19.92178 
220 ,41.0094 ,1.10422 ,2.02350 ,19.85462 
221 ,41.2014 ,1.10605 ,2.00297 ,19.65315 
222 ,41.3775 ,1.10792 ,1.98586 ,19.48526 
223 ,41.5533 ,1.10970 ,1.98928 ,19.51884 
224 ,41.7295 ,1.11140 ,1.96533 ,19.28379 
225 ,41.9219 ,1.11335 ,1.93111 ,18.94801 
226 ,42.0978 ,1.11510 ,1.92084 ,18.84727 
227 ,42.3058 ,1.11717 ,1.90031 ,18.64580 
228 ,42.4820 ,1.11899 ,1.88662 ,18.51149 
229 ,42.6581 ,1.12071 ,1.87293 ,18.37717 
230 ,42.8501 ,1.12255 ,1.86266 ,18.27644 
231 ,43.0261 ,1.12442 ,1.85240 ,18.17570 
232 ,43.2023 ,1.12621 ,1.83528 ,18.00781 
233 ,43.3943 ,1.12810 ,1.82844 ,17.94066 
234 ,43.5705 ,1.12990 ,1.80449 ,17.70561 
235 ,43.7465 ,1.13160 ,1.78737 ,17.53772 
236 ,43.9387 ,1.13351 ,1.77369 ,17.40340 
237 ,44.1303 ,1.13535 ,1.77369 ,17.40340 
238 ,44.3229 ,1.13730 ,1.74631 ,17.13478 
239 ,44.5306 ,1.13933 ,1.74289 ,17.10120 
240 ,44.7067 ,1.14118 ,1.72578 ,16.93331 
241 ,44.8830 ,1.14293 ,1.69498 ,16.63110 
242 ,45.0752 ,1.14476 ,1.70182 ,16.69826 
243 ,45.2832 ,1.14689 ,1.66760 ,16.36248 
244 ,45.4913 ,1.14899 ,1.67102 ,16.39605 
245 ,45.6994 ,1.15092 ,1.63338 ,16.02669 
246 ,45.8914 ,1.15303 ,1.63680 ,16.06027 
247 ,46.0995 ,1.15507 ,1.61969 ,15.89238 
248 ,46.2754 ,1.15685 ,1.60258 ,15.72449 
249 ,46.4677 ,1.15877 ,1.59573 ,15.65733 
250 ,46.6597 ,1.16072 ,1.57178 ,15.42228 
251 ,46.8516 ,1.16262 ,1.56151 ,15.32155 
252 ,47.0438 ,1.16451 ,1.52387 ,14.95219 
253 ,47.2200 ,1.16629 ,1.51018 ,14.81787 
254 ,47.3955 ,1.16813 ,1.52387 ,14.95219 
255 ,47.5719 ,1.16983 ,1.51018 ,14.81787 
256 ,47.7483 ,1.17161 ,1.49991 ,14.71714 
257 ,47.9401 ,1.17349 ,1.45885 ,14.31420 
258 ,48.1162 ,1.17529 ,1.44174 ,14.14631 
259 ,48.3083 ,1.17722 ,1.45542 ,14.28062 
260 ,48.5002 ,1.17902 ,1.42462 ,13.97842 
261 ,48.6765 ,1.18087 ,1.40409 ,13.77695 
262 ,48.8684 ,1.18275 ,1.40751 ,13.81053 
263 ,49.0445 ,1.18454 ,1.39040 ,13.64263 
264 ,49.2525 ,1.18658 ,1.37671 ,13.50832 
265 ,49.4449 ,1.18846 ,1.34591 ,13.20612 
266 ,49.6526 ,1.19059 ,1.33907 ,13.13896 
267 ,49.8292 ,1.19238 ,1.33565 ,13.10538 
268 ,50.0208 ,1.19426 ,1.29458 ,12.70244 
269 ,50.2132 ,1.19617 ,1.29116 ,12.66886 
270 ,50.4051 ,1.19813 ,1.27747 ,12.53455 
271 ,50.5969 ,1.20001 ,1.26036 ,12.36666 
272 ,50.8052 ,1.20199 ,1.25694 ,12.33308 
273 ,50.9973 ,1.20406 ,1.22614 ,12.03088 
274 ,51.1734 ,1.20581 ,1.21245 ,11.89656 
275 ,51.3496 ,1.20759 ,1.20561 ,11.82941 
276 ,51.5257 ,1.20939 ,1.20561 ,11.82941 
277 ,51.7012 ,1.21113 ,1.19534 ,11.72867 
278 ,51.8778 ,1.21288 ,1.17138 ,11.49362 
279 ,52.0537 ,1.21467 ,1.15085 ,11.29215 
280 ,52.2620 ,1.21669 ,1.14401 ,11.22500 
281 ,52.4700 ,1.21874 ,1.13374 ,11.12426 
282 ,52.6462 ,1.22057 ,1.12347 ,11.02353 
283 ,52.8382 ,1.22244 ,1.08241 ,10.62059 
284 ,53.0302 ,1.22438 ,1.08583 ,10.65416 
285 ,53.2064 ,1.22617 ,1.07899 ,10.58701 
286 ,53.3984 ,1.22811 ,1.05503 ,10.35196 
287 ,53.5904 ,1.22996 ,1.05845 ,10.38554 
288 ,53.7666 ,1.23178 ,1.04134 ,10.21765 
289 ,53.9587 ,1.23368 ,1.01739 ,9.98260 
290 ,54.1507 ,1.23564 ,1.01739 ,9.98260 
291 ,54.3270 ,1.23736 ,1.01054 ,9.91544 
292 ,54.5188 ,1.23929 ,0.97632 ,9.57966 
293 ,54.6950 ,1.24105 ,0.95921 ,9.41177 
294 ,54.8707 ,1.24281 ,0.95921 ,9.41177 
295 ,55.0629 ,1.24464 ,0.94894 ,9.31103 
296 ,55.2871 ,1.24692 ,0.93183 ,9.14314 
297 ,55.4634 ,1.24875 ,0.92157 ,9.04241 
298 ,55.6553 ,1.25057 ,0.89419 ,8.77378 
299 ,55.8312 ,1.25239 ,0.88050 ,8.63947 
300 ,56.0235 ,1.25431 ,0.88050 ,8.63947 
301 ,56.1994 ,1.25611 ,0.87023 ,8.53873 
302 ,56.3755 ,1.25780 ,0.85654 ,8.40442 
303 ,56.5517 ,1.25959 ,0.82575 ,8.10221 
304 ,56.7438 ,1.26141 ,0.82575 ,8.10221 
305 ,56.9198 ,1.26329 ,0.82575 ,8.10221 
306 ,57.0958 ,1.26503 ,0.78810 ,7.73285 
307 ,57.2719 ,1.26678 ,0.78810 ,7.73285 
308 ,57.4481 ,1.26857 ,0.78468 ,7.69927 
309 ,57.6562 ,1.27055 ,0.75730 ,7.43065 
310 ,57.8483 ,1.27252 ,0.75730 ,7.43065 
311 ,58.0404 ,1.27443 ,0.72992 ,7.16202 
312 ,58.2484 ,1.27654 ,0.71624 ,7.02771 
313 ,58.4565 ,1.27854 ,0.68886 ,6.75908 
314 ,58.6487 ,1.28051 ,0.69570 ,6.82624 
315 ,58.8567 ,1.28261 ,0.66148 ,6.49046 
316 ,59.0648 ,1.28454 ,0.66490 ,6.52403 
317 ,59.2569 ,1.28656 ,0.64095 ,6.28899 
318 ,59.4483 ,1.28860 ,0.64095 ,6.28899 
319 ,59.6246 ,1.29035 ,0.63068 ,6.18825 
320 ,59.7846 ,1.29202 ,0.62042 ,6.08752 
321 ,59.9609 ,1.29368 ,0.60330 ,5.91962 
322 ,60.1532 ,1.29550 ,0.57251 ,5.61742 
323 ,60.3453 ,1.29756 ,0.57251 ,5.61742 
324 ,60.5374 ,1.29945 ,0.55882 ,5.48311 
325 ,60.7296 ,1.30136 ,0.52802 ,5.18090 
326 ,60.9213 ,1.30319 ,0.53144 ,5.21448 
327 ,61.1136 ,1.30512 ,0.51433 ,5.04659 
328 ,61.2893 ,1.30689 ,0.50406 ,4.94585 
329 ,61.4657 ,1.30872 ,0.49037 ,4.81154 
330 ,61.6578 ,1.31063 ,0.48695 ,4.77796 
331 ,61.8338 ,1.31240 ,0.46300 ,4.54291 
332 ,62.0261 ,1.31423 ,0.46300 ,4.54291 
333 ,62.2020 ,1.31607 ,0.45957 ,4.50934 
334 ,62.3936 ,1.31795 ,0.42877 ,4.20713 
335 ,62.5701 ,1.31982 ,0.43220 ,4.24071 
336 ,62.7619 ,1.32167 ,0.42193 ,4.13997 
337 ,62.9541 ,1.32352 ,0.38086 ,3.73703 
338 ,63.1462 ,1.32546 ,0.38771 ,3.80419 
339 ,63.3384 ,1.32741 ,0.37402 ,3.66988 
340 ,63.5144 ,1.32919 ,0.34664 ,3.40125 
341 ,63.6904 ,1.33094 ,0.34322 ,3.36767 
342 ,63.8667 ,1.33275 ,0.34322 ,3.36767 
343 ,64.0588 ,1.33460 ,0.32953 ,3.23336 
344 ,64.2668 ,1.33671 ,0.31584 ,3.09905 
345 ,64.4749 ,1.33871 ,0.28847 ,2.83042 
346 ,64.6670 ,1.34070 ,0.26793 ,2.62895 
347 ,64.8749 ,1.34274 ,0.27135 ,2.66253 
348 ,65.0509 ,1.34457 ,0.25424 ,2.49464 
349 ,65.2272 ,1.34630 ,0.24055 ,2.36032 
350 ,65.4031 ,1.34812 ,0.25082 ,2.46106 
351 ,65.5794 ,1.34984 ,0.24398 ,2.39390 
352 ,65.7713 ,1.35169 ,0.19607 ,1.92381 
353 ,65.9636 ,1.35369 ,0.21660 ,2.12528 
354 ,66.1877 ,1.35575 ,0.18922 ,1.85665 
355 ,66.3638 ,1.35768 ,0.18580 ,1.82307 
356 ,66.5399 ,1.35943 ,0.17553 ,1.72234 
357 ,66.7316 ,1.36133 ,0.15158 ,1.48729 
358 ,66.9081 ,1.36311 ,0.13789 ,1.35298 
359 ,67.0996 ,1.36503 ,0.11051 ,1.08435 
360 ,67.2922 ,1.36697 ,0.10709 ,1.05077 
361 ,67.4842 ,1.36891 ,0.11393 ,1.11793 
362 ,67.6604 ,1.37061 ,0.09340 ,0.91646 
363 ,67.8520 ,1.37252 ,0.07287 ,0.71499 
364 ,68.0445 ,1.37440 ,0.07287 ,0.71499 
365 ,68.2366 ,1.37631 ,0.04207 ,0.41278 
366 ,68.4286 ,1.37828 ,0.04549 ,0.44636 
367 ,68.6047 ,1.38007 ,0.04207 ,0.41278 
368 ,68.7808 ,1.38187 ,0.02838 ,0.27847 
369 ,68.9731 ,1.38375 ,0.00100 ,0.00984 
370 ,69.1650 ,1.38568 ,-0.00242 ,-0.02373 
371 ,69.3572 ,1.38758 ,-0.01611 ,-0.15805 
372 ,69.5491 ,1.38946 ,-0.02980 ,-0.29236 
373 ,69.7253 ,1.39130 ,-0.03322 ,-0.32594 
374 ,69.9168 ,1.39312 ,-0.03322 ,-0.32594 
375 ,70.0932 ,1.39494 ,-0.06402 ,-0.62814 
376 ,70.3015 ,1.39702 ,-0.07086 ,-0.69530 
377 ,70.5094 ,1.39902 ,-0.09140 ,-0.89677 
378 ,70.6856 ,1.40089 ,-0.09140 ,-0.89677 
379 ,70.8774 ,1.40278 ,-0.10166 ,-0.99751 
380 ,71.0698 ,1.40468 ,-0.13588 ,-1.33329 
381 ,71.2615 ,1.40663 ,-0.12904 ,-1.26613 
382 ,71.4539 ,1.40852 ,-0.14957 ,-1.46760 
383 ,71.6299 ,1.41036 ,-0.17011 ,-1.66907 
384 ,71.8056 ,1.41209 ,-0.18037 ,-1.76981 
385 ,71.9820 ,1.41383 ,-0.17011 ,-1.66907 
386 ,72.1583 ,1.41561 ,-0.18379 ,-1.80338 
387 ,72.3663 ,1.41763 ,-0.20090 ,-1.97128 
388 ,72.5741 ,1.41966 ,-0.20433 ,-2.00485 
389 ,72.7664 ,1.42163 ,-0.22828 ,-2.23990 
390 ,72.9585 ,1.42361 ,-0.21459 ,-2.10559 
391 ,73.2783 ,1.42615 ,-0.26250 ,-2.57569 
392 ,73.4546 ,1.42859 ,-0.27619 ,-2.71000 
393 ,73.6466 ,1.43047 ,-0.29673 ,-2.91147 
394 ,73.8227 ,1.43227 ,-0.28304 ,-2.77716 
395 ,73.9988 ,1.43402 ,-0.28988 ,-2.84431 
396 ,74.1749 ,1.43577 ,-0.31041 ,-3.04578 
397 ,74.3671 ,1.43766 ,-0.32410 ,-3.18010 
398 ,74.5591 ,1.43951 ,-0.32752 ,-3.21367 
399 ,74.7514 ,1.44148 ,-0.35490 ,-3.48230 
400 ,74.9274 ,1.44330 ,-0.36175 ,-3.54946 
401 ,75.1352 ,1.44531 ,-0.37544 ,-3.68377 
402 ,75.3110 ,1.44708 ,-0.38228 ,-3.75093 
403 ,75.4874 ,1.44890 ,-0.38570 ,-3.78450 
404 ,75.6956 ,1.45091 ,-0.39597 ,-3.88524 
405 ,75.8715 ,1.45270 ,-0.41308 ,-4.05313 
406 ,76.0478 ,1.45447 ,-0.42677 ,-4.18744 
407 ,76.2398 ,1.45632 ,-0.42335 ,-4.15387 
408 ,76.4314 ,1.45826 ,-0.45757 ,-4.48965 
409 ,76.6079 ,1.46008 ,-0.46099 ,-4.52323 
410 ,76.7998 ,1.46194 ,-0.45072 ,-4.42249 
411 ,76.9919 ,1.46387 ,-0.48837 ,-4.79185 
412 ,77.2000 ,1.46594 ,-0.47468 ,-4.65754 
413 ,77.3920 ,1.46783 ,-0.51232 ,-5.02690 
414 ,77.5843 ,1.46986 ,-0.50890 ,-4.99332 
415 ,77.7923 ,1.47184 ,-0.53285 ,-5.22837 
416 ,77.9845 ,1.47373 ,-0.55339 ,-5.42984 
417 ,78.1765 ,1.47570 ,-0.54312 ,-5.32911 
418 ,78.3528 ,1.47748 ,-0.56023 ,-5.49700 
419 ,78.5443 ,1.47945 ,-0.57734 ,-5.66489 
420 ,78.7207 ,1.48120 ,-0.56708 ,-5.56415 
421 ,78.8969 ,1.48298 ,-0.57734 ,-5.66489 
422 ,79.1050 ,1.48499 ,-0.59103 ,-5.79920 
423 ,79.2971 ,1.48694 ,-0.60472 ,-5.93352 
424 ,79.4891 ,1.48888 ,-0.62525 ,-6.13499 
425 ,79.6811 ,1.49070 ,-0.62183 ,-6.10141 
426 ,79.8734 ,1.49270 ,-0.62525 ,-6.13499 
427 ,80.0974 ,1.49490 ,-0.64579 ,-6.33646 
428 ,80.2735 ,1.49676 ,-0.65605 ,-6.43719 
429 ,80.4654 ,1.49860 ,-0.66974 ,-6.57150 
430 ,80.6896 ,1.50071 ,-0.69370 ,-6.80655 
431 ,80.8657 ,1.50267 ,-0.69370 ,-6.80655 
432 ,81.0577 ,1.50452 ,-0.69370 ,-6.80655 
433 ,81.2339 ,1.50630 ,-0.70396 ,-6.90729 
434 ,81.4262 ,1.50818 ,-0.71765 ,-7.04160 
435 ,81.6180 ,1.51013 ,-0.73134 ,-7.17591 
436 ,81.7936 ,1.51191 ,-0.72450 ,-7.10876 
437 ,81.9861 ,1.51373 ,-0.76898 ,-7.54527 
438 ,82.1783 ,1.51574 ,-0.75872 ,-7.44454 
439 ,82.3543 ,1.51753 ,-0.76214 ,-7.47812 
440 ,82.5303 ,1.51934 ,-0.78952 ,-7.74674 
441 ,82.7065 ,1.52106 ,-0.80663 ,-7.91464 
442 ,82.8987 ,1.52290 ,-0.80663 ,-7.91464 
443 ,83.1067 ,1.52495 ,-0.82374 ,-8.08253 
444 ,83.2986 ,1.52689 ,-0.82032 ,-8.04895 
445 ,83.4748 ,1.52873 ,-0.82716 ,-8.11611 
446 ,83.6669 ,1.53061 ,-0.86823 ,-8.51904 
447 ,83.8266 ,1.53237 ,-0.86481 ,-8.48547 
448 ,84.0192 ,1.53411 ,-0.87165 ,-8.55262 
449 ,84.2272 ,1.53619 ,-0.89903 ,-8.82125 
450 ,84.4033 ,1.53797 ,-0.89218 ,-8.75409 
451 ,84.5954 ,1.53995 ,-0.89218 ,-8.75409 
452 ,84.8031 ,1.54195 ,-0.91956 ,-9.02272 
453 ,84.9793 ,1.54377 ,-0.91614 ,-8.98914 
454 ,85.1550 ,1.54552 ,-0.91614 ,-8.98914 
455 ,85.3314 ,1.54727 ,-0.92983 ,-9.12345 
456 ,85.5236 ,1.54918 ,-0.95720 ,-9.39208 
457 ,85.7477 ,1.55125 ,-0.94351 ,-9.25777 
458 ,85.9235 ,1.55327 ,-0.97089 ,-9.52639 
459 ,86.0999 ,1.55495 ,-0.97774 ,-9.59355 
460 ,86.2919 ,1.55683 ,-0.98800 ,-9.69429 
461 ,86.4680 ,1.55867 ,-0.99485 ,-9.76144 
462 ,86.6760 ,1.56065 ,-1.00169 ,-9.82860 
463 ,86.8521 ,1.56243 ,-1.00854 ,-9.89576 
