Data stamp = , 21-04-2022 18:24:25 902

Calibration Values: 
Slope = , 26.54 , g/V 
Offset Voltage at no contact = , -0.501760 , V 

No , Time , Stage Position ,   Mass , Force 
   ,  (s) ,      (mm)      ,   (g)  , (mN)  

1 ,0.0000 ,0.74942 ,5.04528 ,49.50426 
2 ,0.2222 ,0.74950 ,5.06923 ,49.73931 
3 ,0.5428 ,0.75036 ,5.04185 ,49.47068 
4 ,0.7826 ,0.75207 ,5.03843 ,49.43710 
5 ,0.9907 ,0.75402 ,5.03843 ,49.43710 
6 ,1.1829 ,0.75601 ,5.05897 ,49.63857 
7 ,1.3591 ,0.75774 ,5.05212 ,49.57142 
8 ,1.5351 ,0.75952 ,5.05212 ,49.57142 
9 ,1.7271 ,0.76141 ,5.05554 ,49.60499 
10 ,1.8872 ,0.76319 ,5.03501 ,49.40352 
11 ,2.0633 ,0.76484 ,5.02817 ,49.33637 
12 ,2.2556 ,0.76665 ,5.01106 ,49.16848 
13 ,2.4636 ,0.76879 ,4.99052 ,48.96701 
14 ,2.6717 ,0.77080 ,4.96657 ,48.73196 
15 ,2.8797 ,0.77294 ,4.94603 ,48.53049 
16 ,3.0716 ,0.77484 ,4.92892 ,48.36260 
17 ,3.2639 ,0.77682 ,4.91523 ,48.22828 
18 ,3.4560 ,0.77873 ,4.89128 ,47.99324 
19 ,3.6320 ,0.78061 ,4.88786 ,47.95966 
20 ,3.8080 ,0.78231 ,4.87075 ,47.79177 
21 ,3.9840 ,0.78403 ,4.85364 ,47.62387 
22 ,4.1602 ,0.78578 ,4.82626 ,47.35525 
23 ,4.3362 ,0.78755 ,4.81941 ,47.28809 
24 ,4.5280 ,0.78935 ,4.79204 ,47.01946 
25 ,4.7042 ,0.79118 ,4.78519 ,46.95231 
26 ,4.8802 ,0.79297 ,4.75782 ,46.68368 
27 ,5.0724 ,0.79483 ,4.76124 ,46.71726 
28 ,5.2486 ,0.79669 ,4.73728 ,46.48221 
29 ,5.4248 ,0.79842 ,4.71675 ,46.28074 
30 ,5.6168 ,0.80026 ,4.68937 ,46.01212 
31 ,5.8249 ,0.80238 ,4.67568 ,45.87780 
32 ,6.0329 ,0.80445 ,4.67568 ,45.87780 
33 ,6.2090 ,0.80625 ,4.66199 ,45.74349 
34 ,6.3852 ,0.80805 ,4.63119 ,45.44128 
35 ,6.5772 ,0.80991 ,4.60382 ,45.17266 
36 ,6.7690 ,0.81174 ,4.60382 ,45.17266 
37 ,6.9612 ,0.81371 ,4.58328 ,44.97119 
38 ,7.1536 ,0.81565 ,4.56960 ,44.83688 
39 ,7.3296 ,0.81750 ,4.54564 ,44.60183 
40 ,7.5216 ,0.81934 ,4.52169 ,44.36678 
41 ,7.6976 ,0.82113 ,4.50115 ,44.16531 
42 ,7.8733 ,0.82294 ,4.49431 ,44.09815 
43 ,8.0656 ,0.82479 ,4.49089 ,44.06457 
44 ,8.2737 ,0.82686 ,4.47378 ,43.89668 
45 ,8.4820 ,0.82888 ,4.43271 ,43.49374 
46 ,8.6739 ,0.83085 ,4.42586 ,43.42659 
47 ,8.8502 ,0.83267 ,4.41560 ,43.32585 
48 ,9.0261 ,0.83439 ,4.40875 ,43.25870 
49 ,9.2023 ,0.83616 ,4.36427 ,42.82218 
50 ,9.3784 ,0.83798 ,4.35400 ,42.72144 
51 ,9.6025 ,0.84002 ,4.34716 ,42.65429 
52 ,9.7943 ,0.84204 ,4.33347 ,42.51997 
53 ,9.9707 ,0.84388 ,4.31978 ,42.38566 
54 ,10.1786 ,0.84586 ,4.29240 ,42.11703 
55 ,10.3547 ,0.84776 ,4.29240 ,42.11703 
56 ,10.5308 ,0.84949 ,4.28556 ,42.04988 
57 ,10.7389 ,0.85145 ,4.24449 ,41.64694 
58 ,10.9306 ,0.85346 ,4.24449 ,41.64694 
59 ,11.1226 ,0.85537 ,4.20342 ,41.24400 
60 ,11.2991 ,0.85719 ,4.19658 ,41.17684 
61 ,11.5072 ,0.85911 ,4.18974 ,41.10968 
62 ,11.6992 ,0.86105 ,4.16578 ,40.87464 
63 ,11.8752 ,0.86293 ,4.15209 ,40.74032 
64 ,12.0672 ,0.86481 ,4.14525 ,40.67317 
65 ,12.2430 ,0.86658 ,4.11787 ,40.40454 
66 ,12.4195 ,0.86831 ,4.09734 ,40.20307 
67 ,12.5953 ,0.87010 ,4.09391 ,40.16949 
68 ,12.7717 ,0.87187 ,4.09391 ,40.16949 
69 ,12.9638 ,0.87376 ,4.05969 ,39.83371 
70 ,13.1559 ,0.87574 ,4.04943 ,39.73297 
71 ,13.3319 ,0.87746 ,4.04258 ,39.66582 
72 ,13.5080 ,0.87920 ,4.02205 ,39.46435 
73 ,13.7161 ,0.88124 ,4.00836 ,39.33003 
74 ,13.9080 ,0.88312 ,3.99467 ,39.19572 
75 ,14.0841 ,0.88494 ,3.96729 ,38.92709 
76 ,14.2760 ,0.88691 ,3.95703 ,38.82636 
77 ,14.4681 ,0.88874 ,3.94334 ,38.69205 
78 ,14.6443 ,0.89065 ,3.93650 ,38.62489 
79 ,14.8201 ,0.89233 ,3.89885 ,38.25553 
80 ,14.9966 ,0.89406 ,3.90227 ,38.28911 
81 ,15.1727 ,0.89586 ,3.89201 ,38.18837 
82 ,15.3643 ,0.89783 ,3.87490 ,38.02048 
83 ,15.5408 ,0.89957 ,3.84410 ,37.71828 
84 ,15.7489 ,0.90157 ,3.82699 ,37.55038 
85 ,15.9409 ,0.90352 ,3.81330 ,37.41607 
86 ,16.1331 ,0.90545 ,3.81330 ,37.41607 
87 ,16.3251 ,0.90733 ,3.77223 ,37.01313 
88 ,16.5012 ,0.90922 ,3.77908 ,37.08029 
89 ,16.6772 ,0.91094 ,3.75170 ,36.81166 
90 ,16.8532 ,0.91269 ,3.74828 ,36.77808 
91 ,17.2214 ,0.91619 ,3.70379 ,36.34157 
92 ,17.4135 ,0.91826 ,3.71063 ,36.40872 
93 ,17.6215 ,0.92020 ,3.66614 ,35.97220 
94 ,17.8136 ,0.92225 ,3.67641 ,36.07294 
95 ,18.0056 ,0.92412 ,3.62850 ,35.60284 
96 ,18.1978 ,0.92606 ,3.62850 ,35.60284 
97 ,18.3898 ,0.92801 ,3.62166 ,35.53569 
98 ,18.5817 ,0.92994 ,3.60454 ,35.36779 
99 ,18.7581 ,0.93177 ,3.58743 ,35.19990 
100 ,18.9502 ,0.93364 ,3.57375 ,35.06559 
101 ,19.1422 ,0.93550 ,3.54295 ,34.76338 
102 ,19.3342 ,0.93740 ,3.53610 ,34.69623 
103 ,19.5103 ,0.93926 ,3.52584 ,34.59549 
104 ,19.6861 ,0.94097 ,3.50530 ,34.39402 
105 ,19.8624 ,0.94273 ,3.49846 ,34.32687 
106 ,20.0547 ,0.94471 ,3.47108 ,34.05824 
107 ,20.2307 ,0.94641 ,3.47792 ,34.12540 
108 ,20.4387 ,0.94842 ,3.45739 ,33.92393 
109 ,20.6148 ,0.95027 ,3.44713 ,33.82319 
110 ,20.7909 ,0.95200 ,3.41633 ,33.52099 
111 ,20.9666 ,0.95377 ,3.39921 ,33.35310 
112 ,21.1750 ,0.95573 ,3.39237 ,33.28594 
113 ,21.3512 ,0.95763 ,3.37184 ,33.08447 
114 ,21.5432 ,0.95955 ,3.35815 ,32.95016 
115 ,21.7353 ,0.96140 ,3.35130 ,32.88300 
116 ,21.9272 ,0.96330 ,3.32393 ,32.61437 
117 ,22.1354 ,0.96543 ,3.31024 ,32.48006 
118 ,22.3113 ,0.96723 ,3.29655 ,32.34575 
119 ,22.4875 ,0.96895 ,3.27259 ,32.11070 
120 ,22.6797 ,0.97094 ,3.27944 ,32.17786 
121 ,22.8553 ,0.97264 ,3.26233 ,32.00996 
122 ,23.0475 ,0.97451 ,3.23837 ,31.77492 
123 ,23.2560 ,0.97662 ,3.21442 ,31.53987 
124 ,23.4480 ,0.97850 ,3.20415 ,31.43913 
125 ,23.6559 ,0.98057 ,3.18362 ,31.23766 
126 ,23.8482 ,0.98254 ,3.16651 ,31.06977 
127 ,24.0241 ,0.98439 ,3.16651 ,31.06977 
128 ,24.2000 ,0.98607 ,3.15624 ,30.96904 
129 ,24.3922 ,0.98802 ,3.12544 ,30.66683 
130 ,24.6003 ,0.99010 ,3.12886 ,30.70041 
131 ,24.7921 ,0.99203 ,3.10149 ,30.43178 
132 ,24.9682 ,0.99376 ,3.08780 ,30.29747 
133 ,25.1447 ,0.99551 ,3.07753 ,30.19674 
134 ,25.3525 ,0.99757 ,3.04331 ,29.86095 
135 ,25.5288 ,0.99934 ,3.03647 ,29.79380 
136 ,25.7209 ,1.00125 ,3.04673 ,29.89453 
137 ,25.9129 ,1.00324 ,3.00224 ,29.45801 
138 ,26.0888 ,1.00498 ,2.99198 ,29.35728 
139 ,26.2809 ,1.00688 ,2.98855 ,29.32370 
140 ,26.4731 ,1.00886 ,2.96802 ,29.12223 
141 ,26.6648 ,1.01071 ,2.94407 ,28.88718 
142 ,26.8407 ,1.01255 ,2.93722 ,28.82003 
143 ,27.0008 ,1.01423 ,2.92696 ,28.71929 
144 ,27.1931 ,1.01597 ,2.90985 ,28.55140 
145 ,27.3851 ,1.01788 ,2.88931 ,28.34993 
146 ,27.5612 ,1.01969 ,2.88589 ,28.31635 
147 ,27.7375 ,1.02147 ,2.88247 ,28.28277 
148 ,27.9137 ,1.02325 ,2.85851 ,28.04772 
149 ,28.0898 ,1.02494 ,2.82771 ,27.74552 
150 ,28.2818 ,1.02683 ,2.84825 ,27.94699 
151 ,28.4741 ,1.02880 ,2.81060 ,27.57763 
152 ,28.6821 ,1.03081 ,2.80376 ,27.51047 
153 ,28.8899 ,1.03298 ,2.76611 ,27.14111 
154 ,29.0822 ,1.03492 ,2.76269 ,27.10753 
155 ,29.2743 ,1.03688 ,2.74558 ,26.93964 
156 ,29.4660 ,1.03871 ,2.73531 ,26.83891 
157 ,29.6421 ,1.04051 ,2.71820 ,26.67101 
158 ,29.8185 ,1.04231 ,2.70794 ,26.57028 
159 ,30.0103 ,1.04421 ,2.69425 ,26.43597 
160 ,30.1867 ,1.04594 ,2.67714 ,26.26807 
161 ,30.3786 ,1.04778 ,2.66687 ,26.16734 
162 ,30.5710 ,1.04973 ,2.64976 ,25.99945 
163 ,30.7629 ,1.05166 ,2.65318 ,26.03303 
164 ,30.9550 ,1.05370 ,2.60185 ,25.52935 
165 ,31.1469 ,1.05555 ,2.61896 ,25.69724 
166 ,31.3393 ,1.05738 ,2.58474 ,25.36146 
167 ,31.5149 ,1.05928 ,2.57105 ,25.22715 
168 ,31.7073 ,1.06104 ,2.56421 ,25.15999 
169 ,31.8830 ,1.06291 ,2.55052 ,25.02568 
170 ,32.0754 ,1.06485 ,2.52656 ,24.79063 
171 ,32.2994 ,1.06692 ,2.50945 ,24.62274 
172 ,32.4918 ,1.06896 ,2.49918 ,24.52200 
173 ,32.6835 ,1.07090 ,2.50261 ,24.55558 
174 ,32.8758 ,1.07280 ,2.46496 ,24.18622 
175 ,33.0676 ,1.07467 ,2.45812 ,24.11906 
176 ,33.2758 ,1.07677 ,2.43416 ,23.88402 
177 ,33.4522 ,1.07864 ,2.43759 ,23.91759 
178 ,33.6280 ,1.08037 ,2.41705 ,23.71612 
179 ,33.8042 ,1.08209 ,2.40336 ,23.58181 
180 ,33.9960 ,1.08401 ,2.37941 ,23.34676 
181 ,34.1719 ,1.08578 ,2.37256 ,23.27961 
182 ,34.3325 ,1.08751 ,2.35203 ,23.07814 
183 ,34.5085 ,1.08917 ,2.35203 ,23.07814 
184 ,34.6847 ,1.09095 ,2.34861 ,23.04456 
185 ,34.8765 ,1.09280 ,2.31097 ,22.67520 
186 ,35.1007 ,1.09499 ,2.30070 ,22.57446 
187 ,35.2767 ,1.09683 ,2.29043 ,22.47373 
188 ,35.4528 ,1.09863 ,2.26648 ,22.23868 
189 ,35.6290 ,1.10037 ,2.26990 ,22.27226 
190 ,35.8048 ,1.10207 ,2.25621 ,22.13794 
191 ,35.9812 ,1.10391 ,2.24252 ,22.00363 
192 ,36.1895 ,1.10594 ,2.23226 ,21.90290 
193 ,36.3814 ,1.10779 ,2.19803 ,21.56711 
194 ,36.5734 ,1.10971 ,2.19803 ,21.56711 
195 ,36.7497 ,1.11159 ,2.18092 ,21.39922 
196 ,36.9413 ,1.11344 ,2.17408 ,21.33206 
197 ,37.1177 ,1.11525 ,2.15697 ,21.16417 
198 ,37.3097 ,1.11716 ,2.13986 ,20.99628 
199 ,37.4857 ,1.11888 ,2.13986 ,20.99628 
200 ,37.6778 ,1.12074 ,2.11590 ,20.76123 
201 ,37.8700 ,1.12268 ,2.11248 ,20.72766 
202 ,38.0779 ,1.12485 ,2.07826 ,20.39187 
203 ,38.2702 ,1.12679 ,2.08852 ,20.49261 
204 ,38.4620 ,1.12870 ,2.07141 ,20.32472 
205 ,38.6543 ,1.13052 ,2.05430 ,20.15682 
206 ,38.8304 ,1.13239 ,2.05088 ,20.12325 
207 ,39.0221 ,1.13426 ,2.03377 ,19.95535 
208 ,39.1984 ,1.13608 ,2.00639 ,19.68673 
209 ,39.3906 ,1.13796 ,2.00639 ,19.68673 
210 ,39.5827 ,1.13977 ,1.97559 ,19.38452 
211 ,39.7908 ,1.14192 ,1.95848 ,19.21663 
212 ,39.9828 ,1.14383 ,1.96190 ,19.25021 
213 ,40.1748 ,1.14574 ,1.94479 ,19.08232 
214 ,40.3511 ,1.14756 ,1.95506 ,19.18305 
215 ,40.5268 ,1.14928 ,1.94137 ,19.04874 
216 ,40.7030 ,1.15112 ,1.91742 ,18.81369 
217 ,40.8790 ,1.15287 ,1.91399 ,18.78011 
218 ,41.0873 ,1.15488 ,1.91742 ,18.81369 
219 ,41.2791 ,1.15685 ,1.89688 ,18.61222 
220 ,41.4875 ,1.15887 ,1.89004 ,18.54507 
221 ,41.6793 ,1.16074 ,1.86266 ,18.27644 
222 ,41.8877 ,1.16274 ,1.87977 ,18.44433 
223 ,42.0797 ,1.16478 ,1.84555 ,18.10855 
224 ,42.2712 ,1.16679 ,1.83871 ,18.04139 
225 ,42.4479 ,1.16854 ,1.83186 ,17.97423 
226 ,42.6557 ,1.17048 ,1.82502 ,17.90708 
227 ,42.8320 ,1.17234 ,1.82160 ,17.87350 
228 ,43.0241 ,1.17429 ,1.79080 ,17.57129 
229 ,43.2158 ,1.17610 ,1.79080 ,17.57129 
230 ,43.4241 ,1.17819 ,1.74631 ,17.13478 
231 ,43.6003 ,1.18008 ,1.75315 ,17.20193 
232 ,43.7924 ,1.18198 ,1.75315 ,17.20193 
233 ,43.9844 ,1.18384 ,1.75315 ,17.20193 
234 ,44.1764 ,1.18575 ,1.72920 ,16.96689 
235 ,44.3522 ,1.18756 ,1.73946 ,17.06762 
236 ,44.5447 ,1.18939 ,1.70866 ,16.76542 
237 ,44.7367 ,1.19141 ,1.70524 ,16.73184 
238 ,44.9449 ,1.19340 ,1.68471 ,16.53037 
239 ,45.1209 ,1.19528 ,1.68813 ,16.56395 
240 ,45.2969 ,1.19697 ,1.66418 ,16.32890 
241 ,45.4886 ,1.19885 ,1.66075 ,16.29532 
242 ,45.6652 ,1.20071 ,1.64707 ,16.16101 
243 ,45.8573 ,1.20257 ,1.62311 ,15.92596 
244 ,46.0492 ,1.20447 ,1.63338 ,16.02669 
245 ,46.2252 ,1.20623 ,1.61627 ,15.85880 
246 ,46.4015 ,1.20807 ,1.60600 ,15.75807 
247 ,46.5932 ,1.20999 ,1.60258 ,15.72449 
248 ,46.7697 ,1.21172 ,1.59916 ,15.69091 
249 ,46.9617 ,1.21366 ,1.57520 ,15.45586 
250 ,47.1376 ,1.21537 ,1.56836 ,15.38871 
251 ,47.3138 ,1.21716 ,1.56493 ,15.35513 
252 ,47.4899 ,1.21891 ,1.56836 ,15.38871 
253 ,47.6660 ,1.22072 ,1.54782 ,15.18724 
254 ,47.8420 ,1.22242 ,1.53071 ,15.01934 
255 ,48.0182 ,1.22420 ,1.52045 ,14.91861 
256 ,48.2099 ,1.22604 ,1.51360 ,14.85145 
257 ,48.4023 ,1.22801 ,1.49991 ,14.71714 
258 ,48.5943 ,1.22993 ,1.49991 ,14.71714 
259 ,48.7544 ,1.23168 ,1.50333 ,14.75072 
260 ,48.9625 ,1.23344 ,1.49991 ,14.71714 
261 ,49.1545 ,1.23558 ,1.48280 ,14.54925 
262 ,49.3307 ,1.23732 ,1.46911 ,14.41493 
263 ,49.5387 ,1.23933 ,1.46569 ,14.38136 
264 ,49.7143 ,1.24120 ,1.44858 ,14.21346 
265 ,49.9064 ,1.24297 ,1.43147 ,14.04557 
266 ,50.0989 ,1.24499 ,1.43147 ,14.04557 
267 ,50.2910 ,1.24688 ,1.43489 ,14.07915 
268 ,50.4830 ,1.24882 ,1.40751 ,13.81053 
269 ,50.6593 ,1.25061 ,1.40751 ,13.81053 
270 ,50.8513 ,1.25252 ,1.40751 ,13.81053 
271 ,51.0268 ,1.25429 ,1.39725 ,13.70979 
272 ,51.2033 ,1.25605 ,1.38014 ,13.54190 
273 ,51.3795 ,1.25781 ,1.38356 ,13.57548 
274 ,51.5715 ,1.25963 ,1.36987 ,13.44116 
275 ,51.7637 ,1.26156 ,1.36987 ,13.44116 
276 ,51.9556 ,1.26354 ,1.36987 ,13.44116 
277 ,52.1317 ,1.26530 ,1.35276 ,13.27327 
278 ,52.3077 ,1.26705 ,1.33223 ,13.07180 
279 ,52.4999 ,1.26893 ,1.34591 ,13.20612 
280 ,52.6920 ,1.27092 ,1.31854 ,12.93749 
281 ,52.8841 ,1.27284 ,1.30827 ,12.83675 
282 ,53.0601 ,1.27463 ,1.31169 ,12.87033 
283 ,53.2521 ,1.27650 ,1.30485 ,12.80318 
284 ,53.4284 ,1.27829 ,1.28774 ,12.63528 
285 ,53.6204 ,1.28013 ,1.29458 ,12.70244 
286 ,53.7964 ,1.28201 ,1.28432 ,12.60171 
287 ,53.9725 ,1.28373 ,1.28774 ,12.63528 
288 ,54.1647 ,1.28562 ,1.27405 ,12.50097 
289 ,54.3723 ,1.28760 ,1.29458 ,12.70244 
290 ,54.5488 ,1.28951 ,1.25694 ,12.33308 
291 ,54.7409 ,1.29126 ,1.25694 ,12.33308 
292 ,54.9328 ,1.29332 ,1.25694 ,12.33308 
293 ,55.1086 ,1.29510 ,1.23641 ,12.13161 
294 ,55.3168 ,1.29702 ,1.24667 ,12.23235 
295 ,55.5250 ,1.29916 ,1.22956 ,12.06445 
296 ,55.7013 ,1.30099 ,1.22956 ,12.06445 
297 ,55.8934 ,1.30291 ,1.23983 ,12.16519 
298 ,56.1013 ,1.30498 ,1.22614 ,12.03088 
299 ,56.2931 ,1.30690 ,1.21587 ,11.93014 
300 ,56.4853 ,1.30875 ,1.21245 ,11.89656 
301 ,56.6936 ,1.31091 ,1.20218 ,11.79583 
302 ,56.9016 ,1.31285 ,1.18850 ,11.66151 
303 ,57.0938 ,1.31490 ,1.19192 ,11.69509 
304 ,57.2855 ,1.31681 ,1.18165 ,11.59436 
305 ,57.4619 ,1.31858 ,1.19192 ,11.69509 
306 ,57.6381 ,1.32036 ,1.19534 ,11.72867 
307 ,57.8301 ,1.32219 ,1.17823 ,11.56078 
308 ,58.0223 ,1.32406 ,1.16112 ,11.39289 
309 ,58.2302 ,1.32620 ,1.15770 ,11.35931 
310 ,58.4060 ,1.32799 ,1.15427 ,11.32573 
311 ,58.5985 ,1.32990 ,1.18165 ,11.59436 
312 ,58.7746 ,1.33174 ,1.18850 ,11.66151 
313 ,58.9665 ,1.33359 ,1.17481 ,11.52720 
314 ,59.1427 ,1.33541 ,1.17823 ,11.56078 
315 ,59.3344 ,1.33723 ,1.17481 ,11.52720 
316 ,59.5108 ,1.33907 ,1.17138 ,11.49362 
317 ,59.7027 ,1.34097 ,1.19192 ,11.69509 
318 ,59.8950 ,1.34290 ,1.18850 ,11.66151 
319 ,60.0709 ,1.34470 ,1.17138 ,11.49362 
320 ,60.2632 ,1.34659 ,1.19534 ,11.72867 
321 ,60.4548 ,1.34850 ,1.17138 ,11.49362 
322 ,60.6313 ,1.35028 ,1.17138 ,11.49362 
323 ,60.8553 ,1.35241 ,1.16112 ,11.39289 
324 ,61.0315 ,1.35426 ,1.15770 ,11.35931 
325 ,61.2235 ,1.35614 ,1.17481 ,11.52720 
326 ,61.4157 ,1.35814 ,1.16454 ,11.42647 
327 ,61.6075 ,1.35994 ,1.15427 ,11.32573 
328 ,61.7838 ,1.36179 ,1.16112 ,11.39289 
329 ,61.9755 ,1.36362 ,1.14058 ,11.19142 
330 ,62.1679 ,1.36554 ,1.14058 ,11.19142 
331 ,62.3759 ,1.36765 ,1.13032 ,11.09068 
332 ,62.5522 ,1.36949 ,1.12005 ,10.98995 
333 ,62.7441 ,1.37146 ,1.12690 ,11.05710 
334 ,62.9202 ,1.37319 ,1.12690 ,11.05710 
335 ,63.0963 ,1.37490 ,1.12005 ,10.98995 
336 ,63.2884 ,1.37676 ,1.11663 ,10.95637 
337 ,63.4803 ,1.37864 ,1.12690 ,11.05710 
338 ,63.6722 ,1.38061 ,1.09610 ,10.75490 
339 ,63.8647 ,1.38254 ,1.11321 ,10.92279 
340 ,64.0567 ,1.38442 ,1.08241 ,10.62059 
341 ,64.2807 ,1.38660 ,1.09610 ,10.75490 
342 ,64.4728 ,1.38864 ,1.08241 ,10.62059 
343 ,64.6647 ,1.39060 ,1.09610 ,10.75490 
344 ,64.8410 ,1.39232 ,1.08583 ,10.65416 
345 ,65.0491 ,1.39433 ,1.05845 ,10.38554 
346 ,65.2252 ,1.39619 ,1.06187 ,10.41912 
347 ,65.4012 ,1.39796 ,1.06530 ,10.45270 
348 ,65.6094 ,1.39990 ,1.06872 ,10.48627 
349 ,65.7852 ,1.40179 ,1.05845 ,10.38554 
350 ,65.9936 ,1.40386 ,1.04819 ,10.28480 
351 ,66.1697 ,1.40567 ,1.04819 ,10.28480 
352 ,66.3777 ,1.40766 ,1.03108 ,10.11691 
353 ,66.5696 ,1.40956 ,1.04134 ,10.21765 
354 ,66.7618 ,1.41153 ,1.03450 ,10.15049 
355 ,66.9215 ,1.41326 ,1.02423 ,10.04976 
356 ,67.1139 ,1.41501 ,1.01739 ,9.98260 
357 ,67.2901 ,1.41683 ,1.01054 ,9.91544 
358 ,67.4820 ,1.41870 ,1.01739 ,9.98260 
359 ,67.6742 ,1.42068 ,1.00370 ,9.84829 
360 ,67.8663 ,1.42257 ,1.03450 ,10.15049 
361 ,68.0583 ,1.42445 ,0.99001 ,9.71397 
362 ,68.2506 ,1.42641 ,1.01054 ,9.91544 
363 ,68.4426 ,1.42826 ,1.00370 ,9.84829 
364 ,68.6342 ,1.43024 ,0.98659 ,9.68039 
365 ,68.8106 ,1.43205 ,0.99685 ,9.78113 
366 ,68.9866 ,1.43378 ,0.99001 ,9.71397 
367 ,69.1628 ,1.43558 ,0.99001 ,9.71397 
368 ,69.3554 ,1.43746 ,0.96263 ,9.44535 
369 ,69.5468 ,1.43935 ,0.97290 ,9.54608 
370 ,69.7389 ,1.44122 ,0.97632 ,9.57966 
371 ,69.9151 ,1.44304 ,0.94552 ,9.27745 
372 ,70.0910 ,1.44483 ,0.96605 ,9.47892 
373 ,70.2830 ,1.44673 ,0.96605 ,9.47892 
374 ,70.4911 ,1.44880 ,0.94552 ,9.27745 
375 ,70.6671 ,1.45060 ,0.94552 ,9.27745 
376 ,70.8754 ,1.45264 ,0.92499 ,9.07598 
377 ,71.0832 ,1.45463 ,0.93525 ,9.17672 
378 ,71.2752 ,1.45662 ,0.91814 ,9.00883 
379 ,71.4518 ,1.45845 ,0.91472 ,8.97525 
380 ,71.6276 ,1.46025 ,0.91814 ,9.00883 
381 ,71.8039 ,1.46197 ,0.91814 ,9.00883 
382 ,71.9960 ,1.46387 ,0.89761 ,8.80736 
383 ,72.1719 ,1.46572 ,0.91130 ,8.94167 
384 ,72.3320 ,1.46731 ,0.91472 ,8.97525 
385 ,72.5081 ,1.46900 ,0.89761 ,8.80736 
386 ,72.6840 ,1.47075 ,0.88734 ,8.70662 
387 ,72.8440 ,1.47247 ,0.88050 ,8.63947 
388 ,73.0204 ,1.47414 ,0.88050 ,8.63947 
389 ,73.2123 ,1.47595 ,0.89077 ,8.74020 
390 ,73.3720 ,1.47776 ,0.87366 ,8.57231 
391 ,73.5488 ,1.47946 ,0.85997 ,8.43800 
392 ,73.7408 ,1.48123 ,0.85654 ,8.40442 
393 ,73.9327 ,1.48327 ,0.85654 ,8.40442 
394 ,74.1409 ,1.48526 ,0.83601 ,8.20295 
395 ,74.3329 ,1.48720 ,0.84628 ,8.30368 
396 ,74.5249 ,1.48904 ,0.84286 ,8.27011 
397 ,74.7171 ,1.49107 ,0.82575 ,8.10221 
398 ,74.9092 ,1.49303 ,0.84286 ,8.27011 
399 ,75.0851 ,1.49475 ,0.82575 ,8.10221 
400 ,75.2773 ,1.49665 ,0.81548 ,8.00148 
401 ,75.4850 ,1.49870 ,0.80521 ,7.90074 
402 ,75.6616 ,1.50055 ,0.80863 ,7.93432 
403 ,75.8694 ,1.50257 ,0.80521 ,7.90074 
404 ,76.0776 ,1.50465 ,0.79152 ,7.76643 
405 ,76.2697 ,1.50657 ,0.80179 ,7.86717 
406 ,76.4459 ,1.50834 ,0.78468 ,7.69927 
407 ,76.6214 ,1.51016 ,0.77441 ,7.59854 
408 ,76.7980 ,1.51184 ,0.76072 ,7.46423 
409 ,76.9740 ,1.51367 ,0.77441 ,7.59854 
410 ,77.1502 ,1.51544 ,0.77099 ,7.56496 
411 ,77.3420 ,1.51733 ,0.76415 ,7.49780 
412 ,77.5182 ,1.51908 ,0.74019 ,7.26276 
413 ,77.6943 ,1.52086 ,0.75046 ,7.36349 
414 ,77.8704 ,1.52262 ,0.74361 ,7.29633 
415 ,78.0628 ,1.52452 ,0.73677 ,7.22918 
416 ,78.2545 ,1.52638 ,0.73677 ,7.22918 
417 ,78.4307 ,1.52819 ,0.73677 ,7.22918 
418 ,78.6225 ,1.53007 ,0.70939 ,6.96055 
419 ,78.8307 ,1.53211 ,0.71966 ,7.06129 
420 ,79.0227 ,1.53415 ,0.70597 ,6.92697 
421 ,79.1990 ,1.53590 ,0.69228 ,6.79266 
422 ,79.3906 ,1.53781 ,0.70597 ,6.92697 
423 ,79.5671 ,1.53957 ,0.69228 ,6.79266 
424 ,79.7431 ,1.54138 ,0.69570 ,6.82624 
425 ,79.9352 ,1.54320 ,0.68886 ,6.75908 
426 ,80.1433 ,1.54527 ,0.66833 ,6.55761 
427 ,80.3355 ,1.54721 ,0.68201 ,6.69193 
428 ,80.5115 ,1.54902 ,0.68201 ,6.69193 
429 ,80.7036 ,1.55087 ,0.66833 ,6.55761 
430 ,80.8792 ,1.55269 ,0.66148 ,6.49046 
431 ,81.0559 ,1.55447 ,0.66833 ,6.55761 
432 ,81.2478 ,1.55636 ,0.64095 ,6.28899 
433 ,81.4399 ,1.55819 ,0.66490 ,6.52403 
434 ,81.6320 ,1.56015 ,0.65464 ,6.42330 
435 ,81.8240 ,1.56206 ,0.64437 ,6.32256 
436 ,82.0158 ,1.56396 ,0.64437 ,6.32256 
437 ,82.2078 ,1.56593 ,0.63410 ,6.22183 
438 ,82.3842 ,1.56770 ,0.62042 ,6.08752 
439 ,82.5602 ,1.56945 ,0.62384 ,6.12109 
440 ,82.7524 ,1.57125 ,0.64095 ,6.28899 
441 ,82.9445 ,1.57329 ,0.62384 ,6.12109 
442 ,83.1685 ,1.57544 ,0.61015 ,5.98678 
443 ,83.3606 ,1.57751 ,0.62042 ,6.08752 
444 ,83.5366 ,1.57922 ,0.61357 ,6.02036 
445 ,83.7128 ,1.58098 ,0.60330 ,5.91962 
446 ,83.8888 ,1.58280 ,0.59988 ,5.88605 
447 ,84.0805 ,1.58463 ,0.59988 ,5.88605 
448 ,84.2730 ,1.58649 ,0.60330 ,5.91962 
449 ,84.4651 ,1.58852 ,0.58619 ,5.75173 
450 ,84.6409 ,1.59028 ,0.58619 ,5.75173 
451 ,84.8333 ,1.59213 ,0.58619 ,5.75173 
452 ,85.0413 ,1.59410 ,0.57251 ,5.61742 
453 ,85.2173 ,1.59598 ,0.59304 ,5.81889 
454 ,85.3936 ,1.59780 ,0.56566 ,5.55026 
455 ,85.5856 ,1.59967 ,0.57251 ,5.61742 
456 ,85.7937 ,1.60181 ,0.55539 ,5.44953 
457 ,85.9857 ,1.60371 ,0.54855 ,5.38237 
458 ,86.1619 ,1.60551 ,0.55539 ,5.44953 
459 ,86.3699 ,1.60748 ,0.53828 ,5.28164 
460 ,86.5619 ,1.60949 ,0.55882 ,5.48311 
461 ,86.7378 ,1.61128 ,0.55882 ,5.48311 
462 ,86.9460 ,1.61321 ,0.55197 ,5.41595 
463 ,87.1217 ,1.61509 ,0.54171 ,5.31522 
464 ,87.3137 ,1.61695 ,0.53486 ,5.24806 
465 ,87.4898 ,1.61876 ,0.52459 ,5.14732 
466 ,87.6662 ,1.62053 ,0.52459 ,5.14732 
