Data stamp = , 22-04-2022 04:17:28 224

Calibration Values: 
Slope = , 26.54 , g/V 
Offset Voltage at no contact = , -0.501760 , V 

No , Time , Stage Position ,   Mass , Force 
   ,  (s) ,      (mm)      ,   (g)  , (mN)  

1 ,0.0000 ,0.69945 ,5.24034 ,51.41822 
2 ,0.2488 ,0.69955 ,5.26087 ,51.61969 
3 ,0.7132 ,0.70107 ,5.26772 ,51.68685 
4 ,0.9214 ,0.70336 ,5.24718 ,51.48538 
5 ,1.1295 ,0.70536 ,5.25061 ,51.51896 
6 ,1.3056 ,0.70722 ,5.26087 ,51.61969 
7 ,1.4976 ,0.70914 ,5.27456 ,51.75401 
8 ,1.6737 ,0.71094 ,5.26430 ,51.65327 
9 ,1.8813 ,0.71298 ,5.26087 ,51.61969 
10 ,2.0735 ,0.71484 ,5.24376 ,51.45180 
11 ,2.2819 ,0.71696 ,5.25745 ,51.58611 
12 ,2.4578 ,0.71878 ,5.23692 ,51.38464 
13 ,2.6660 ,0.72081 ,5.21981 ,51.21675 
14 ,2.8418 ,0.72260 ,5.20954 ,51.11602 
15 ,3.0182 ,0.72435 ,5.18901 ,50.91455 
16 ,3.1942 ,0.72611 ,5.17190 ,50.74666 
17 ,3.3703 ,0.72785 ,5.13768 ,50.41087 
18 ,3.5624 ,0.72974 ,5.13425 ,50.37729 
19 ,3.7386 ,0.73159 ,5.13083 ,50.34372 
20 ,3.9466 ,0.73362 ,5.09661 ,50.00793 
21 ,4.1386 ,0.73563 ,5.10345 ,50.07509 
22 ,4.3147 ,0.73735 ,5.06923 ,49.73931 
23 ,4.5066 ,0.73924 ,5.04185 ,49.47068 
24 ,4.6829 ,0.74101 ,5.04528 ,49.50426 
25 ,4.8908 ,0.74306 ,5.01106 ,49.16848 
26 ,5.0669 ,0.74484 ,4.99394 ,49.00058 
27 ,5.2592 ,0.74671 ,4.99052 ,48.96701 
28 ,5.4673 ,0.74879 ,4.96999 ,48.76554 
29 ,5.6592 ,0.75067 ,4.95288 ,48.59764 
30 ,5.8194 ,0.75249 ,4.93235 ,48.39618 
31 ,5.9956 ,0.75417 ,4.91523 ,48.22828 
32 ,6.2032 ,0.75618 ,4.90839 ,48.16113 
33 ,6.3797 ,0.75799 ,4.89812 ,48.06039 
34 ,6.5716 ,0.75985 ,4.86390 ,47.72461 
35 ,6.7478 ,0.76165 ,4.83310 ,47.42240 
36 ,6.9239 ,0.76342 ,4.83652 ,47.45598 
37 ,7.1315 ,0.76545 ,4.79546 ,47.05304 
38 ,7.3080 ,0.76724 ,4.77150 ,46.81800 
39 ,7.4837 ,0.76898 ,4.78177 ,46.91873 
40 ,7.6602 ,0.77078 ,4.77493 ,46.85157 
41 ,7.8519 ,0.77262 ,4.74413 ,46.54937 
42 ,8.0602 ,0.77460 ,4.73386 ,46.44863 
43 ,8.2362 ,0.77650 ,4.72359 ,46.34790 
44 ,8.4286 ,0.77841 ,4.69622 ,46.07927 
45 ,8.6364 ,0.78055 ,4.67568 ,45.87780 
46 ,8.8284 ,0.78242 ,4.65173 ,45.64275 
47 ,9.0048 ,0.78424 ,4.65173 ,45.64275 
48 ,9.1964 ,0.78606 ,4.63119 ,45.44128 
49 ,9.3724 ,0.78787 ,4.62093 ,45.34055 
50 ,9.5649 ,0.78969 ,4.59013 ,45.03835 
51 ,9.7730 ,0.79182 ,4.58328 ,44.97119 
52 ,9.9491 ,0.79365 ,4.56275 ,44.76972 
53 ,10.1571 ,0.79562 ,4.54564 ,44.60183 
54 ,10.3332 ,0.79746 ,4.53880 ,44.53467 
55 ,10.5252 ,0.79950 ,4.53537 ,44.50109 
56 ,10.7013 ,0.80116 ,4.51826 ,44.33320 
57 ,10.8777 ,0.80295 ,4.50115 ,44.16531 
58 ,11.0696 ,0.80480 ,4.47035 ,43.86310 
59 ,11.2456 ,0.80661 ,4.45666 ,43.72879 
60 ,11.4216 ,0.80836 ,4.46009 ,43.76237 
61 ,11.5977 ,0.81017 ,4.41218 ,43.29227 
62 ,11.7737 ,0.81187 ,4.42244 ,43.39301 
63 ,11.9660 ,0.81372 ,4.39164 ,43.09080 
64 ,12.1580 ,0.81576 ,4.38822 ,43.05723 
65 ,12.3502 ,0.81760 ,4.35742 ,42.75502 
66 ,12.5421 ,0.81966 ,4.34716 ,42.65429 
67 ,12.7182 ,0.82136 ,4.34373 ,42.62071 
68 ,12.9102 ,0.82327 ,4.30267 ,42.21777 
69 ,13.1019 ,0.82524 ,4.29924 ,42.18419 
70 ,13.3099 ,0.82715 ,4.26502 ,41.84841 
71 ,13.4862 ,0.82897 ,4.25133 ,41.71409 
72 ,13.6782 ,0.83094 ,4.26845 ,41.88198 
73 ,13.8706 ,0.83280 ,4.22396 ,41.44547 
74 ,14.0628 ,0.83468 ,4.23080 ,41.51262 
75 ,14.2388 ,0.83651 ,4.22053 ,41.41189 
76 ,14.4146 ,0.83831 ,4.18631 ,41.07611 
77 ,14.6229 ,0.84025 ,4.16236 ,40.84106 
78 ,14.7986 ,0.84215 ,4.15894 ,40.80748 
79 ,14.9752 ,0.84394 ,4.14867 ,40.70674 
80 ,15.1672 ,0.84576 ,4.12129 ,40.43812 
81 ,15.3432 ,0.84754 ,4.10076 ,40.23665 
82 ,15.5354 ,0.84941 ,4.08707 ,40.10233 
83 ,15.7434 ,0.85150 ,4.08023 ,40.03518 
84 ,15.9514 ,0.85347 ,4.06654 ,39.90087 
85 ,16.1593 ,0.85576 ,4.04600 ,39.69940 
86 ,16.3355 ,0.85749 ,4.03574 ,39.59866 
87 ,16.5278 ,0.85942 ,4.00152 ,39.26288 
88 ,16.7196 ,0.86128 ,4.00152 ,39.26288 
89 ,16.8958 ,0.86311 ,3.98783 ,39.12856 
90 ,17.0880 ,0.86496 ,3.94676 ,38.72562 
91 ,17.2959 ,0.86706 ,3.95361 ,38.79278 
92 ,17.4881 ,0.86898 ,3.91254 ,38.38984 
93 ,17.6801 ,0.87085 ,3.91596 ,38.42342 
94 ,17.8562 ,0.87273 ,3.88516 ,38.12122 
95 ,18.0158 ,0.87443 ,3.88174 ,38.08764 
96 ,18.2084 ,0.87611 ,3.87490 ,38.02048 
97 ,18.4005 ,0.87803 ,3.86463 ,37.91975 
98 ,18.5925 ,0.88001 ,3.83041 ,37.58396 
99 ,18.7686 ,0.88182 ,3.81330 ,37.41607 
100 ,18.9608 ,0.88366 ,3.81330 ,37.41607 
101 ,19.1525 ,0.88560 ,3.78250 ,37.11387 
102 ,19.3289 ,0.88739 ,3.76196 ,36.91240 
103 ,19.5369 ,0.88946 ,3.76196 ,36.91240 
104 ,19.7291 ,0.89137 ,3.71748 ,36.47588 
105 ,19.9211 ,0.89326 ,3.72432 ,36.54303 
106 ,20.0971 ,0.89520 ,3.70721 ,36.37514 
107 ,20.2732 ,0.89685 ,3.70721 ,36.37514 
108 ,20.4493 ,0.89863 ,3.67641 ,36.07294 
109 ,20.6413 ,0.90051 ,3.66614 ,35.97220 
110 ,20.8494 ,0.90252 ,3.63877 ,35.70358 
111 ,21.0255 ,0.90437 ,3.61823 ,35.50211 
112 ,21.2013 ,0.90612 ,3.60797 ,35.40137 
113 ,21.3935 ,0.90803 ,3.60112 ,35.33422 
114 ,21.5858 ,0.91000 ,3.57375 ,35.06559 
115 ,21.7777 ,0.91188 ,3.57717 ,35.09917 
116 ,21.9539 ,0.91367 ,3.56690 ,34.99843 
117 ,22.1456 ,0.91552 ,3.52584 ,34.59549 
118 ,22.3217 ,0.91727 ,3.51215 ,34.46118 
119 ,22.4981 ,0.91909 ,3.51557 ,34.49476 
120 ,22.7222 ,0.92112 ,3.48477 ,34.19255 
121 ,22.9303 ,0.92335 ,3.47450 ,34.09182 
122 ,23.1225 ,0.92527 ,3.46081 ,33.95751 
123 ,23.3140 ,0.92727 ,3.45055 ,33.85677 
124 ,23.4906 ,0.92896 ,3.43686 ,33.72246 
125 ,23.6986 ,0.93109 ,3.40948 ,33.45383 
126 ,23.9067 ,0.93308 ,3.37868 ,33.15163 
127 ,24.0667 ,0.93489 ,3.36499 ,33.01731 
128 ,24.2744 ,0.93679 ,3.36157 ,32.98374 
129 ,24.4505 ,0.93856 ,3.34446 ,32.81584 
130 ,24.6270 ,0.94042 ,3.34446 ,32.81584 
131 ,24.8347 ,0.94240 ,3.31024 ,32.48006 
132 ,25.0272 ,0.94432 ,3.28971 ,32.27859 
133 ,25.2190 ,0.94617 ,3.28628 ,32.24501 
134 ,25.4114 ,0.94820 ,3.25891 ,31.97639 
135 ,25.5874 ,0.95006 ,3.23837 ,31.77492 
136 ,25.7796 ,0.95183 ,3.22811 ,31.67418 
137 ,25.9875 ,0.95391 ,3.20073 ,31.40555 
138 ,26.1636 ,0.95578 ,3.18362 ,31.23766 
139 ,26.3716 ,0.95775 ,3.18704 ,31.27124 
140 ,26.5634 ,0.95964 ,3.16651 ,31.06977 
141 ,26.7398 ,0.96151 ,3.13571 ,30.76757 
142 ,26.9319 ,0.96340 ,3.14597 ,30.86830 
143 ,27.1239 ,0.96524 ,3.11860 ,30.59968 
144 ,27.3002 ,0.96715 ,3.11860 ,30.59968 
145 ,27.4761 ,0.96885 ,3.08780 ,30.29747 
146 ,27.6519 ,0.97062 ,3.09806 ,30.39821 
147 ,27.8285 ,0.97239 ,3.06726 ,30.09600 
148 ,28.0203 ,0.97441 ,3.06726 ,30.09600 
149 ,28.2121 ,0.97610 ,3.03647 ,29.79380 
150 ,28.3885 ,0.97803 ,3.00909 ,29.52517 
151 ,28.5647 ,0.97977 ,2.99540 ,29.39086 
152 ,28.7563 ,0.98159 ,2.99882 ,29.42444 
153 ,28.9327 ,0.98340 ,2.97487 ,29.18939 
154 ,29.1408 ,0.98553 ,2.94749 ,28.92076 
155 ,29.3169 ,0.98726 ,2.95091 ,28.95434 
156 ,29.5250 ,0.98929 ,2.92011 ,28.65213 
157 ,29.7169 ,0.99130 ,2.91669 ,28.61856 
158 ,29.9088 ,0.99311 ,2.88589 ,28.31635 
159 ,30.0853 ,0.99493 ,2.86878 ,28.14846 
160 ,30.2773 ,0.99682 ,2.87562 ,28.21562 
161 ,30.4532 ,0.99862 ,2.85851 ,28.04772 
162 ,30.6291 ,1.00044 ,2.81060 ,27.57763 
163 ,30.8055 ,1.00210 ,2.81402 ,27.61121 
164 ,30.9815 ,1.00386 ,2.80034 ,27.47689 
165 ,31.1736 ,1.00580 ,2.79691 ,27.44332 
166 ,31.3658 ,1.00762 ,2.78665 ,27.34258 
167 ,31.5898 ,1.00982 ,2.74558 ,26.93964 
168 ,31.7655 ,1.01182 ,2.74216 ,26.90606 
169 ,31.9256 ,1.01347 ,2.71136 ,26.60386 
170 ,32.1017 ,1.01513 ,2.72847 ,26.77175 
171 ,32.2938 ,1.01698 ,2.70794 ,26.57028 
172 ,32.4862 ,1.01890 ,2.67372 ,26.23450 
173 ,32.6784 ,1.02081 ,2.67372 ,26.23450 
174 ,32.8704 ,1.02268 ,2.64634 ,25.96587 
175 ,33.0460 ,1.02453 ,2.63949 ,25.89871 
176 ,33.2386 ,1.02647 ,2.61896 ,25.69724 
177 ,33.4305 ,1.02841 ,2.61554 ,25.66367 
178 ,33.6069 ,1.03016 ,2.58816 ,25.39504 
179 ,33.7990 ,1.03204 ,2.57447 ,25.26073 
180 ,33.9909 ,1.03392 ,2.56421 ,25.15999 
181 ,34.1668 ,1.03583 ,2.53341 ,24.85779 
182 ,34.3428 ,1.03750 ,2.50603 ,24.58916 
183 ,34.5192 ,1.03927 ,2.50945 ,24.62274 
184 ,34.7272 ,1.04126 ,2.48207 ,24.35411 
185 ,34.9192 ,1.04322 ,2.48207 ,24.35411 
186 ,35.1274 ,1.04524 ,2.44785 ,24.01833 
187 ,35.3190 ,1.04720 ,2.45470 ,24.08549 
188 ,35.5276 ,1.04919 ,2.42732 ,23.81686 
189 ,35.7194 ,1.05120 ,2.42390 ,23.78328 
190 ,35.9116 ,1.05311 ,2.41021 ,23.64897 
191 ,36.0878 ,1.05495 ,2.38625 ,23.41392 
192 ,36.2795 ,1.05674 ,2.36572 ,23.21245 
193 ,36.4558 ,1.05862 ,2.36914 ,23.24603 
194 ,36.6317 ,1.06033 ,2.35545 ,23.11171 
195 ,36.8077 ,1.06212 ,2.33492 ,22.91024 
196 ,36.9842 ,1.06393 ,2.30070 ,22.57446 
197 ,37.2080 ,1.06588 ,2.28359 ,22.40657 
198 ,37.4005 ,1.06801 ,2.27674 ,22.33941 
199 ,37.5922 ,1.06996 ,2.26648 ,22.23868 
200 ,37.7845 ,1.07181 ,2.23568 ,21.93647 
201 ,37.9763 ,1.07381 ,2.22883 ,21.86932 
202 ,38.1685 ,1.07566 ,2.21857 ,21.76858 
203 ,38.3443 ,1.07748 ,2.19803 ,21.56711 
204 ,38.5203 ,1.07923 ,2.18777 ,21.46638 
205 ,38.7126 ,1.08114 ,2.17750 ,21.36564 
206 ,38.9049 ,1.08314 ,2.14328 ,21.02986 
207 ,39.1126 ,1.08505 ,2.13301 ,20.92912 
208 ,39.2890 ,1.08694 ,2.12959 ,20.89555 
209 ,39.4806 ,1.08887 ,2.10564 ,20.66050 
210 ,39.6731 ,1.09072 ,2.10564 ,20.66050 
211 ,39.8808 ,1.09277 ,2.06799 ,20.29114 
212 ,40.0572 ,1.09461 ,2.05430 ,20.15682 
213 ,40.2173 ,1.09632 ,2.05773 ,20.19040 
214 ,40.4094 ,1.09808 ,2.03377 ,19.95535 
215 ,40.6014 ,1.09997 ,2.00297 ,19.65315 
216 ,40.7777 ,1.10181 ,2.00297 ,19.65315 
217 ,40.9697 ,1.10363 ,2.01324 ,19.75388 
218 ,41.1776 ,1.10573 ,1.97902 ,19.41810 
219 ,41.3698 ,1.10771 ,1.96533 ,19.28379 
220 ,41.5458 ,1.10951 ,1.95848 ,19.21663 
221 ,41.7219 ,1.11136 ,1.92084 ,18.84727 
222 ,41.8978 ,1.11308 ,1.92768 ,18.91443 
223 ,42.0741 ,1.11480 ,1.90031 ,18.64580 
224 ,42.2502 ,1.11652 ,1.89688 ,18.61222 
225 ,42.4421 ,1.11844 ,1.86608 ,18.31002 
226 ,42.6183 ,1.12019 ,1.86266 ,18.27644 
227 ,42.7944 ,1.12197 ,1.84555 ,18.10855 
228 ,42.9863 ,1.12391 ,1.84213 ,18.07497 
229 ,43.1785 ,1.12574 ,1.82844 ,17.94066 
230 ,43.3545 ,1.12758 ,1.80106 ,17.67203 
231 ,43.5467 ,1.12950 ,1.80106 ,17.67203 
232 ,43.7227 ,1.13124 ,1.78053 ,17.47056 
233 ,43.8989 ,1.13300 ,1.76000 ,17.26909 
234 ,44.1068 ,1.13506 ,1.74973 ,17.16836 
235 ,44.2830 ,1.13684 ,1.73262 ,17.00046 
236 ,44.4909 ,1.13889 ,1.71209 ,16.79899 
237 ,44.6832 ,1.14077 ,1.68813 ,16.56395 
238 ,44.8747 ,1.14286 ,1.70182 ,16.69826 
239 ,45.0511 ,1.14455 ,1.65733 ,16.26174 
240 ,45.2594 ,1.14656 ,1.65733 ,16.26174 
241 ,45.4515 ,1.14854 ,1.65733 ,16.26174 
242 ,45.6594 ,1.15059 ,1.61627 ,15.85880 
243 ,45.8514 ,1.15255 ,1.60600 ,15.75807 
244 ,46.0276 ,1.15436 ,1.59916 ,15.69091 
245 ,46.2198 ,1.15613 ,1.57862 ,15.48944 
246 ,46.4118 ,1.15810 ,1.56493 ,15.35513 
247 ,46.5880 ,1.15991 ,1.56151 ,15.32155 
248 ,46.7639 ,1.16169 ,1.53756 ,15.08650 
249 ,46.9402 ,1.16339 ,1.51360 ,14.85145 
250 ,47.1159 ,1.16524 ,1.49991 ,14.71714 
251 ,47.3085 ,1.16696 ,1.49307 ,14.64998 
252 ,47.5162 ,1.16909 ,1.48280 ,14.54925 
253 ,47.6921 ,1.17094 ,1.47253 ,14.44851 
254 ,47.8844 ,1.17275 ,1.45200 ,14.24704 
255 ,48.0760 ,1.17470 ,1.43831 ,14.11273 
256 ,48.2686 ,1.17663 ,1.43147 ,14.04557 
257 ,48.4605 ,1.17854 ,1.40067 ,13.74337 
258 ,48.6527 ,1.18047 ,1.38698 ,13.60906 
259 ,48.8288 ,1.18228 ,1.39383 ,13.67621 
260 ,49.0048 ,1.18409 ,1.37329 ,13.47474 
261 ,49.1644 ,1.18575 ,1.35618 ,13.30685 
262 ,49.3406 ,1.18744 ,1.35618 ,13.30685 
263 ,49.5329 ,1.18926 ,1.33223 ,13.07180 
264 ,49.7252 ,1.19123 ,1.32538 ,13.00465 
265 ,49.9171 ,1.19311 ,1.28432 ,12.60171 
266 ,50.1093 ,1.19502 ,1.30143 ,12.76960 
267 ,50.3014 ,1.19699 ,1.27063 ,12.46739 
268 ,50.5095 ,1.19899 ,1.23983 ,12.16519 
269 ,50.7175 ,1.20108 ,1.23983 ,12.16519 
270 ,50.9094 ,1.20298 ,1.20903 ,11.86298 
271 ,51.0854 ,1.20486 ,1.21929 ,11.96372 
272 ,51.2616 ,1.20659 ,1.20218 ,11.79583 
273 ,51.4539 ,1.20852 ,1.18850 ,11.66151 
274 ,51.6460 ,1.21049 ,1.17823 ,11.56078 
275 ,51.8378 ,1.21238 ,1.14743 ,11.25857 
276 ,52.0461 ,1.21436 ,1.13716 ,11.15784 
277 ,52.2221 ,1.21632 ,1.10636 ,10.85563 
278 ,52.4144 ,1.21814 ,1.10636 ,10.85563 
279 ,52.5904 ,1.21990 ,1.09952 ,10.78848 
280 ,52.7826 ,1.22175 ,1.08925 ,10.68774 
281 ,52.9906 ,1.22379 ,1.07899 ,10.58701 
282 ,53.1827 ,1.22582 ,1.05503 ,10.35196 
283 ,53.3587 ,1.22764 ,1.04476 ,10.25123 
284 ,53.5186 ,1.22932 ,1.01739 ,9.98260 
285 ,53.7108 ,1.23104 ,1.01396 ,9.94902 
286 ,53.9032 ,1.23298 ,0.99685 ,9.78113 
287 ,54.0790 ,1.23481 ,0.99001 ,9.71397 
288 ,54.2709 ,1.23662 ,0.97290 ,9.54608 
289 ,54.4472 ,1.23847 ,0.96948 ,9.51250 
290 ,54.6553 ,1.24054 ,0.95237 ,9.34461 
291 ,54.8794 ,1.24264 ,0.92499 ,9.07598 
292 ,55.0555 ,1.24458 ,0.91130 ,8.94167 
293 ,55.2635 ,1.24649 ,0.91130 ,8.94167 
294 ,55.4395 ,1.24845 ,0.89077 ,8.74020 
295 ,55.6151 ,1.25013 ,0.88050 ,8.63947 
296 ,55.7917 ,1.25189 ,0.85312 ,8.37084 
297 ,56.0158 ,1.25398 ,0.84970 ,8.33726 
298 ,56.2079 ,1.25612 ,0.85654 ,8.40442 
299 ,56.4000 ,1.25789 ,0.81548 ,8.00148 
300 ,56.5919 ,1.25990 ,0.81548 ,8.00148 
301 ,56.7841 ,1.26185 ,0.79837 ,7.83359 
302 ,56.9761 ,1.26374 ,0.77784 ,7.63212 
303 ,57.1683 ,1.26561 ,0.78810 ,7.73285 
304 ,57.3599 ,1.26755 ,0.76072 ,7.46423 
305 ,57.5524 ,1.26940 ,0.73335 ,7.19560 
306 ,57.7600 ,1.27143 ,0.72650 ,7.12844 
307 ,57.9367 ,1.27334 ,0.71624 ,7.02771 
308 ,58.1283 ,1.27524 ,0.70597 ,6.92697 
309 ,58.3206 ,1.27715 ,0.69570 ,6.82624 
310 ,58.5128 ,1.27906 ,0.67175 ,6.59119 
311 ,58.7050 ,1.28105 ,0.66833 ,6.55761 
312 ,58.8809 ,1.28281 ,0.63753 ,6.25541 
313 ,59.0731 ,1.28463 ,0.62042 ,6.08752 
314 ,59.2652 ,1.28660 ,0.62726 ,6.15467 
315 ,59.4570 ,1.28851 ,0.61699 ,6.05394 
316 ,59.6653 ,1.29048 ,0.58277 ,5.71815 
317 ,59.8413 ,1.29243 ,0.57935 ,5.68458 
318 ,60.0335 ,1.29424 ,0.56908 ,5.58384 
319 ,60.2411 ,1.29635 ,0.55539 ,5.44953 
320 ,60.4176 ,1.29813 ,0.54513 ,5.34879 
321 ,60.6097 ,1.30002 ,0.52802 ,5.18090 
322 ,60.8016 ,1.30190 ,0.52459 ,5.14732 
323 ,61.0096 ,1.30397 ,0.50748 ,4.97943 
324 ,61.1857 ,1.30581 ,0.49380 ,4.84512 
325 ,61.3777 ,1.30760 ,0.48353 ,4.74438 
326 ,61.5539 ,1.30951 ,0.45615 ,4.47576 
327 ,61.7300 ,1.31125 ,0.44931 ,4.40860 
328 ,61.9222 ,1.31311 ,0.44931 ,4.40860 
329 ,62.1302 ,1.31520 ,0.40824 ,4.00566 
330 ,62.3224 ,1.31721 ,0.42535 ,4.17355 
331 ,62.5141 ,1.31904 ,0.39797 ,3.90493 
332 ,62.6901 ,1.32084 ,0.38429 ,3.77061 
333 ,62.8666 ,1.32262 ,0.37402 ,3.66988 
334 ,63.0584 ,1.32461 ,0.34664 ,3.40125 
335 ,63.2667 ,1.32654 ,0.35691 ,3.50199 
336 ,63.4588 ,1.32843 ,0.33980 ,3.33410 
337 ,63.6507 ,1.33041 ,0.32269 ,3.16620 
338 ,63.8266 ,1.33222 ,0.31242 ,3.06547 
339 ,64.0030 ,1.33396 ,0.31926 ,3.13263 
340 ,64.1786 ,1.33578 ,0.28504 ,2.79684 
341 ,64.3552 ,1.33753 ,0.27820 ,2.72969 
342 ,64.5472 ,1.33945 ,0.25424 ,2.49464 
343 ,64.7554 ,1.34142 ,0.24398 ,2.39390 
344 ,64.9473 ,1.34339 ,0.24055 ,2.36032 
345 ,65.1394 ,1.34540 ,0.22687 ,2.22601 
346 ,65.3154 ,1.34707 ,0.21318 ,2.09170 
347 ,65.5076 ,1.34890 ,0.19264 ,1.89023 
348 ,65.6837 ,1.35080 ,0.19949 ,1.95738 
349 ,65.8758 ,1.35268 ,0.15842 ,1.55445 
350 ,66.0678 ,1.35459 ,0.16869 ,1.65518 
351 ,66.2438 ,1.35640 ,0.16869 ,1.65518 
352 ,66.4201 ,1.35814 ,0.16185 ,1.58802 
353 ,66.6121 ,1.36006 ,0.12078 ,1.18508 
354 ,66.8201 ,1.36210 ,0.13105 ,1.28582 
355 ,66.9962 ,1.36391 ,0.11736 ,1.15151 
356 ,67.1882 ,1.36574 ,0.10709 ,1.05077 
357 ,67.3643 ,1.36761 ,0.10709 ,1.05077 
358 ,67.5405 ,1.36933 ,0.09340 ,0.91646 
359 ,67.7325 ,1.37124 ,0.06602 ,0.64783 
360 ,67.9245 ,1.37312 ,0.06602 ,0.64783 
361 ,68.1004 ,1.37494 ,0.06260 ,0.61425 
362 ,68.2926 ,1.37689 ,0.02838 ,0.27847 
363 ,68.4685 ,1.37859 ,0.02154 ,0.21131 
364 ,68.6770 ,1.38055 ,0.02496 ,0.24489 
365 ,68.8691 ,1.38264 ,-0.01269 ,-0.12447 
366 ,69.0610 ,1.38446 ,-0.01269 ,-0.12447 
367 ,69.2371 ,1.38631 ,-0.01269 ,-0.12447 
368 ,69.4611 ,1.38838 ,-0.04006 ,-0.39310 
369 ,69.6533 ,1.39042 ,-0.05033 ,-0.49383 
370 ,69.8454 ,1.39233 ,-0.06060 ,-0.59457 
371 ,70.0374 ,1.39425 ,-0.07771 ,-0.76246 
372 ,70.1977 ,1.39600 ,-0.10166 ,-0.99751 
373 ,70.3734 ,1.39764 ,-0.10508 ,-1.03108 
374 ,70.5658 ,1.39949 ,-0.10508 ,-1.03108 
375 ,70.7416 ,1.40138 ,-0.12219 ,-1.19898 
376 ,70.9338 ,1.40323 ,-0.13588 ,-1.33329 
377 ,71.1258 ,1.40508 ,-0.13246 ,-1.29971 
378 ,71.3018 ,1.40694 ,-0.15642 ,-1.53476 
379 ,71.4619 ,1.40865 ,-0.16326 ,-1.60191 
380 ,71.6381 ,1.41032 ,-0.17695 ,-1.73623 
381 ,71.8303 ,1.41212 ,-0.20090 ,-1.97128 
382 ,72.0383 ,1.41432 ,-0.21802 ,-2.13917 
383 ,72.2304 ,1.41616 ,-0.22828 ,-2.23990 
384 ,72.4220 ,1.41810 ,-0.21802 ,-2.13917 
385 ,72.6145 ,1.41994 ,-0.24539 ,-2.40779 
386 ,72.7901 ,1.42177 ,-0.26593 ,-2.60926 
387 ,72.9666 ,1.42361 ,-0.26935 ,-2.64284 
388 ,73.1583 ,1.42543 ,-0.27619 ,-2.71000 
389 ,73.3507 ,1.42738 ,-0.29673 ,-2.91147 
390 ,73.5264 ,1.42926 ,-0.30015 ,-2.94505 
391 ,73.7184 ,1.43103 ,-0.30357 ,-2.97863 
392 ,73.8945 ,1.43286 ,-0.32752 ,-3.21367 
393 ,74.0872 ,1.43469 ,-0.34464 ,-3.38156 
394 ,74.3272 ,1.43718 ,-0.35148 ,-3.44872 
395 ,74.5354 ,1.43921 ,-0.37544 ,-3.68377 
396 ,74.7272 ,1.44110 ,-0.37544 ,-3.68377 
397 ,74.9191 ,1.44305 ,-0.38228 ,-3.75093 
398 ,75.1116 ,1.44498 ,-0.41308 ,-4.05313 
399 ,75.3032 ,1.44697 ,-0.41992 ,-4.12029 
400 ,75.4958 ,1.44878 ,-0.41650 ,-4.08671 
401 ,75.7037 ,1.45088 ,-0.43019 ,-4.22102 
402 ,75.8800 ,1.45269 ,-0.43361 ,-4.25460 
403 ,76.0880 ,1.45474 ,-0.46099 ,-4.52323 
404 ,76.2961 ,1.45683 ,-0.48494 ,-4.75828 
405 ,76.5040 ,1.45884 ,-0.48494 ,-4.75828 
406 ,76.6800 ,1.46070 ,-0.49521 ,-4.85901 
407 ,76.8562 ,1.46248 ,-0.49863 ,-4.89259 
408 ,77.0322 ,1.46419 ,-0.52601 ,-5.16121 
409 ,77.2245 ,1.46613 ,-0.52943 ,-5.19479 
410 ,77.4165 ,1.46806 ,-0.52601 ,-5.16121 
411 ,77.6246 ,1.47006 ,-0.55681 ,-5.46342 
412 ,77.8007 ,1.47190 ,-0.55681 ,-5.46342 
413 ,77.9927 ,1.47378 ,-0.57050 ,-5.59773 
414 ,78.1683 ,1.47556 ,-0.57392 ,-5.63131 
415 ,78.3450 ,1.47735 ,-0.58419 ,-5.73205 
416 ,78.5370 ,1.47923 ,-0.58419 ,-5.73205 
417 ,78.7290 ,1.48127 ,-0.60130 ,-5.89994 
418 ,78.9048 ,1.48298 ,-0.61156 ,-6.00067 
419 ,79.0811 ,1.48468 ,-0.62183 ,-6.10141 
420 ,79.2569 ,1.48653 ,-0.62525 ,-6.13499 
421 ,79.4330 ,1.48825 ,-0.62525 ,-6.13499 
422 ,79.6252 ,1.49015 ,-0.64921 ,-6.37003 
423 ,79.8336 ,1.49210 ,-0.64579 ,-6.33646 
424 ,80.0254 ,1.49407 ,-0.67316 ,-6.60508 
425 ,80.2176 ,1.49604 ,-0.66290 ,-6.50435 
426 ,80.3938 ,1.49784 ,-0.69027 ,-6.77297 
427 ,80.5853 ,1.49975 ,-0.71081 ,-6.97444 
428 ,80.7775 ,1.50160 ,-0.70739 ,-6.94086 
429 ,80.9536 ,1.50343 ,-0.71423 ,-7.00802 
430 ,81.1457 ,1.50528 ,-0.75187 ,-7.37738 
431 ,81.3216 ,1.50717 ,-0.73818 ,-7.24307 
432 ,81.5139 ,1.50899 ,-0.74503 ,-7.31023 
433 ,81.7543 ,1.51135 ,-0.78267 ,-7.67959 
434 ,81.9621 ,1.51344 ,-0.79294 ,-7.78032 
435 ,82.1542 ,1.51533 ,-0.78952 ,-7.74674 
436 ,82.3625 ,1.51746 ,-0.80663 ,-7.91464 
437 ,82.5703 ,1.51952 ,-0.83743 ,-8.21684 
438 ,82.7787 ,1.52159 ,-0.81347 ,-7.98179 
439 ,82.9547 ,1.52347 ,-0.83401 ,-8.18326 
440 ,83.1307 ,1.52514 ,-0.85796 ,-8.41831 
441 ,83.3229 ,1.52704 ,-0.86481 ,-8.48547 
442 ,83.5145 ,1.52899 ,-0.87507 ,-8.58620 
443 ,83.7230 ,1.53102 ,-0.89218 ,-8.75409 
444 ,83.9309 ,1.53316 ,-0.88876 ,-8.72051 
445 ,84.1232 ,1.53504 ,-0.92298 ,-9.05630 
446 ,84.3152 ,1.53692 ,-0.91956 ,-9.02272 
447 ,84.4910 ,1.53883 ,-0.92298 ,-9.05630 
448 ,84.6669 ,1.54053 ,-0.95378 ,-9.35850 
449 ,84.8596 ,1.54240 ,-0.94351 ,-9.25777 
450 ,85.0511 ,1.54432 ,-0.96063 ,-9.42566 
451 ,85.2274 ,1.54612 ,-0.98458 ,-9.66071 
452 ,85.4037 ,1.54788 ,-0.99485 ,-9.76144 
453 ,85.5958 ,1.54978 ,-0.99143 ,-9.72786 
454 ,85.7555 ,1.55152 ,-1.00511 ,-9.86218 
455 ,85.9318 ,1.55316 ,-0.99827 ,-9.79502 
456 ,86.1241 ,1.55511 ,-1.02565 ,-10.06365 
457 ,86.3001 ,1.55693 ,-1.02907 ,-10.09723 
458 ,86.4757 ,1.55868 ,-1.03591 ,-10.16438 
459 ,86.6523 ,1.56042 ,-1.02907 ,-10.09723 
460 ,86.8443 ,1.56228 ,-1.05302 ,-10.33227 
461 ,87.0200 ,1.56403 ,-1.07698 ,-10.56732 
462 ,87.1964 ,1.56582 ,-1.08382 ,-10.63448 
