Data stamp = , 22-04-2022 13:03:08 496

Calibration Values: 
Slope = , 26.54 , g/V 
Offset Voltage at no contact = , -0.501760 , V 

No , Time , Stage Position ,   Mass , Force 
   ,  (s) ,      (mm)      ,   (g)  , (mN)  

1 ,0.0000 ,0.69939 ,5.38065 ,52.79493 
2 ,0.2163 ,0.69948 ,5.38749 ,52.86209 
3 ,0.5529 ,0.70041 ,5.39434 ,52.92925 
4 ,0.7610 ,0.70200 ,5.41145 ,53.09714 
5 ,0.9691 ,0.70381 ,5.39434 ,52.92925 
6 ,1.1611 ,0.70572 ,5.40803 ,53.06356 
7 ,1.3531 ,0.70767 ,5.41145 ,53.09714 
8 ,1.5292 ,0.70942 ,5.38065 ,52.79493 
9 ,1.7051 ,0.71116 ,5.39092 ,52.89567 
10 ,1.8814 ,0.71299 ,5.36354 ,52.62704 
11 ,2.0894 ,0.71502 ,5.35327 ,52.52631 
12 ,2.2656 ,0.71686 ,5.34985 ,52.49273 
13 ,2.4576 ,0.71866 ,5.31221 ,52.12337 
14 ,2.6658 ,0.72075 ,5.30536 ,52.05621 
15 ,2.8578 ,0.72269 ,5.26430 ,51.65327 
16 ,3.0337 ,0.72451 ,5.25403 ,51.55254 
17 ,3.2100 ,0.72626 ,5.24034 ,51.41822 
18 ,3.3855 ,0.72806 ,5.22323 ,51.25033 
19 ,3.5620 ,0.72980 ,5.22323 ,51.25033 
20 ,3.7701 ,0.73175 ,5.19585 ,50.98170 
21 ,3.9459 ,0.73359 ,5.17532 ,50.78023 
22 ,4.1223 ,0.73541 ,5.15479 ,50.57876 
23 ,4.2984 ,0.73717 ,5.12056 ,50.24298 
24 ,4.4739 ,0.73886 ,5.11372 ,50.17583 
25 ,4.6345 ,0.74061 ,5.10003 ,50.04151 
26 ,4.8107 ,0.74230 ,5.09319 ,49.97436 
27 ,5.0026 ,0.74413 ,5.06923 ,49.73931 
28 ,5.1788 ,0.74592 ,5.04870 ,49.53784 
29 ,5.3709 ,0.74781 ,5.03843 ,49.43710 
30 ,5.5629 ,0.74984 ,5.01448 ,49.20205 
31 ,5.7390 ,0.75159 ,4.98368 ,48.89985 
32 ,5.9145 ,0.75340 ,4.99737 ,49.03416 
33 ,6.0912 ,0.75507 ,4.96315 ,48.69838 
34 ,6.2831 ,0.75694 ,4.93577 ,48.42975 
35 ,6.4593 ,0.75875 ,4.92892 ,48.36260 
36 ,6.6349 ,0.76049 ,4.90839 ,48.16113 
37 ,6.8271 ,0.76235 ,4.90497 ,48.12755 
38 ,7.0034 ,0.76415 ,4.88444 ,47.92608 
39 ,7.1795 ,0.76593 ,4.84679 ,47.55672 
40 ,7.3556 ,0.76769 ,4.85021 ,47.59030 
41 ,7.5637 ,0.76962 ,4.82968 ,47.38883 
42 ,7.7716 ,0.77183 ,4.80573 ,47.15378 
43 ,7.9638 ,0.77377 ,4.79546 ,47.05304 
44 ,8.1399 ,0.77558 ,4.77835 ,46.88515 
45 ,8.3321 ,0.77737 ,4.77150 ,46.81800 
46 ,8.5081 ,0.77927 ,4.75782 ,46.68368 
47 ,8.6998 ,0.78106 ,4.71333 ,46.24716 
48 ,8.8923 ,0.78300 ,4.71675 ,46.28074 
49 ,9.0843 ,0.78498 ,4.67911 ,45.91138 
50 ,9.2605 ,0.78674 ,4.67226 ,45.84422 
51 ,9.4525 ,0.78858 ,4.67226 ,45.84422 
52 ,9.6446 ,0.79051 ,4.63119 ,45.44128 
53 ,9.8363 ,0.79241 ,4.63804 ,45.50844 
54 ,10.0127 ,0.79422 ,4.61751 ,45.30697 
55 ,10.2047 ,0.79612 ,4.57986 ,44.93761 
56 ,10.3969 ,0.79807 ,4.57644 ,44.90403 
57 ,10.5887 ,0.80001 ,4.56275 ,44.76972 
58 ,10.7971 ,0.80202 ,4.55249 ,44.66898 
59 ,10.9891 ,0.80399 ,4.51142 ,44.26604 
60 ,11.1972 ,0.80596 ,4.49089 ,44.06457 
61 ,11.3893 ,0.80791 ,4.48062 ,43.96384 
62 ,11.5972 ,0.81005 ,4.46351 ,43.79595 
63 ,11.7734 ,0.81186 ,4.46351 ,43.79595 
64 ,11.9650 ,0.81383 ,4.43271 ,43.49374 
65 ,12.1416 ,0.81558 ,4.41560 ,43.32585 
66 ,12.3336 ,0.81741 ,4.40875 ,43.25870 
67 ,12.5097 ,0.81922 ,4.40191 ,43.19154 
68 ,12.7176 ,0.82122 ,4.36427 ,42.82218 
69 ,12.8938 ,0.82311 ,4.35400 ,42.72144 
70 ,13.0700 ,0.82482 ,4.35400 ,42.72144 
71 ,13.2459 ,0.82658 ,4.33004 ,42.48639 
72 ,13.4382 ,0.82852 ,4.30951 ,42.28492 
73 ,13.6300 ,0.83037 ,4.28556 ,42.04988 
74 ,13.8061 ,0.83218 ,4.27529 ,41.94914 
75 ,14.0143 ,0.83425 ,4.26502 ,41.84841 
76 ,14.2061 ,0.83607 ,4.23422 ,41.54620 
77 ,14.3826 ,0.83793 ,4.21711 ,41.37831 
78 ,14.5745 ,0.83989 ,4.22053 ,41.41189 
79 ,14.7667 ,0.84171 ,4.18289 ,41.04253 
80 ,14.9587 ,0.84360 ,4.18289 ,41.04253 
81 ,15.1345 ,0.84546 ,4.17262 ,40.94179 
82 ,15.3108 ,0.84726 ,4.15551 ,40.77390 
83 ,15.5186 ,0.84926 ,4.13156 ,40.53885 
84 ,15.6948 ,0.85105 ,4.12814 ,40.50527 
85 ,15.8710 ,0.85286 ,4.10418 ,40.27023 
86 ,16.0631 ,0.85467 ,4.08023 ,40.03518 
87 ,16.2390 ,0.85645 ,4.08023 ,40.03518 
88 ,16.4149 ,0.85825 ,4.05285 ,39.76655 
89 ,16.5911 ,0.86003 ,4.03232 ,39.56508 
90 ,16.8155 ,0.86220 ,4.03232 ,39.56508 
91 ,17.0075 ,0.86411 ,3.98783 ,39.12856 
92 ,17.1836 ,0.86593 ,3.98783 ,39.12856 
93 ,17.3596 ,0.86771 ,3.97756 ,39.02783 
94 ,17.5518 ,0.86967 ,3.96045 ,38.85994 
95 ,17.7438 ,0.87157 ,3.94334 ,38.69205 
96 ,17.9199 ,0.87334 ,3.92965 ,38.55773 
97 ,18.1119 ,0.87513 ,3.89885 ,38.25553 
98 ,18.3040 ,0.87708 ,3.88858 ,38.15479 
99 ,18.4799 ,0.87891 ,3.87490 ,38.02048 
100 ,18.6722 ,0.88083 ,3.85094 ,37.78543 
101 ,18.8643 ,0.88267 ,3.85094 ,37.78543 
102 ,19.0564 ,0.88458 ,3.83041 ,37.58396 
103 ,19.2485 ,0.88650 ,3.79961 ,37.28176 
104 ,19.4242 ,0.88838 ,3.79961 ,37.28176 
105 ,19.6004 ,0.89014 ,3.77565 ,37.04671 
106 ,19.8087 ,0.89220 ,3.73801 ,36.67735 
107 ,19.9847 ,0.89393 ,3.74828 ,36.77808 
108 ,20.1767 ,0.89578 ,3.72774 ,36.57661 
109 ,20.3526 ,0.89761 ,3.71405 ,36.44230 
110 ,20.5284 ,0.89938 ,3.69010 ,36.20725 
111 ,20.7051 ,0.90113 ,3.66957 ,36.00578 
112 ,20.9129 ,0.90320 ,3.65930 ,35.90505 
113 ,21.0891 ,0.90498 ,3.63192 ,35.63642 
114 ,21.2812 ,0.90686 ,3.63192 ,35.63642 
115 ,21.4733 ,0.90880 ,3.60797 ,35.40137 
116 ,21.6653 ,0.91068 ,3.59086 ,35.23348 
117 ,21.8574 ,0.91265 ,3.57717 ,35.09917 
118 ,22.0494 ,0.91459 ,3.56006 ,34.93128 
119 ,22.2417 ,0.91648 ,3.55321 ,34.86412 
120 ,22.4336 ,0.91832 ,3.53268 ,34.66265 
121 ,22.6253 ,0.92033 ,3.51899 ,34.52834 
122 ,22.8176 ,0.92230 ,3.51215 ,34.46118 
123 ,23.0101 ,0.92409 ,3.47792 ,34.12540 
124 ,23.2021 ,0.92606 ,3.47792 ,34.12540 
125 ,23.3940 ,0.92801 ,3.44370 ,33.78961 
126 ,23.5702 ,0.92979 ,3.41975 ,33.55457 
127 ,23.7620 ,0.93163 ,3.41975 ,33.55457 
128 ,23.9386 ,0.93348 ,3.38895 ,33.25236 
129 ,24.1145 ,0.93521 ,3.37526 ,33.11805 
130 ,24.3226 ,0.93716 ,3.38553 ,33.21878 
131 ,24.5147 ,0.93922 ,3.34446 ,32.81584 
132 ,24.7067 ,0.94110 ,3.34446 ,32.81584 
133 ,24.8825 ,0.94295 ,3.31708 ,32.54722 
134 ,25.0586 ,0.94467 ,3.30339 ,32.41290 
135 ,25.2509 ,0.94651 ,3.28971 ,32.27859 
136 ,25.4430 ,0.94850 ,3.28286 ,32.21143 
137 ,25.6510 ,0.95041 ,3.25206 ,31.90923 
138 ,25.8271 ,0.95238 ,3.23495 ,31.74134 
139 ,26.0190 ,0.95423 ,3.22468 ,31.64060 
140 ,26.2269 ,0.95630 ,3.22468 ,31.64060 
141 ,26.4033 ,0.95811 ,3.21100 ,31.50629 
142 ,26.5789 ,0.95990 ,3.19731 ,31.37198 
143 ,26.7555 ,0.96162 ,3.16309 ,31.03619 
144 ,26.9471 ,0.96350 ,3.14940 ,30.90188 
145 ,27.1238 ,0.96532 ,3.14940 ,30.90188 
146 ,27.3317 ,0.96732 ,3.12544 ,30.66683 
147 ,27.5078 ,0.96913 ,3.11518 ,30.56610 
148 ,27.6999 ,0.97095 ,3.10833 ,30.49894 
149 ,27.8918 ,0.97299 ,3.07411 ,30.16316 
150 ,28.0676 ,0.97473 ,3.06384 ,30.06242 
151 ,28.2438 ,0.97649 ,3.05700 ,29.99527 
152 ,28.4360 ,0.97833 ,3.01593 ,29.59233 
153 ,28.6122 ,0.98018 ,3.00224 ,29.45801 
154 ,28.8203 ,0.98220 ,2.98855 ,29.32370 
155 ,29.0279 ,0.98430 ,2.99882 ,29.42444 
156 ,29.2044 ,0.98607 ,2.96460 ,29.08865 
157 ,29.3804 ,0.98790 ,2.95091 ,28.95434 
158 ,29.5726 ,0.98980 ,2.93380 ,28.78645 
159 ,29.7806 ,0.99181 ,2.91669 ,28.61856 
160 ,29.9568 ,0.99363 ,2.89273 ,28.38351 
161 ,30.1487 ,0.99544 ,2.89273 ,28.38351 
162 ,30.3729 ,0.99761 ,2.86878 ,28.14846 
163 ,30.5645 ,0.99968 ,2.86193 ,28.08130 
164 ,30.7410 ,1.00146 ,2.82771 ,27.74552 
165 ,30.9170 ,1.00325 ,2.81745 ,27.64479 
166 ,31.0932 ,1.00498 ,2.81402 ,27.61121 
167 ,31.2848 ,1.00687 ,2.78322 ,27.30900 
168 ,31.4772 ,1.00879 ,2.76611 ,27.14111 
169 ,31.6530 ,1.01063 ,2.76269 ,27.10753 
170 ,31.8293 ,1.01236 ,2.76611 ,27.14111 
171 ,32.0055 ,1.01408 ,2.74558 ,26.93964 
172 ,32.1976 ,1.01602 ,2.71478 ,26.63744 
173 ,32.3893 ,1.01787 ,2.71136 ,26.60386 
174 ,32.5819 ,1.01975 ,2.70794 ,26.57028 
175 ,32.7579 ,1.02166 ,2.64976 ,25.99945 
176 ,32.9500 ,1.02350 ,2.65660 ,26.06661 
177 ,33.1421 ,1.02548 ,2.62581 ,25.76440 
178 ,33.3340 ,1.02733 ,2.63949 ,25.89871 
179 ,33.5101 ,1.02912 ,2.61896 ,25.69724 
180 ,33.7023 ,1.03109 ,2.57447 ,25.26073 
181 ,33.8943 ,1.03298 ,2.57105 ,25.22715 
182 ,34.0862 ,1.03481 ,2.57105 ,25.22715 
183 ,34.3102 ,1.03702 ,2.54367 ,24.95852 
184 ,34.5021 ,1.03903 ,2.51630 ,24.68989 
185 ,34.6786 ,1.04084 ,2.49918 ,24.52200 
186 ,34.8547 ,1.04255 ,2.49918 ,24.52200 
187 ,35.0308 ,1.04443 ,2.48550 ,24.38769 
188 ,35.2229 ,1.04620 ,2.45812 ,24.11906 
189 ,35.4148 ,1.04813 ,2.45812 ,24.11906 
190 ,35.5906 ,1.04995 ,2.44785 ,24.01833 
191 ,35.7828 ,1.05180 ,2.41363 ,23.68255 
192 ,35.9750 ,1.05370 ,2.40679 ,23.61539 
193 ,36.1671 ,1.05566 ,2.38283 ,23.38034 
194 ,36.3431 ,1.05750 ,2.36914 ,23.24603 
195 ,36.5354 ,1.05938 ,2.36230 ,23.17887 
196 ,36.7115 ,1.06110 ,2.35203 ,23.07814 
197 ,36.8876 ,1.06292 ,2.34519 ,23.01098 
198 ,37.0954 ,1.06496 ,2.30070 ,22.57446 
199 ,37.2717 ,1.06676 ,2.29728 ,22.54088 
200 ,37.4478 ,1.06848 ,2.29385 ,22.50731 
201 ,37.6235 ,1.07028 ,2.27332 ,22.30584 
202 ,37.8160 ,1.07218 ,2.25621 ,22.13794 
203 ,37.9920 ,1.07396 ,2.24937 ,22.07079 
204 ,38.2002 ,1.07582 ,2.21857 ,21.76858 
205 ,38.3921 ,1.07786 ,2.21857 ,21.76858 
206 ,38.5683 ,1.07974 ,2.20488 ,21.63427 
207 ,38.7443 ,1.08142 ,2.18092 ,21.39922 
208 ,38.9205 ,1.08321 ,2.14670 ,21.06344 
209 ,39.1125 ,1.08518 ,2.15355 ,21.13059 
210 ,39.3047 ,1.08703 ,2.11248 ,20.72766 
211 ,39.4966 ,1.08900 ,2.11932 ,20.79481 
212 ,39.6727 ,1.09078 ,2.11590 ,20.76123 
213 ,39.8806 ,1.09270 ,2.09879 ,20.59334 
214 ,40.0729 ,1.09474 ,2.07826 ,20.39187 
215 ,40.2650 ,1.09662 ,2.05773 ,20.19040 
216 ,40.4411 ,1.09847 ,2.03377 ,19.95535 
217 ,40.6326 ,1.10032 ,2.03719 ,19.98893 
218 ,40.8249 ,1.10228 ,2.01666 ,19.78746 
219 ,41.0009 ,1.10401 ,1.99955 ,19.61957 
220 ,41.1773 ,1.10585 ,1.96875 ,19.31737 
221 ,41.3692 ,1.10761 ,1.96875 ,19.31737 
222 ,41.5455 ,1.10946 ,1.94137 ,19.04874 
223 ,41.7377 ,1.11133 ,1.95848 ,19.21663 
224 ,41.9138 ,1.11315 ,1.94137 ,19.04874 
225 ,42.1053 ,1.11503 ,1.91399 ,18.78011 
226 ,42.2819 ,1.11681 ,1.88319 ,18.47791 
227 ,42.4579 ,1.11857 ,1.87635 ,18.41075 
228 ,42.6501 ,1.12047 ,1.85924 ,18.24286 
229 ,42.8259 ,1.12238 ,1.84555 ,18.10855 
230 ,43.0021 ,1.12401 ,1.82844 ,17.94066 
231 ,43.1781 ,1.12587 ,1.83186 ,17.97423 
232 ,43.3543 ,1.12757 ,1.82502 ,17.90708 
233 ,43.5463 ,1.12939 ,1.80449 ,17.70561 
234 ,43.7542 ,1.13146 ,1.79080 ,17.57129 
235 ,43.9464 ,1.13348 ,1.76684 ,17.33625 
236 ,44.1226 ,1.13523 ,1.74631 ,17.13478 
237 ,44.2826 ,1.13694 ,1.72578 ,16.93331 
238 ,44.4586 ,1.13861 ,1.72578 ,16.93331 
239 ,44.6347 ,1.14035 ,1.71893 ,16.86615 
240 ,44.8109 ,1.14211 ,1.72235 ,16.89973 
241 ,44.9870 ,1.14386 ,1.69498 ,16.63110 
242 ,45.1949 ,1.14593 ,1.68129 ,16.49679 
243 ,45.3711 ,1.14771 ,1.67444 ,16.42963 
244 ,45.5471 ,1.14946 ,1.64364 ,16.12743 
245 ,45.7393 ,1.15132 ,1.62995 ,15.99311 
246 ,45.9314 ,1.15325 ,1.61627 ,15.85880 
247 ,46.1236 ,1.15513 ,1.59231 ,15.62375 
248 ,46.3153 ,1.15714 ,1.58889 ,15.59018 
249 ,46.5077 ,1.15902 ,1.55124 ,15.22081 
250 ,46.6997 ,1.16100 ,1.56151 ,15.32155 
251 ,46.8756 ,1.16272 ,1.53071 ,15.01934 
252 ,47.0838 ,1.16475 ,1.51702 ,14.88503 
253 ,47.2597 ,1.16660 ,1.49991 ,14.71714 
254 ,47.4357 ,1.16839 ,1.49649 ,14.68356 
255 ,47.6280 ,1.17023 ,1.46911 ,14.41493 
256 ,47.8201 ,1.17215 ,1.47596 ,14.48209 
257 ,48.0122 ,1.17405 ,1.44174 ,14.14631 
258 ,48.2044 ,1.17599 ,1.41436 ,13.87768 
259 ,48.3805 ,1.17781 ,1.41094 ,13.84410 
260 ,48.5724 ,1.17964 ,1.39725 ,13.70979 
261 ,48.7485 ,1.18148 ,1.38698 ,13.60906 
262 ,48.9406 ,1.18329 ,1.38014 ,13.54190 
263 ,49.1327 ,1.18528 ,1.37671 ,13.50832 
264 ,49.3088 ,1.18709 ,1.34249 ,13.17254 
265 ,49.5004 ,1.18893 ,1.33565 ,13.10538 
266 ,49.6924 ,1.19085 ,1.30485 ,12.80318 
267 ,49.8847 ,1.19276 ,1.31169 ,12.87033 
268 ,50.1091 ,1.19498 ,1.28774 ,12.63528 
269 ,50.2852 ,1.19689 ,1.29116 ,12.66886 
270 ,50.4611 ,1.19859 ,1.27063 ,12.46739 
271 ,50.6369 ,1.20044 ,1.25352 ,12.29950 
272 ,50.8134 ,1.20212 ,1.24325 ,12.19877 
273 ,51.0055 ,1.20403 ,1.21929 ,11.96372 
274 ,51.1976 ,1.20589 ,1.21245 ,11.89656 
275 ,51.3733 ,1.20775 ,1.18507 ,11.62794 
276 ,51.5493 ,1.20947 ,1.18165 ,11.59436 
277 ,51.7255 ,1.21120 ,1.16112 ,11.39289 
278 ,51.9179 ,1.21308 ,1.15427 ,11.32573 
279 ,52.1419 ,1.21522 ,1.13032 ,11.09068 
280 ,52.3341 ,1.21725 ,1.11321 ,10.92279 
281 ,52.5419 ,1.21938 ,1.11321 ,10.92279 
282 ,52.7340 ,1.22129 ,1.10294 ,10.82206 
283 ,52.9259 ,1.22315 ,1.08241 ,10.62059 
284 ,53.1020 ,1.22499 ,1.06530 ,10.45270 
285 ,53.2779 ,1.22678 ,1.06187 ,10.41912 
286 ,53.4539 ,1.22856 ,1.02423 ,10.04976 
287 ,53.6461 ,1.23035 ,1.03108 ,10.11691 
288 ,53.8222 ,1.23225 ,1.00712 ,9.88186 
289 ,54.0142 ,1.23403 ,1.00712 ,9.88186 
290 ,54.2064 ,1.23593 ,0.98317 ,9.64682 
291 ,54.3823 ,1.23786 ,0.98659 ,9.68039 
292 ,54.5744 ,1.23962 ,0.95921 ,9.41177 
293 ,54.7506 ,1.24147 ,0.94894 ,9.31103 
294 ,54.9266 ,1.24322 ,0.91472 ,8.97525 
295 ,55.1187 ,1.24512 ,0.92157 ,9.04241 
296 ,55.2948 ,1.24688 ,0.91472 ,8.97525 
297 ,55.4868 ,1.24875 ,0.90788 ,8.90809 
298 ,55.6629 ,1.25064 ,0.88392 ,8.67305 
299 ,55.8391 ,1.25235 ,0.87708 ,8.60589 
300 ,56.0150 ,1.25412 ,0.85997 ,8.43800 
301 ,56.2071 ,1.25602 ,0.82917 ,8.13579 
302 ,56.3832 ,1.25783 ,0.83259 ,8.16937 
303 ,56.5753 ,1.25965 ,0.81206 ,7.96790 
304 ,56.7514 ,1.26150 ,0.79837 ,7.83359 
305 ,56.9276 ,1.26325 ,0.78468 ,7.69927 
306 ,57.1036 ,1.26503 ,0.78126 ,7.66570 
307 ,57.2957 ,1.26683 ,0.76415 ,7.49780 
308 ,57.4719 ,1.26866 ,0.75730 ,7.43065 
309 ,57.6638 ,1.27049 ,0.74704 ,7.32991 
310 ,57.8398 ,1.27236 ,0.74019 ,7.26276 
311 ,58.0319 ,1.27418 ,0.71281 ,6.99413 
312 ,58.2082 ,1.27608 ,0.72650 ,7.12844 
313 ,58.3842 ,1.27785 ,0.70597 ,6.92697 
314 ,58.5603 ,1.27954 ,0.69913 ,6.85982 
315 ,58.7364 ,1.28131 ,0.67175 ,6.59119 
316 ,58.9125 ,1.28306 ,0.65806 ,6.45688 
317 ,59.1045 ,1.28491 ,0.65464 ,6.42330 
318 ,59.2805 ,1.28677 ,0.63753 ,6.25541 
319 ,59.4726 ,1.28864 ,0.62042 ,6.08752 
320 ,59.6489 ,1.29039 ,0.59988 ,5.88605 
321 ,59.8247 ,1.29223 ,0.60673 ,5.95320 
322 ,60.0009 ,1.29395 ,0.59988 ,5.88605 
323 ,60.1929 ,1.29577 ,0.56908 ,5.58384 
324 ,60.3850 ,1.29769 ,0.55539 ,5.44953 
325 ,60.5609 ,1.29963 ,0.53828 ,5.28164 
326 ,60.7371 ,1.30134 ,0.54513 ,5.34879 
327 ,60.9130 ,1.30306 ,0.50748 ,4.97943 
328 ,61.1051 ,1.30491 ,0.50406 ,4.94585 
329 ,61.2811 ,1.30680 ,0.49380 ,4.84512 
330 ,61.4573 ,1.30851 ,0.49380 ,4.84512 
331 ,61.6334 ,1.31036 ,0.46984 ,4.61007 
332 ,61.8414 ,1.31227 ,0.45957 ,4.50934 
333 ,62.0177 ,1.31412 ,0.44931 ,4.40860 
334 ,62.1937 ,1.31593 ,0.44246 ,4.34144 
335 ,62.3697 ,1.31762 ,0.42535 ,4.17355 
336 ,62.5459 ,1.31935 ,0.42193 ,4.13997 
337 ,62.7378 ,1.32125 ,0.40824 ,4.00566 
338 ,62.9140 ,1.32305 ,0.38086 ,3.73703 
339 ,63.0899 ,1.32483 ,0.35691 ,3.50199 
340 ,63.2819 ,1.32668 ,0.36033 ,3.53557 
341 ,63.4581 ,1.32853 ,0.35691 ,3.50199 
342 ,63.6342 ,1.33033 ,0.35006 ,3.43483 
343 ,63.8262 ,1.33213 ,0.33980 ,3.33410 
344 ,64.0022 ,1.33394 ,0.31584 ,3.09905 
345 ,64.1943 ,1.33578 ,0.30215 ,2.96473 
346 ,64.3704 ,1.33764 ,0.28847 ,2.83042 
347 ,64.5626 ,1.33949 ,0.26793 ,2.62895 
348 ,64.7386 ,1.34130 ,0.26451 ,2.59537 
349 ,64.9149 ,1.34311 ,0.25082 ,2.46106 
350 ,65.0906 ,1.34483 ,0.26109 ,2.56179 
351 ,65.2669 ,1.34662 ,0.24055 ,2.36032 
352 ,65.4270 ,1.34830 ,0.22687 ,2.22601 
353 ,65.6032 ,1.34994 ,0.22687 ,2.22601 
354 ,65.7792 ,1.35171 ,0.19607 ,1.92381 
355 ,65.9713 ,1.35359 ,0.19264 ,1.89023 
356 ,66.1474 ,1.35541 ,0.17896 ,1.75592 
357 ,66.3234 ,1.35713 ,0.18580 ,1.82307 
358 ,66.5154 ,1.35897 ,0.15842 ,1.55445 
359 ,66.6914 ,1.36080 ,0.14131 ,1.38655 
360 ,66.8834 ,1.36268 ,0.12762 ,1.25224 
361 ,67.0595 ,1.36451 ,0.12762 ,1.25224 
362 ,67.2356 ,1.36631 ,0.11736 ,1.15151 
363 ,67.4118 ,1.36808 ,0.10367 ,1.01719 
364 ,67.5878 ,1.36980 ,0.10709 ,1.05077 
365 ,67.7799 ,1.37168 ,0.07629 ,0.74857 
366 ,67.9559 ,1.37345 ,0.05234 ,0.51352 
367 ,68.1322 ,1.37525 ,0.03522 ,0.34563 
368 ,68.3082 ,1.37700 ,0.04891 ,0.47994 
369 ,68.4843 ,1.37872 ,0.04549 ,0.44636 
370 ,68.6603 ,1.38054 ,0.03522 ,0.34563 
371 ,68.8365 ,1.38230 ,0.02838 ,0.27847 
372 ,69.0125 ,1.38401 ,-0.00584 ,-0.05731 
373 ,69.2046 ,1.38586 ,-0.01611 ,-0.15805 
374 ,69.3807 ,1.38770 ,-0.01953 ,-0.19163 
375 ,69.5728 ,1.38956 ,-0.02637 ,-0.25878 
376 ,69.7488 ,1.39138 ,-0.04006 ,-0.39310 
377 ,69.9410 ,1.39323 ,-0.07428 ,-0.72888 
378 ,70.1169 ,1.39509 ,-0.09140 ,-0.89677 
379 ,70.2932 ,1.39686 ,-0.06402 ,-0.62814 
380 ,70.4850 ,1.39866 ,-0.09482 ,-0.93035 
381 ,70.6609 ,1.40051 ,-0.09824 ,-0.96393 
382 ,70.8372 ,1.40239 ,-0.12562 ,-1.23255 
383 ,71.0133 ,1.40406 ,-0.11877 ,-1.16540 
384 ,71.1893 ,1.40581 ,-0.13588 ,-1.33329 
385 ,71.3653 ,1.40755 ,-0.15642 ,-1.53476 
386 ,71.5413 ,1.40935 ,-0.17011 ,-1.66907 
387 ,71.7175 ,1.41109 ,-0.19406 ,-1.90412 
388 ,71.8936 ,1.41279 ,-0.19064 ,-1.87054 
389 ,72.0857 ,1.41465 ,-0.21117 ,-2.07201 
390 ,72.2617 ,1.41651 ,-0.22144 ,-2.17275 
391 ,72.4539 ,1.41833 ,-0.20433 ,-2.00485 
392 ,72.6300 ,1.42021 ,-0.22144 ,-2.17275 
393 ,72.8220 ,1.42201 ,-0.26593 ,-2.60926 
394 ,73.0140 ,1.42394 ,-0.24881 ,-2.44137 
395 ,73.2061 ,1.42584 ,-0.27619 ,-2.71000 
396 ,73.3981 ,1.42782 ,-0.29330 ,-2.87789 
397 ,73.5742 ,1.42967 ,-0.28988 ,-2.84431 
398 ,73.7503 ,1.43138 ,-0.28988 ,-2.84431 
399 ,73.9263 ,1.43317 ,-0.30357 ,-2.97863 
400 ,74.1024 ,1.43488 ,-0.32068 ,-3.14652 
401 ,74.2785 ,1.43670 ,-0.34121 ,-3.34799 
402 ,74.4706 ,1.43853 ,-0.34121 ,-3.34799 
403 ,74.6466 ,1.44037 ,-0.35832 ,-3.51588 
404 ,74.8227 ,1.44218 ,-0.35490 ,-3.48230 
405 ,75.0149 ,1.44394 ,-0.36859 ,-3.61661 
406 ,75.1908 ,1.44575 ,-0.37886 ,-3.71735 
407 ,75.3829 ,1.44766 ,-0.39939 ,-3.91882 
408 ,75.5750 ,1.44955 ,-0.40623 ,-3.98597 
409 ,75.7671 ,1.45148 ,-0.41992 ,-4.12029 
410 ,75.9432 ,1.45327 ,-0.43019 ,-4.22102 
411 ,76.1192 ,1.45508 ,-0.44388 ,-4.35534 
412 ,76.2953 ,1.45678 ,-0.45414 ,-4.45607 
413 ,76.4714 ,1.45856 ,-0.45414 ,-4.45607 
414 ,76.6632 ,1.46046 ,-0.47468 ,-4.65754 
415 ,77.0155 ,1.46398 ,-0.48152 ,-4.72470 
416 ,77.1916 ,1.46578 ,-0.49521 ,-4.85901 
417 ,77.3677 ,1.46753 ,-0.49179 ,-4.82543 
418 ,77.5439 ,1.46935 ,-0.51574 ,-5.06048 
419 ,77.7359 ,1.47115 ,-0.51574 ,-5.06048 
420 ,77.9119 ,1.47299 ,-0.53970 ,-5.29553 
421 ,78.1039 ,1.47481 ,-0.57734 ,-5.66489 
422 ,78.2800 ,1.47671 ,-0.57734 ,-5.66489 
423 ,78.4402 ,1.47838 ,-0.56365 ,-5.53058 
424 ,78.6161 ,1.48003 ,-0.58077 ,-5.69847 
425 ,78.8082 ,1.48185 ,-0.58761 ,-5.76562 
426 ,78.9843 ,1.48369 ,-0.60814 ,-5.96709 
427 ,79.1604 ,1.48548 ,-0.62183 ,-6.10141 
428 ,79.3366 ,1.48722 ,-0.61499 ,-6.03425 
429 ,79.5126 ,1.48895 ,-0.63210 ,-6.20214 
430 ,79.7046 ,1.49080 ,-0.65263 ,-6.40361 
431 ,79.8966 ,1.49279 ,-0.65947 ,-6.47077 
432 ,80.0727 ,1.49458 ,-0.66290 ,-6.50435 
433 ,80.2649 ,1.49641 ,-0.70054 ,-6.87371 
434 ,80.4411 ,1.49834 ,-0.68343 ,-6.70582 
435 ,80.6169 ,1.50003 ,-0.71081 ,-6.97444 
436 ,80.7930 ,1.50182 ,-0.71081 ,-6.97444 
437 ,80.9849 ,1.50361 ,-0.73818 ,-7.24307 
438 ,81.1771 ,1.50558 ,-0.73476 ,-7.20949 
439 ,81.3532 ,1.50739 ,-0.73476 ,-7.20949 
440 ,81.5295 ,1.50914 ,-0.75872 ,-7.44454 
441 ,81.7054 ,1.51089 ,-0.77583 ,-7.61243 
442 ,81.8815 ,1.51267 ,-0.78610 ,-7.71317 
443 ,82.0735 ,1.51455 ,-0.76898 ,-7.54527 
444 ,82.2496 ,1.51632 ,-0.79636 ,-7.81390 
445 ,82.4258 ,1.51813 ,-0.82374 ,-8.08253 
446 ,82.6338 ,1.52014 ,-0.81347 ,-7.98179 
447 ,82.8099 ,1.52195 ,-0.82032 ,-8.04895 
448 ,82.9858 ,1.52369 ,-0.85454 ,-8.38473 
449 ,83.1780 ,1.52559 ,-0.84769 ,-8.31758 
450 ,83.3539 ,1.52737 ,-0.86138 ,-8.45189 
451 ,83.5140 ,1.52911 ,-0.87507 ,-8.58620 
452 ,83.6901 ,1.53075 ,-0.88192 ,-8.65336 
453 ,83.8823 ,1.53261 ,-0.89560 ,-8.78767 
454 ,84.0584 ,1.53446 ,-0.90929 ,-8.92198 
455 ,84.2503 ,1.53629 ,-0.91272 ,-8.95556 
456 ,84.4266 ,1.53814 ,-0.93325 ,-9.15703 
457 ,84.6025 ,1.53992 ,-0.92298 ,-9.05630 
458 ,84.7787 ,1.54164 ,-0.93667 ,-9.19061 
459 ,84.9548 ,1.54338 ,-0.94009 ,-9.22419 
460 ,85.1469 ,1.54521 ,-0.96747 ,-9.49282 
461 ,85.3390 ,1.54717 ,-0.97431 ,-9.55997 
462 ,85.5150 ,1.54897 ,-0.96747 ,-9.49282 
463 ,85.6911 ,1.55075 ,-0.98458 ,-9.66071 
