Data stamp = , 21-04-2022 23:19:07 779

Calibration Values: 
Slope = , 26.54 , g/V 
Offset Voltage at no contact = , -0.501760 , V 

No , Time , Stage Position ,   Mass , Force 
   ,  (s) ,      (mm)      ,   (g)  , (mN)  

1 ,0.0000 ,0.69951 ,5.38065 ,52.79493 
2 ,0.2259 ,0.69960 ,5.38407 ,52.82851 
3 ,0.5466 ,0.70047 ,5.39434 ,52.92925 
4 ,0.7224 ,0.70186 ,5.39434 ,52.92925 
5 ,0.9144 ,0.70340 ,5.39092 ,52.89567 
6 ,1.0906 ,0.70515 ,5.38749 ,52.86209 
7 ,1.2664 ,0.70689 ,5.37038 ,52.69420 
8 ,1.4430 ,0.70866 ,5.38065 ,52.79493 
9 ,1.6348 ,0.71060 ,5.40118 ,52.99640 
10 ,1.8110 ,0.71232 ,5.37723 ,52.76135 
11 ,2.0351 ,0.71448 ,5.38065 ,52.79493 
12 ,2.2428 ,0.71664 ,5.34985 ,52.49273 
13 ,2.4191 ,0.71846 ,5.35669 ,52.55988 
14 ,2.6112 ,0.72028 ,5.32589 ,52.25768 
15 ,2.8354 ,0.72254 ,5.30194 ,52.02263 
16 ,3.0110 ,0.72439 ,5.29852 ,51.98905 
17 ,3.2034 ,0.72620 ,5.28825 ,51.88832 
18 ,3.3795 ,0.72811 ,5.25745 ,51.58611 
19 ,3.5557 ,0.72980 ,5.24718 ,51.48538 
20 ,3.7478 ,0.73163 ,5.22665 ,51.28391 
21 ,3.9398 ,0.73359 ,5.21981 ,51.21675 
22 ,4.1156 ,0.73547 ,5.18901 ,50.91455 
23 ,4.2918 ,0.73716 ,5.17874 ,50.81381 
24 ,4.4679 ,0.73898 ,5.14794 ,50.51161 
25 ,4.6762 ,0.74090 ,5.14110 ,50.44445 
26 ,4.8681 ,0.74286 ,5.11030 ,50.14225 
27 ,5.0602 ,0.74478 ,5.11030 ,50.14225 
28 ,5.2361 ,0.74659 ,5.09661 ,50.00793 
29 ,5.4284 ,0.74856 ,5.06581 ,49.70573 
30 ,5.6539 ,0.75070 ,5.04185 ,49.47068 
31 ,5.8444 ,0.75270 ,5.02474 ,49.30279 
32 ,6.0527 ,0.75478 ,5.01106 ,49.16848 
33 ,6.2287 ,0.75660 ,5.01106 ,49.16848 
34 ,6.4043 ,0.75829 ,4.98026 ,48.86627 
35 ,6.5808 ,0.76004 ,4.97341 ,48.79911 
36 ,6.7726 ,0.76189 ,4.93919 ,48.46333 
37 ,6.9490 ,0.76372 ,4.92208 ,48.29544 
38 ,7.1250 ,0.76555 ,4.92550 ,48.32902 
39 ,7.3332 ,0.76756 ,4.89128 ,47.99324 
40 ,7.5252 ,0.76952 ,4.87075 ,47.79177 
41 ,7.7331 ,0.77150 ,4.86390 ,47.72461 
42 ,7.9253 ,0.77345 ,4.83652 ,47.45598 
43 ,8.1334 ,0.77555 ,4.80230 ,47.12020 
44 ,8.3093 ,0.77736 ,4.78519 ,46.95231 
45 ,8.5011 ,0.77919 ,4.79204 ,47.01946 
46 ,8.6932 ,0.78110 ,4.75782 ,46.68368 
47 ,8.8692 ,0.78300 ,4.75439 ,46.65010 
48 ,9.0618 ,0.78479 ,4.74755 ,46.58295 
49 ,9.2700 ,0.78691 ,4.69622 ,46.07927 
50 ,9.4618 ,0.78873 ,4.68937 ,46.01212 
51 ,9.6379 ,0.79061 ,4.67226 ,45.84422 
52 ,9.8141 ,0.79240 ,4.66199 ,45.74349 
53 ,9.9902 ,0.79422 ,4.65173 ,45.64275 
54 ,10.1663 ,0.79587 ,4.61751 ,45.30697 
55 ,10.3420 ,0.79763 ,4.61751 ,45.30697 
56 ,10.5180 ,0.79941 ,4.61066 ,45.23981 
57 ,10.6945 ,0.80120 ,4.58328 ,44.97119 
58 ,10.8866 ,0.80311 ,4.55933 ,44.73614 
59 ,11.0785 ,0.80499 ,4.54564 ,44.60183 
60 ,11.2866 ,0.80699 ,4.51142 ,44.26604 
61 ,11.4787 ,0.80899 ,4.50800 ,44.23247 
62 ,11.6545 ,0.81074 ,4.48746 ,44.03100 
63 ,11.8470 ,0.81265 ,4.47720 ,43.93026 
64 ,12.0392 ,0.81451 ,4.47378 ,43.89668 
65 ,12.2471 ,0.81668 ,4.44982 ,43.66163 
66 ,12.4233 ,0.81851 ,4.43271 ,43.49374 
67 ,12.6150 ,0.82028 ,4.39507 ,43.12438 
68 ,12.7912 ,0.82216 ,4.37453 ,42.92291 
69 ,12.9675 ,0.82393 ,4.37111 ,42.88933 
70 ,13.1594 ,0.82575 ,4.35742 ,42.75502 
71 ,13.3513 ,0.82770 ,4.34031 ,42.58713 
72 ,13.5597 ,0.82979 ,4.31293 ,42.31850 
73 ,13.7515 ,0.83164 ,4.30267 ,42.21777 
74 ,13.9279 ,0.83349 ,4.28556 ,42.04988 
75 ,14.1198 ,0.83537 ,4.26845 ,41.88198 
76 ,14.3281 ,0.83729 ,4.25818 ,41.78125 
77 ,14.5200 ,0.83946 ,4.22396 ,41.44547 
78 ,14.6801 ,0.84110 ,4.22738 ,41.47905 
79 ,14.8561 ,0.84276 ,4.18974 ,41.10968 
80 ,15.0484 ,0.84470 ,4.20685 ,41.27758 
81 ,15.2404 ,0.84662 ,4.17262 ,40.94179 
82 ,15.4324 ,0.84857 ,4.14183 ,40.63959 
83 ,15.6246 ,0.85032 ,4.15209 ,40.74032 
84 ,15.8323 ,0.85242 ,4.11787 ,40.40454 
85 ,16.0246 ,0.85442 ,4.11103 ,40.33738 
86 ,16.2168 ,0.85637 ,4.08365 ,40.06876 
87 ,16.4088 ,0.85825 ,4.06312 ,39.86729 
88 ,16.6170 ,0.86019 ,4.04600 ,39.69940 
89 ,16.8089 ,0.86230 ,4.03232 ,39.56508 
90 ,16.9691 ,0.86404 ,4.03232 ,39.56508 
91 ,17.1448 ,0.86567 ,4.02547 ,39.49793 
92 ,17.3210 ,0.86739 ,3.99467 ,39.19572 
93 ,17.5133 ,0.86930 ,3.97414 ,38.99425 
94 ,17.7053 ,0.87125 ,3.97414 ,38.99425 
95 ,17.8975 ,0.87308 ,3.95018 ,38.75920 
96 ,18.0896 ,0.87510 ,3.92965 ,38.55773 
97 ,18.2976 ,0.87714 ,3.89543 ,38.22195 
98 ,18.4897 ,0.87907 ,3.89885 ,38.25553 
99 ,18.6977 ,0.88115 ,3.86463 ,37.91975 
100 ,18.8578 ,0.88289 ,3.85094 ,37.78543 
101 ,19.0336 ,0.88456 ,3.84410 ,37.71828 
102 ,19.2100 ,0.88631 ,3.83041 ,37.58396 
103 ,19.4181 ,0.88829 ,3.80303 ,37.31534 
104 ,19.6101 ,0.89029 ,3.80303 ,37.31534 
105 ,19.8022 ,0.89214 ,3.78592 ,37.14744 
106 ,19.9943 ,0.89412 ,3.76539 ,36.94597 
107 ,20.1864 ,0.89597 ,3.75170 ,36.81166 
108 ,20.3624 ,0.89778 ,3.71748 ,36.47588 
109 ,20.5386 ,0.89956 ,3.69694 ,36.27441 
110 ,20.7145 ,0.90138 ,3.71405 ,36.44230 
111 ,20.8907 ,0.90310 ,3.69010 ,36.20725 
112 ,21.0828 ,0.90495 ,3.66272 ,35.93863 
113 ,21.2746 ,0.90688 ,3.64561 ,35.77073 
114 ,21.4505 ,0.90870 ,3.63877 ,35.70358 
115 ,21.6430 ,0.91062 ,3.63192 ,35.63642 
116 ,21.8347 ,0.91247 ,3.60454 ,35.36779 
117 ,22.0109 ,0.91427 ,3.59770 ,35.30064 
118 ,22.1870 ,0.91606 ,3.58401 ,35.16632 
119 ,22.3793 ,0.91795 ,3.53952 ,34.72981 
120 ,22.5393 ,0.91967 ,3.54637 ,34.79696 
121 ,22.7153 ,0.92129 ,3.51899 ,34.52834 
122 ,22.8915 ,0.92307 ,3.51557 ,34.49476 
123 ,23.0836 ,0.92501 ,3.50530 ,34.39402 
124 ,23.2915 ,0.92703 ,3.47450 ,34.09182 
125 ,23.4677 ,0.92884 ,3.47792 ,34.12540 
126 ,23.6598 ,0.93081 ,3.44713 ,33.82319 
127 ,23.8517 ,0.93265 ,3.44370 ,33.78961 
128 ,24.0440 ,0.93451 ,3.42659 ,33.62172 
129 ,24.2201 ,0.93639 ,3.38553 ,33.21878 
130 ,24.4277 ,0.93830 ,3.39237 ,33.28594 
131 ,24.6202 ,0.94033 ,3.35130 ,32.88300 
132 ,24.8283 ,0.94232 ,3.34104 ,32.78227 
133 ,25.0204 ,0.94437 ,3.34104 ,32.78227 
134 ,25.2124 ,0.94626 ,3.32051 ,32.58080 
135 ,25.3883 ,0.94810 ,3.31366 ,32.51364 
136 ,25.5805 ,0.94995 ,3.27259 ,32.11070 
137 ,25.7566 ,0.95175 ,3.27259 ,32.11070 
138 ,25.9487 ,0.95358 ,3.26233 ,32.00996 
139 ,26.1248 ,0.95541 ,3.24180 ,31.80849 
140 ,26.3008 ,0.95716 ,3.22126 ,31.60702 
141 ,26.4764 ,0.95896 ,3.20073 ,31.40555 
142 ,26.6530 ,0.96069 ,3.20415 ,31.43913 
143 ,26.8608 ,0.96272 ,3.16651 ,31.06977 
144 ,27.0373 ,0.96455 ,3.16309 ,31.03619 
145 ,27.2291 ,0.96637 ,3.15966 ,31.00262 
146 ,27.4371 ,0.96850 ,3.13229 ,30.73399 
147 ,27.6132 ,0.97028 ,3.12886 ,30.70041 
148 ,27.8213 ,0.97229 ,3.10491 ,30.46536 
149 ,28.0297 ,0.97436 ,3.08780 ,30.29747 
150 ,28.2537 ,0.97646 ,3.06726 ,30.09600 
151 ,28.4455 ,0.97860 ,3.05700 ,29.99527 
152 ,28.6218 ,0.98034 ,3.03304 ,29.76022 
153 ,28.8139 ,0.98232 ,3.02278 ,29.65948 
154 ,29.0059 ,0.98421 ,3.02278 ,29.65948 
155 ,29.1818 ,0.98601 ,2.98513 ,29.29012 
156 ,29.3581 ,0.98774 ,2.96802 ,29.12223 
157 ,29.5342 ,0.98951 ,2.98171 ,29.25654 
158 ,29.7262 ,0.99140 ,2.94749 ,28.92076 
159 ,29.9021 ,0.99316 ,2.92696 ,28.71929 
160 ,30.0785 ,0.99496 ,2.90985 ,28.55140 
161 ,30.2705 ,0.99678 ,2.90985 ,28.55140 
162 ,30.4625 ,0.99875 ,2.87562 ,28.21562 
163 ,30.6386 ,1.00055 ,2.86878 ,28.14846 
164 ,30.8145 ,1.00224 ,2.86193 ,28.08130 
165 ,30.9907 ,1.00407 ,2.84140 ,27.87983 
166 ,31.1988 ,1.00609 ,2.82771 ,27.74552 
167 ,31.3749 ,1.00787 ,2.80034 ,27.47689 
168 ,31.5829 ,1.00994 ,2.78322 ,27.30900 
169 ,31.7591 ,1.01173 ,2.78665 ,27.34258 
170 ,31.9506 ,1.01357 ,2.77296 ,27.20827 
171 ,32.1433 ,1.01558 ,2.74558 ,26.93964 
172 ,32.3513 ,1.01758 ,2.73189 ,26.80533 
173 ,32.5274 ,1.01941 ,2.72505 ,26.73817 
174 ,32.7192 ,1.02134 ,2.69425 ,26.43597 
175 ,32.8955 ,1.02310 ,2.69083 ,26.40239 
176 ,33.0714 ,1.02491 ,2.66003 ,26.10018 
177 ,33.2637 ,1.02667 ,2.64634 ,25.96587 
178 ,33.4400 ,1.02854 ,2.64292 ,25.93229 
179 ,33.6316 ,1.03042 ,2.63265 ,25.83156 
180 ,33.8238 ,1.03231 ,2.59501 ,25.46220 
181 ,34.0001 ,1.03414 ,2.59158 ,25.42862 
182 ,34.1921 ,1.03602 ,2.59158 ,25.42862 
183 ,34.3683 ,1.03784 ,2.57789 ,25.29430 
184 ,34.5762 ,1.03979 ,2.54025 ,24.92494 
185 ,34.7684 ,1.04174 ,2.52998 ,24.82421 
186 ,34.9601 ,1.04373 ,2.51630 ,24.68989 
187 ,35.1361 ,1.04550 ,2.50603 ,24.58916 
188 ,35.3123 ,1.04731 ,2.48550 ,24.38769 
189 ,35.5368 ,1.04938 ,2.47865 ,24.32053 
190 ,35.7283 ,1.05131 ,2.45812 ,24.11906 
191 ,35.9047 ,1.05313 ,2.43074 ,23.85044 
192 ,36.0969 ,1.05504 ,2.41705 ,23.71612 
193 ,36.2890 ,1.05702 ,2.40336 ,23.58181 
194 ,36.4651 ,1.05874 ,2.39652 ,23.51465 
195 ,36.6571 ,1.06066 ,2.37599 ,23.31318 
196 ,36.8330 ,1.06250 ,2.37256 ,23.27961 
197 ,37.0093 ,1.06423 ,2.35888 ,23.14529 
198 ,37.2014 ,1.06609 ,2.32808 ,22.84309 
199 ,37.3932 ,1.06801 ,2.32465 ,22.80951 
200 ,37.5696 ,1.06983 ,2.31097 ,22.67520 
201 ,37.7617 ,1.07165 ,2.28701 ,22.44015 
202 ,37.9378 ,1.07348 ,2.25621 ,22.13794 
203 ,38.1138 ,1.07531 ,2.25963 ,22.17152 
204 ,38.3216 ,1.07727 ,2.22883 ,21.86932 
205 ,38.4979 ,1.07909 ,2.21515 ,21.73500 
206 ,38.7057 ,1.08113 ,2.20146 ,21.60069 
207 ,38.8821 ,1.08293 ,2.18435 ,21.43280 
208 ,39.0741 ,1.08483 ,2.17750 ,21.36564 
209 ,39.2503 ,1.08664 ,2.17066 ,21.29849 
210 ,39.4579 ,1.08865 ,2.13644 ,20.96270 
211 ,39.6503 ,1.09054 ,2.13986 ,20.99628 
212 ,39.8263 ,1.09241 ,2.11932 ,20.79481 
213 ,40.0187 ,1.09425 ,2.10564 ,20.66050 
214 ,40.2107 ,1.09615 ,2.08852 ,20.49261 
215 ,40.3868 ,1.09796 ,2.07826 ,20.39187 
216 ,40.5463 ,1.09968 ,2.05430 ,20.15682 
217 ,40.7228 ,1.10133 ,2.03377 ,19.95535 
218 ,40.9147 ,1.10321 ,2.03377 ,19.95535 
219 ,41.1069 ,1.10506 ,2.00982 ,19.72031 
220 ,41.3152 ,1.10719 ,2.01324 ,19.75388 
221 ,41.5071 ,1.10910 ,1.97217 ,19.35094 
222 ,41.6668 ,1.11089 ,1.96533 ,19.28379 
223 ,41.8594 ,1.11265 ,1.95848 ,19.21663 
224 ,42.0514 ,1.11462 ,1.94137 ,19.04874 
225 ,42.2276 ,1.11640 ,1.93795 ,19.01516 
226 ,42.4197 ,1.11824 ,1.90031 ,18.64580 
227 ,42.6274 ,1.12020 ,1.88319 ,18.47791 
228 ,42.8199 ,1.12222 ,1.88319 ,18.47791 
229 ,43.0119 ,1.12420 ,1.86951 ,18.34360 
230 ,43.2039 ,1.12611 ,1.83871 ,18.04139 
231 ,43.3961 ,1.12803 ,1.83528 ,18.00781 
232 ,43.5881 ,1.12993 ,1.81133 ,17.77276 
233 ,43.7639 ,1.13178 ,1.79080 ,17.57129 
234 ,43.9404 ,1.13347 ,1.77711 ,17.43698 
235 ,44.1323 ,1.13539 ,1.77369 ,17.40340 
236 ,44.3083 ,1.13719 ,1.76342 ,17.30267 
237 ,44.4845 ,1.13892 ,1.73946 ,17.06762 
238 ,44.7081 ,1.14100 ,1.72235 ,16.89973 
239 ,44.9007 ,1.14309 ,1.70182 ,16.69826 
240 ,45.0930 ,1.14498 ,1.69498 ,16.63110 
241 ,45.2848 ,1.14698 ,1.67444 ,16.42963 
242 ,45.4770 ,1.14879 ,1.67444 ,16.42963 
243 ,45.6691 ,1.15067 ,1.64022 ,16.09385 
244 ,45.8607 ,1.15264 ,1.62995 ,15.99311 
245 ,46.0372 ,1.15449 ,1.61284 ,15.82522 
246 ,46.2292 ,1.15640 ,1.61284 ,15.82522 
247 ,46.4052 ,1.15810 ,1.58547 ,15.55660 
248 ,46.5974 ,1.15997 ,1.56836 ,15.38871 
249 ,46.7894 ,1.16199 ,1.56151 ,15.32155 
250 ,46.9814 ,1.16390 ,1.54440 ,15.15366 
251 ,47.1572 ,1.16565 ,1.53071 ,15.01934 
252 ,47.3334 ,1.16741 ,1.52045 ,14.91861 
253 ,47.5096 ,1.16918 ,1.51360 ,14.85145 
254 ,47.6856 ,1.17100 ,1.47938 ,14.51567 
255 ,47.9098 ,1.17313 ,1.46911 ,14.41493 
256 ,48.0856 ,1.17494 ,1.46227 ,14.34778 
257 ,48.2939 ,1.17690 ,1.43489 ,14.07915 
258 ,48.4700 ,1.17878 ,1.43831 ,14.11273 
259 ,48.6783 ,1.18088 ,1.41436 ,13.87768 
260 ,48.8702 ,1.18270 ,1.40751 ,13.81053 
261 ,49.0462 ,1.18454 ,1.38698 ,13.60906 
262 ,49.2384 ,1.18641 ,1.37671 ,13.50832 
263 ,49.4465 ,1.18846 ,1.34934 ,13.23969 
264 ,49.6224 ,1.19031 ,1.34249 ,13.17254 
265 ,49.8146 ,1.19214 ,1.33907 ,13.13896 
266 ,49.9907 ,1.19399 ,1.32196 ,12.97107 
267 ,50.1669 ,1.19587 ,1.28432 ,12.60171 
268 ,50.3430 ,1.19747 ,1.28432 ,12.60171 
269 ,50.5190 ,1.19929 ,1.26036 ,12.36666 
270 ,50.7112 ,1.20114 ,1.26036 ,12.36666 
271 ,50.9189 ,1.20321 ,1.23983 ,12.16519 
272 ,51.1273 ,1.20530 ,1.21929 ,11.96372 
273 ,51.3353 ,1.20741 ,1.22614 ,12.03088 
274 ,51.5274 ,1.20936 ,1.19876 ,11.76225 
275 ,51.7192 ,1.21120 ,1.17481 ,11.52720 
276 ,51.8794 ,1.21299 ,1.17138 ,11.49362 
277 ,52.0553 ,1.21463 ,1.15427 ,11.32573 
278 ,52.2473 ,1.21648 ,1.13374 ,11.12426 
279 ,52.4395 ,1.21840 ,1.12005 ,10.98995 
280 ,52.6159 ,1.22022 ,1.09267 ,10.72132 
281 ,52.8080 ,1.22215 ,1.09952 ,10.78848 
282 ,52.9999 ,1.22403 ,1.08241 ,10.62059 
283 ,53.1919 ,1.22594 ,1.07556 ,10.55343 
284 ,53.3677 ,1.22787 ,1.05161 ,10.31838 
285 ,53.5444 ,1.22955 ,1.03792 ,10.18407 
286 ,53.7363 ,1.23139 ,1.02423 ,10.04976 
287 ,53.9122 ,1.23317 ,1.02423 ,10.04976 
288 ,54.0884 ,1.23496 ,1.00370 ,9.84829 
289 ,54.2807 ,1.23687 ,0.97974 ,9.61324 
290 ,54.4726 ,1.23875 ,0.97632 ,9.57966 
291 ,54.6645 ,1.24058 ,0.96263 ,9.44535 
292 ,54.8410 ,1.24245 ,0.92841 ,9.10956 
293 ,55.0166 ,1.24427 ,0.93525 ,9.17672 
294 ,55.2249 ,1.24618 ,0.91472 ,8.97525 
295 ,55.4009 ,1.24806 ,0.88734 ,8.70662 
296 ,55.5768 ,1.24980 ,0.89077 ,8.74020 
297 ,55.7690 ,1.25171 ,0.87023 ,8.53873 
298 ,55.9456 ,1.25354 ,0.84970 ,8.33726 
299 ,56.1532 ,1.25549 ,0.86339 ,8.47158 
300 ,56.3292 ,1.25730 ,0.82232 ,8.06864 
301 ,56.5212 ,1.25920 ,0.81206 ,7.96790 
302 ,56.7326 ,1.26118 ,0.81206 ,7.96790 
303 ,56.9213 ,1.26337 ,0.78126 ,7.66570 
304 ,57.1135 ,1.26513 ,0.77784 ,7.63212 
305 ,57.3057 ,1.26704 ,0.74704 ,7.32991 
306 ,57.4977 ,1.26899 ,0.74361 ,7.29633 
307 ,57.6574 ,1.27076 ,0.72992 ,7.16202 
308 ,57.8340 ,1.27242 ,0.71966 ,7.06129 
309 ,58.0260 ,1.27433 ,0.69913 ,6.85982 
310 ,58.2181 ,1.27616 ,0.70255 ,6.89340 
311 ,58.4102 ,1.27812 ,0.67175 ,6.59119 
312 ,58.6023 ,1.28004 ,0.66148 ,6.49046 
313 ,58.7784 ,1.28188 ,0.66148 ,6.49046 
314 ,58.9544 ,1.28355 ,0.64779 ,6.35614 
315 ,59.1305 ,1.28536 ,0.63753 ,6.25541 
316 ,59.3225 ,1.28728 ,0.60330 ,5.91962 
317 ,59.4986 ,1.28903 ,0.58619 ,5.75173 
318 ,59.6747 ,1.29083 ,0.60330 ,5.91962 
319 ,59.8827 ,1.29281 ,0.55197 ,5.41595 
320 ,60.0750 ,1.29475 ,0.56566 ,5.55026 
321 ,60.2510 ,1.29655 ,0.56566 ,5.55026 
322 ,60.4434 ,1.29841 ,0.53828 ,5.28164 
323 ,60.6352 ,1.30034 ,0.53486 ,5.24806 
324 ,60.8108 ,1.30220 ,0.51433 ,5.04659 
325 ,60.9874 ,1.30393 ,0.50748 ,4.97943 
326 ,61.1790 ,1.30585 ,0.47668 ,4.67723 
327 ,61.3555 ,1.30754 ,0.49037 ,4.81154 
328 ,61.5316 ,1.30934 ,0.45957 ,4.50934 
329 ,61.7236 ,1.31123 ,0.44588 ,4.37502 
330 ,61.8993 ,1.31308 ,0.44931 ,4.40860 
331 ,62.0918 ,1.31489 ,0.42535 ,4.17355 
332 ,62.2679 ,1.31668 ,0.40140 ,3.93850 
333 ,62.4600 ,1.31858 ,0.41509 ,4.07282 
334 ,62.6360 ,1.32040 ,0.39113 ,3.83777 
335 ,62.8120 ,1.32212 ,0.38086 ,3.73703 
336 ,62.9877 ,1.32404 ,0.33980 ,3.33410 
337 ,63.1642 ,1.32568 ,0.33295 ,3.26694 
338 ,63.3562 ,1.32756 ,0.35691 ,3.50199 
339 ,63.5322 ,1.32935 ,0.33638 ,3.30052 
340 ,63.7244 ,1.33120 ,0.30558 ,2.99831 
341 ,63.9161 ,1.33315 ,0.30558 ,2.99831 
342 ,64.0920 ,1.33500 ,0.28162 ,2.76326 
343 ,64.2686 ,1.33671 ,0.28162 ,2.76326 
344 ,64.4452 ,1.33844 ,0.25767 ,2.52822 
345 ,64.6208 ,1.34025 ,0.26109 ,2.56179 
346 ,64.8289 ,1.34218 ,0.24740 ,2.42748 
347 ,65.0369 ,1.34427 ,0.23029 ,2.25959 
348 ,65.2448 ,1.34643 ,0.20633 ,2.02454 
349 ,65.4211 ,1.34824 ,0.19607 ,1.92381 
350 ,65.6131 ,1.35009 ,0.20291 ,1.99096 
351 ,65.7891 ,1.35193 ,0.18238 ,1.78949 
352 ,65.9653 ,1.35369 ,0.15500 ,1.52087 
353 ,66.1891 ,1.35576 ,0.15158 ,1.48729 
354 ,66.3655 ,1.35768 ,0.13789 ,1.35298 
355 ,66.5735 ,1.35965 ,0.13105 ,1.28582 
356 ,66.7498 ,1.36153 ,0.13447 ,1.31940 
357 ,66.9256 ,1.36331 ,0.12078 ,1.18508 
358 ,67.1016 ,1.36500 ,0.10709 ,1.05077 
359 ,67.3094 ,1.36701 ,0.08314 ,0.81572 
360 ,67.4861 ,1.36885 ,0.06602 ,0.64783 
361 ,67.6940 ,1.37090 ,0.06602 ,0.64783 
362 ,67.8701 ,1.37270 ,0.05576 ,0.54710 
363 ,68.0463 ,1.37448 ,0.02154 ,0.21131 
364 ,68.2382 ,1.37633 ,0.04207 ,0.41278 
365 ,68.4142 ,1.37813 ,0.02838 ,0.27847 
366 ,68.6064 ,1.38009 ,0.00100 ,0.00984 
367 ,68.7823 ,1.38192 ,-0.00242 ,-0.02373 
368 ,68.9745 ,1.38369 ,-0.00584 ,-0.05731 
369 ,69.1661 ,1.38564 ,-0.04691 ,-0.46025 
370 ,69.3423 ,1.38748 ,-0.02637 ,-0.25878 
371 ,69.5344 ,1.38924 ,-0.04691 ,-0.46025 
372 ,69.7590 ,1.39157 ,-0.05033 ,-0.49383 
373 ,69.9509 ,1.39353 ,-0.08113 ,-0.79604 
374 ,70.1428 ,1.39542 ,-0.10166 ,-0.99751 
375 ,70.3189 ,1.39721 ,-0.10166 ,-0.99751 
376 ,70.5108 ,1.39901 ,-0.13246 ,-1.29971 
377 ,70.6872 ,1.40083 ,-0.13931 ,-1.36687 
378 ,70.8630 ,1.40261 ,-0.13931 ,-1.36687 
379 ,71.0555 ,1.40452 ,-0.14615 ,-1.43402 
380 ,71.2472 ,1.40640 ,-0.17695 ,-1.73623 
381 ,71.4234 ,1.40829 ,-0.17353 ,-1.70265 
382 ,71.6156 ,1.41014 ,-0.17353 ,-1.70265 
383 ,71.8078 ,1.41207 ,-0.20775 ,-2.03843 
384 ,71.9997 ,1.41395 ,-0.19064 ,-1.87054 
385 ,72.1918 ,1.41584 ,-0.23855 ,-2.34064 
386 ,72.3680 ,1.41766 ,-0.23855 ,-2.34064 
387 ,72.5442 ,1.41946 ,-0.24539 ,-2.40779 
388 ,72.7198 ,1.42122 ,-0.25224 ,-2.47495 
389 ,72.9120 ,1.42303 ,-0.27277 ,-2.67642 
390 ,73.0884 ,1.42488 ,-0.28304 ,-2.77716 
391 ,73.2804 ,1.42679 ,-0.27277 ,-2.67642 
392 ,73.4721 ,1.42862 ,-0.31726 ,-3.11294 
393 ,73.6642 ,1.43053 ,-0.29673 ,-2.91147 
394 ,73.8564 ,1.43252 ,-0.30357 ,-2.97863 
395 ,74.0489 ,1.43450 ,-0.34121 ,-3.34799 
396 ,74.2568 ,1.43647 ,-0.33437 ,-3.28083 
397 ,74.4328 ,1.43827 ,-0.34464 ,-3.38156 
398 ,74.6249 ,1.44014 ,-0.33095 ,-3.24725 
399 ,74.8010 ,1.44195 ,-0.33779 ,-3.31441 
400 ,74.9772 ,1.44375 ,-0.34806 ,-3.41514 
401 ,75.1529 ,1.44556 ,-0.37201 ,-3.65019 
402 ,75.3293 ,1.44725 ,-0.39255 ,-3.85166 
403 ,75.5212 ,1.44912 ,-0.39255 ,-3.85166 
404 ,75.7135 ,1.45106 ,-0.41650 ,-4.08671 
405 ,75.9052 ,1.45295 ,-0.40281 ,-3.95240 
406 ,76.0977 ,1.45495 ,-0.43361 ,-4.25460 
407 ,76.2899 ,1.45684 ,-0.45072 ,-4.42249 
408 ,76.4815 ,1.45875 ,-0.43703 ,-4.28818 
409 ,76.6577 ,1.46054 ,-0.46099 ,-4.52323 
410 ,76.8501 ,1.46250 ,-0.48837 ,-4.79185 
411 ,77.0581 ,1.46438 ,-0.47468 ,-4.65754 
412 ,77.2502 ,1.46652 ,-0.51574 ,-5.06048 
413 ,77.4429 ,1.46839 ,-0.51232 ,-5.02690 
414 ,77.6343 ,1.47025 ,-0.53970 ,-5.29553 
415 ,77.8100 ,1.47215 ,-0.53285 ,-5.22837 
416 ,77.9861 ,1.47382 ,-0.54997 ,-5.39626 
417 ,78.1624 ,1.47560 ,-0.56365 ,-5.53058 
418 ,78.3545 ,1.47750 ,-0.56708 ,-5.56415 
419 ,78.5308 ,1.47927 ,-0.59788 ,-5.86636 
420 ,78.7228 ,1.48118 ,-0.58761 ,-5.76562 
421 ,78.9148 ,1.48305 ,-0.61841 ,-6.06783 
422 ,79.1068 ,1.48502 ,-0.61156 ,-6.00067 
423 ,79.2827 ,1.48679 ,-0.62183 ,-6.10141 
424 ,79.4590 ,1.48854 ,-0.64921 ,-6.37003 
425 ,79.6513 ,1.49041 ,-0.65263 ,-6.40361 
426 ,79.8430 ,1.49232 ,-0.65605 ,-6.43719 
427 ,80.0354 ,1.49427 ,-0.66290 ,-6.50435 
428 ,80.2274 ,1.49625 ,-0.70396 ,-6.90729 
429 ,80.4195 ,1.49815 ,-0.68685 ,-6.73940 
430 ,80.5955 ,1.49996 ,-0.71765 ,-7.04160 
431 ,80.7877 ,1.50184 ,-0.72107 ,-7.07518 
432 ,80.9796 ,1.50382 ,-0.74161 ,-7.27665 
433 ,81.1558 ,1.50552 ,-0.76214 ,-7.47812 
434 ,81.3638 ,1.50754 ,-0.75187 ,-7.37738 
435 ,81.5879 ,1.50968 ,-0.76214 ,-7.47812 
436 ,81.7800 ,1.51173 ,-0.77925 ,-7.64601 
437 ,81.9562 ,1.51351 ,-0.79978 ,-7.84748 
438 ,82.1483 ,1.51542 ,-0.80321 ,-7.88106 
439 ,82.3562 ,1.51746 ,-0.82032 ,-8.04895 
440 ,82.5162 ,1.51921 ,-0.82032 ,-8.04895 
441 ,82.6923 ,1.52083 ,-0.84085 ,-8.25042 
442 ,82.8686 ,1.52265 ,-0.84085 ,-8.25042 
443 ,83.0766 ,1.52453 ,-0.86823 ,-8.51904 
444 ,83.2687 ,1.52657 ,-0.85454 ,-8.38473 
445 ,83.4608 ,1.52861 ,-0.89218 ,-8.75409 
446 ,83.6526 ,1.53046 ,-0.89218 ,-8.75409 
447 ,83.8450 ,1.53231 ,-0.88534 ,-8.68694 
448 ,84.0530 ,1.53449 ,-0.91614 ,-8.98914 
449 ,84.2451 ,1.53631 ,-0.90587 ,-8.88841 
450 ,84.4207 ,1.53820 ,-0.91956 ,-9.02272 
451 ,84.6132 ,1.54002 ,-0.92983 ,-9.12345 
452 ,84.8052 ,1.54202 ,-0.94009 ,-9.22419 
453 ,84.9814 ,1.54374 ,-0.95378 ,-9.35850 
454 ,85.1734 ,1.54559 ,-0.96747 ,-9.49282 
455 ,85.3654 ,1.54762 ,-0.96747 ,-9.49282 
456 ,85.5253 ,1.54927 ,-0.98116 ,-9.62713 
457 ,85.7177 ,1.55100 ,-0.97774 ,-9.59355 
458 ,85.9094 ,1.55301 ,-1.00169 ,-9.82860 
459 ,86.1178 ,1.55498 ,-1.00511 ,-9.86218 
460 ,86.2936 ,1.55683 ,-1.00854 ,-9.89576 
461 ,86.4700 ,1.55864 ,-1.01538 ,-9.96291 
462 ,86.6779 ,1.56065 ,-1.03591 ,-10.16438 
