Data stamp = , 21-04-2022 20:38:21 065

Calibration Values: 
Slope = , 26.54 , g/V 
Offset Voltage at no contact = , -0.501760 , V 

No , Time , Stage Position ,   Mass , Force 
   ,  (s) ,      (mm)      ,   (g)  , (mN)  

1 ,0.0000 ,0.74939 ,5.07608 ,49.80646 
2 ,0.2153 ,0.74949 ,5.07265 ,49.77289 
3 ,0.5195 ,0.75032 ,5.10003 ,50.04151 
4 ,0.7277 ,0.75171 ,5.09319 ,49.97436 
5 ,0.9518 ,0.75353 ,5.08634 ,49.90720 
6 ,1.1279 ,0.75544 ,5.09319 ,49.97436 
7 ,1.3040 ,0.75717 ,5.08977 ,49.94078 
8 ,1.4800 ,0.75893 ,5.08292 ,49.87362 
9 ,1.6557 ,0.76067 ,5.05897 ,49.63857 
10 ,1.8324 ,0.76248 ,5.05554 ,49.60499 
11 ,2.0243 ,0.76449 ,5.02474 ,49.30279 
12 ,2.2004 ,0.76618 ,5.01106 ,49.16848 
13 ,2.3765 ,0.76790 ,5.00079 ,49.06774 
14 ,2.5686 ,0.76975 ,4.98026 ,48.86627 
15 ,2.7445 ,0.77164 ,4.96657 ,48.73196 
16 ,2.9207 ,0.77339 ,4.94261 ,48.49691 
17 ,3.1288 ,0.77535 ,4.93577 ,48.42975 
18 ,3.3368 ,0.77749 ,4.91866 ,48.26186 
19 ,3.5289 ,0.77936 ,4.89470 ,48.02681 
20 ,3.7049 ,0.78121 ,4.86732 ,47.75819 
21 ,3.8807 ,0.78297 ,4.85706 ,47.65745 
22 ,4.0570 ,0.78468 ,4.84679 ,47.55672 
23 ,4.2492 ,0.78653 ,4.84337 ,47.52314 
24 ,4.4411 ,0.78858 ,4.80573 ,47.15378 
25 ,4.6494 ,0.79049 ,4.81599 ,47.25451 
26 ,4.8410 ,0.79255 ,4.76466 ,46.75084 
27 ,5.0175 ,0.79432 ,4.76124 ,46.71726 
28 ,5.1936 ,0.79606 ,4.76124 ,46.71726 
29 ,5.3857 ,0.79792 ,4.71675 ,46.28074 
30 ,5.5778 ,0.79992 ,4.70990 ,46.21359 
31 ,5.7700 ,0.80183 ,4.70306 ,46.14643 
32 ,5.9619 ,0.80375 ,4.66542 ,45.77707 
33 ,6.1699 ,0.80574 ,4.66884 ,45.81065 
34 ,6.3620 ,0.80768 ,4.63462 ,45.47486 
35 ,6.5540 ,0.80970 ,4.63119 ,45.44128 
36 ,6.7302 ,0.81142 ,4.61751 ,45.30697 
37 ,6.9540 ,0.81356 ,4.57986 ,44.93761 
38 ,7.1301 ,0.81549 ,4.58671 ,45.00477 
39 ,7.3225 ,0.81732 ,4.56617 ,44.80330 
40 ,7.5304 ,0.81935 ,4.54906 ,44.63541 
41 ,7.7226 ,0.82130 ,4.52169 ,44.36678 
42 ,7.8986 ,0.82315 ,4.51484 ,44.29962 
43 ,8.1065 ,0.82506 ,4.48062 ,43.96384 
44 ,8.2986 ,0.82715 ,4.47378 ,43.89668 
45 ,8.4910 ,0.82903 ,4.46693 ,43.82953 
46 ,8.6989 ,0.83101 ,4.42929 ,43.46016 
47 ,8.8909 ,0.83301 ,4.42586 ,43.42659 
48 ,9.0668 ,0.83477 ,4.39507 ,43.12438 
49 ,9.2432 ,0.83655 ,4.39164 ,43.09080 
50 ,9.4511 ,0.83855 ,4.37111 ,42.88933 
51 ,9.6273 ,0.84040 ,4.35058 ,42.68786 
52 ,9.8035 ,0.84219 ,4.33347 ,42.51997 
53 ,10.0116 ,0.84410 ,4.32320 ,42.41924 
54 ,10.2032 ,0.84615 ,4.28898 ,42.08345 
55 ,10.3796 ,0.84792 ,4.29240 ,42.11703 
56 ,10.5718 ,0.84983 ,4.28556 ,42.04988 
57 ,10.7639 ,0.85180 ,4.26502 ,41.84841 
58 ,10.9559 ,0.85360 ,4.25133 ,41.71409 
59 ,11.1639 ,0.85567 ,4.22053 ,41.41189 
60 ,11.3400 ,0.85752 ,4.21711 ,41.37831 
61 ,11.5158 ,0.85927 ,4.20000 ,41.21042 
62 ,11.6923 ,0.86105 ,4.18289 ,41.04253 
63 ,11.8840 ,0.86295 ,4.15209 ,40.74032 
64 ,12.0765 ,0.86480 ,4.15209 ,40.74032 
65 ,12.2526 ,0.86668 ,4.13498 ,40.57243 
66 ,12.4446 ,0.86851 ,4.10418 ,40.27023 
67 ,12.6362 ,0.87045 ,4.10076 ,40.23665 
68 ,12.8127 ,0.87220 ,4.08023 ,40.03518 
69 ,12.9889 ,0.87398 ,4.05627 ,39.80013 
70 ,13.1649 ,0.87585 ,4.06654 ,39.90087 
71 ,13.3567 ,0.87761 ,4.04258 ,39.66582 
72 ,13.5488 ,0.87965 ,4.01520 ,39.39719 
73 ,13.7410 ,0.88156 ,4.00152 ,39.26288 
74 ,13.9331 ,0.88342 ,3.97756 ,39.02783 
75 ,14.1251 ,0.88535 ,3.94676 ,38.72562 
76 ,14.3014 ,0.88714 ,3.94676 ,38.72562 
77 ,14.4769 ,0.88891 ,3.93307 ,38.59131 
78 ,14.6532 ,0.89065 ,3.92965 ,38.55773 
79 ,14.8454 ,0.89251 ,3.90570 ,38.32268 
80 ,15.0376 ,0.89447 ,3.88174 ,38.08764 
81 ,15.2295 ,0.89643 ,3.85779 ,37.85259 
82 ,15.4218 ,0.89820 ,3.84752 ,37.75185 
83 ,15.6137 ,0.90024 ,3.83383 ,37.61754 
84 ,15.7899 ,0.90201 ,3.81330 ,37.41607 
85 ,15.9659 ,0.90377 ,3.79619 ,37.24818 
86 ,16.1580 ,0.90565 ,3.79276 ,37.21460 
87 ,16.3501 ,0.90753 ,3.74828 ,36.77808 
88 ,16.5263 ,0.90937 ,3.74143 ,36.71093 
89 ,16.7023 ,0.91123 ,3.74485 ,36.74450 
90 ,16.8784 ,0.91288 ,3.73801 ,36.67735 
91 ,17.0546 ,0.91463 ,3.71063 ,36.40872 
92 ,17.2463 ,0.91654 ,3.68668 ,36.17367 
93 ,17.4386 ,0.91845 ,3.69352 ,36.24083 
94 ,17.6149 ,0.92024 ,3.66614 ,35.97220 
95 ,17.7908 ,0.92202 ,3.64561 ,35.77073 
96 ,17.9828 ,0.92390 ,3.63534 ,35.67000 
97 ,18.1590 ,0.92574 ,3.63192 ,35.63642 
98 ,18.3509 ,0.92762 ,3.59086 ,35.23348 
99 ,18.5431 ,0.92950 ,3.59086 ,35.23348 
100 ,18.7346 ,0.93141 ,3.54979 ,34.83054 
101 ,18.9273 ,0.93327 ,3.56006 ,34.93128 
102 ,19.1188 ,0.93534 ,3.54295 ,34.76338 
103 ,19.3114 ,0.93709 ,3.52241 ,34.56192 
104 ,19.5030 ,0.93910 ,3.50530 ,34.39402 
105 ,19.6950 ,0.94091 ,3.49504 ,34.29329 
106 ,19.8711 ,0.94283 ,3.46766 ,34.02466 
107 ,20.0477 ,0.94461 ,3.44713 ,33.82319 
108 ,20.2715 ,0.94665 ,3.43686 ,33.72246 
109 ,20.4639 ,0.94871 ,3.42659 ,33.62172 
110 ,20.6557 ,0.95059 ,3.40264 ,33.38667 
111 ,20.8478 ,0.95251 ,3.38895 ,33.25236 
112 ,21.0397 ,0.95450 ,3.38210 ,33.18520 
113 ,21.2641 ,0.95664 ,3.36842 ,33.05089 
114 ,21.4400 ,0.95849 ,3.34788 ,32.84942 
115 ,21.6162 ,0.96025 ,3.31708 ,32.54722 
116 ,21.8084 ,0.96215 ,3.30682 ,32.44648 
117 ,21.9842 ,0.96393 ,3.29313 ,32.31217 
118 ,22.1605 ,0.96569 ,3.28286 ,32.21143 
119 ,22.3523 ,0.96760 ,3.24522 ,31.84207 
120 ,22.5446 ,0.96945 ,3.24864 ,31.87565 
121 ,22.7209 ,0.97130 ,3.23153 ,31.70776 
122 ,22.9136 ,0.97315 ,3.19731 ,31.37198 
123 ,23.1050 ,0.97516 ,3.18704 ,31.27124 
124 ,23.2811 ,0.97690 ,3.19046 ,31.30482 
125 ,23.4891 ,0.97897 ,3.15966 ,31.00262 
126 ,23.6812 ,0.98080 ,3.15282 ,30.93546 
127 ,23.8728 ,0.98289 ,3.13571 ,30.76757 
128 ,24.0654 ,0.98470 ,3.12202 ,30.63325 
129 ,24.2734 ,0.98677 ,3.08780 ,30.29747 
130 ,24.4494 ,0.98856 ,3.09464 ,30.36463 
131 ,24.6253 ,0.99032 ,3.07753 ,30.19674 
132 ,24.8331 ,0.99232 ,3.03989 ,29.82737 
133 ,25.0098 ,0.99416 ,3.03304 ,29.76022 
134 ,25.2015 ,0.99606 ,3.02278 ,29.65948 
135 ,25.3939 ,0.99794 ,2.99882 ,29.42444 
136 ,25.6020 ,1.00003 ,2.99198 ,29.35728 
137 ,25.7941 ,1.00200 ,2.96118 ,29.05507 
138 ,25.9701 ,1.00375 ,2.96802 ,29.12223 
139 ,26.1622 ,1.00561 ,2.92353 ,28.68571 
140 ,26.3222 ,1.00739 ,2.92696 ,28.71929 
141 ,26.4818 ,1.00901 ,2.89958 ,28.45066 
142 ,26.6584 ,1.01064 ,2.88931 ,28.34993 
143 ,26.8663 ,1.01267 ,2.88931 ,28.34993 
144 ,27.0746 ,1.01477 ,2.85167 ,27.98057 
145 ,27.2667 ,1.01669 ,2.84825 ,27.94699 
146 ,27.4427 ,1.01854 ,2.82087 ,27.67836 
147 ,27.6350 ,1.02039 ,2.80376 ,27.51047 
148 ,27.8268 ,1.02226 ,2.80376 ,27.51047 
149 ,28.0029 ,1.02406 ,2.79007 ,27.37616 
150 ,28.1950 ,1.02597 ,2.75927 ,27.07395 
151 ,28.3709 ,1.02777 ,2.75585 ,27.04038 
152 ,28.5472 ,1.02957 ,2.73189 ,26.80533 
153 ,28.7550 ,1.03156 ,2.71820 ,26.67101 
154 ,28.9314 ,1.03336 ,2.71136 ,26.60386 
155 ,29.1233 ,1.03520 ,2.69083 ,26.40239 
156 ,29.3157 ,1.03717 ,2.67714 ,26.26807 
157 ,29.4912 ,1.03903 ,2.66345 ,26.13376 
158 ,29.6677 ,1.04077 ,2.65660 ,26.06661 
159 ,29.8755 ,1.04274 ,2.62923 ,25.79798 
160 ,30.0839 ,1.04485 ,2.60527 ,25.56293 
161 ,30.2598 ,1.04670 ,2.58816 ,25.39504 
162 ,30.4359 ,1.04845 ,2.56421 ,25.15999 
163 ,30.6441 ,1.05042 ,2.55394 ,25.05926 
164 ,30.8362 ,1.05243 ,2.53683 ,24.89136 
165 ,31.0124 ,1.05416 ,2.53341 ,24.85779 
166 ,31.1883 ,1.05596 ,2.51287 ,24.65632 
167 ,31.3645 ,1.05773 ,2.50945 ,24.62274 
168 ,31.5564 ,1.05961 ,2.47865 ,24.32053 
169 ,31.7326 ,1.06136 ,2.47865 ,24.32053 
170 ,31.9407 ,1.06337 ,2.44101 ,23.95117 
171 ,32.1486 ,1.06547 ,2.43759 ,23.91759 
172 ,32.3249 ,1.06730 ,2.42390 ,23.78328 
173 ,32.5170 ,1.06919 ,2.39652 ,23.51465 
174 ,32.7250 ,1.07120 ,2.37599 ,23.31318 
175 ,32.9171 ,1.07313 ,2.37256 ,23.27961 
176 ,33.0932 ,1.07495 ,2.36572 ,23.21245 
177 ,33.2853 ,1.07687 ,2.33834 ,22.94382 
178 ,33.4774 ,1.07872 ,2.32465 ,22.80951 
179 ,33.6851 ,1.08082 ,2.29728 ,22.54088 
180 ,33.8614 ,1.08264 ,2.28359 ,22.40657 
181 ,34.0375 ,1.08444 ,2.26306 ,22.20510 
182 ,34.2136 ,1.08619 ,2.27332 ,22.30584 
183 ,34.3897 ,1.08795 ,2.26648 ,22.23868 
184 ,34.5978 ,1.08999 ,2.23226 ,21.90290 
185 ,34.7739 ,1.09175 ,2.22199 ,21.80216 
186 ,34.9658 ,1.09362 ,2.20488 ,21.63427 
187 ,35.1739 ,1.09566 ,2.19119 ,21.49996 
188 ,35.3500 ,1.09755 ,2.18435 ,21.43280 
189 ,35.5420 ,1.09938 ,2.15012 ,21.09702 
190 ,35.7179 ,1.10126 ,2.14328 ,21.02986 
191 ,35.8938 ,1.10302 ,2.13301 ,20.92912 
192 ,36.0862 ,1.10487 ,2.11590 ,20.76123 
193 ,36.2784 ,1.10681 ,2.08852 ,20.49261 
194 ,36.4545 ,1.10854 ,2.08852 ,20.49261 
195 ,36.6307 ,1.11034 ,2.06799 ,20.29114 
196 ,36.8227 ,1.11226 ,2.04404 ,20.05609 
197 ,36.9983 ,1.11398 ,2.03719 ,19.98893 
198 ,37.1743 ,1.11576 ,2.02350 ,19.85462 
199 ,37.3505 ,1.11754 ,2.00639 ,19.68673 
200 ,37.5266 ,1.11934 ,1.97902 ,19.41810 
201 ,37.7189 ,1.12112 ,1.97902 ,19.41810 
202 ,37.9269 ,1.12325 ,1.96190 ,19.25021 
203 ,38.1188 ,1.12513 ,1.95506 ,19.18305 
204 ,38.2951 ,1.12698 ,1.93453 ,18.98158 
205 ,38.5034 ,1.12904 ,1.91742 ,18.81369 
206 ,38.6795 ,1.13080 ,1.89688 ,18.61222 
207 ,38.8711 ,1.13268 ,1.89346 ,18.57864 
208 ,39.0311 ,1.13444 ,1.86266 ,18.27644 
209 ,39.1912 ,1.13606 ,1.85924 ,18.24286 
210 ,39.3834 ,1.13775 ,1.83528 ,18.00781 
211 ,39.5596 ,1.13963 ,1.82502 ,17.90708 
212 ,39.7517 ,1.14151 ,1.83871 ,18.04139 
213 ,39.9279 ,1.14332 ,1.82844 ,17.94066 
214 ,40.1201 ,1.14517 ,1.79764 ,17.63845 
215 ,40.3279 ,1.14724 ,1.76342 ,17.30267 
216 ,40.5202 ,1.14922 ,1.76342 ,17.30267 
217 ,40.6962 ,1.15094 ,1.75657 ,17.23551 
218 ,40.8723 ,1.15272 ,1.73946 ,17.06762 
219 ,41.0484 ,1.15452 ,1.71209 ,16.79899 
220 ,41.2246 ,1.15626 ,1.70524 ,16.73184 
221 ,41.4167 ,1.15807 ,1.70182 ,16.69826 
222 ,41.5926 ,1.16003 ,1.67444 ,16.42963 
223 ,41.7688 ,1.16170 ,1.67786 ,16.46321 
224 ,41.9608 ,1.16367 ,1.66075 ,16.29532 
225 ,42.1689 ,1.16561 ,1.62995 ,15.99311 
226 ,42.3608 ,1.16755 ,1.62653 ,15.95954 
227 ,42.5529 ,1.16957 ,1.61969 ,15.89238 
228 ,42.7448 ,1.17147 ,1.59231 ,15.62375 
229 ,42.9213 ,1.17322 ,1.57520 ,15.45586 
230 ,43.1292 ,1.17523 ,1.56151 ,15.32155 
231 ,43.3214 ,1.17720 ,1.56151 ,15.32155 
232 ,43.5134 ,1.17909 ,1.53413 ,15.05292 
233 ,43.6894 ,1.18090 ,1.52729 ,14.98577 
234 ,43.8656 ,1.18263 ,1.50676 ,14.78430 
235 ,44.0417 ,1.18440 ,1.49649 ,14.68356 
236 ,44.2338 ,1.18626 ,1.48622 ,14.58283 
237 ,44.4258 ,1.18824 ,1.45200 ,14.24704 
238 ,44.6017 ,1.18999 ,1.45542 ,14.28062 
239 ,44.7780 ,1.19180 ,1.43489 ,14.07915 
240 ,44.9539 ,1.19356 ,1.42120 ,13.94484 
241 ,45.1460 ,1.19544 ,1.40751 ,13.81053 
242 ,45.3380 ,1.19734 ,1.41436 ,13.87768 
243 ,45.5304 ,1.19931 ,1.38356 ,13.57548 
244 ,45.7223 ,1.20120 ,1.36303 ,13.37401 
245 ,45.9148 ,1.20318 ,1.35618 ,13.30685 
246 ,46.1222 ,1.20505 ,1.34249 ,13.17254 
247 ,46.3148 ,1.20706 ,1.32880 ,13.03822 
248 ,46.5066 ,1.20909 ,1.31512 ,12.90391 
249 ,46.6823 ,1.21079 ,1.29458 ,12.70244 
250 ,46.8588 ,1.21261 ,1.29116 ,12.66886 
251 ,47.0346 ,1.21433 ,1.27405 ,12.50097 
252 ,47.2111 ,1.21610 ,1.25009 ,12.26592 
253 ,47.3870 ,1.21788 ,1.23983 ,12.16519 
254 ,47.5791 ,1.21981 ,1.23641 ,12.13161 
255 ,47.7548 ,1.22149 ,1.22272 ,11.99730 
256 ,47.9309 ,1.22331 ,1.19534 ,11.72867 
257 ,48.1074 ,1.22508 ,1.18507 ,11.62794 
258 ,48.2995 ,1.22700 ,1.17823 ,11.56078 
259 ,48.4915 ,1.22885 ,1.15770 ,11.35931 
260 ,48.6996 ,1.23088 ,1.15085 ,11.29215 
261 ,48.8756 ,1.23274 ,1.12690 ,11.05710 
262 ,49.0517 ,1.23449 ,1.10636 ,10.85563 
263 ,49.2598 ,1.23647 ,1.11321 ,10.92279 
264 ,49.4198 ,1.23828 ,1.08241 ,10.62059 
265 ,49.6118 ,1.24002 ,1.07899 ,10.58701 
266 ,49.7878 ,1.24185 ,1.05503 ,10.35196 
267 ,49.9640 ,1.24359 ,1.05845 ,10.38554 
268 ,50.1402 ,1.24539 ,1.04819 ,10.28480 
269 ,50.3319 ,1.24725 ,1.01054 ,9.91544 
270 ,50.5082 ,1.24905 ,1.00370 ,9.84829 
271 ,50.7004 ,1.25087 ,0.98659 ,9.68039 
272 ,50.9080 ,1.25296 ,0.98317 ,9.64682 
273 ,51.0846 ,1.25481 ,0.95237 ,9.34461 
274 ,51.2925 ,1.25687 ,0.93868 ,9.21030 
275 ,51.4846 ,1.25875 ,0.95237 ,9.34461 
276 ,51.6767 ,1.26071 ,0.90446 ,8.87451 
277 ,51.8688 ,1.26270 ,0.90788 ,8.90809 
278 ,52.0605 ,1.26455 ,0.90446 ,8.87451 
279 ,52.2368 ,1.26632 ,0.88392 ,8.67305 
280 ,52.4130 ,1.26810 ,0.85654 ,8.40442 
281 ,52.5891 ,1.26987 ,0.85654 ,8.40442 
282 ,52.7652 ,1.27160 ,0.83943 ,8.23653 
283 ,52.9413 ,1.27338 ,0.84628 ,8.30368 
284 ,53.1172 ,1.27511 ,0.81890 ,8.03506 
285 ,53.2935 ,1.27692 ,0.79837 ,7.83359 
286 ,53.4854 ,1.27876 ,0.80521 ,7.90074 
287 ,53.6616 ,1.28059 ,0.78126 ,7.66570 
288 ,53.8533 ,1.28243 ,0.75046 ,7.36349 
289 ,54.0297 ,1.28424 ,0.74361 ,7.29633 
290 ,54.2214 ,1.28616 ,0.74019 ,7.26276 
291 ,54.3979 ,1.28797 ,0.71624 ,7.02771 
292 ,54.6059 ,1.28997 ,0.70939 ,6.96055 
293 ,54.7982 ,1.29189 ,0.68544 ,6.72550 
294 ,54.9902 ,1.29389 ,0.67517 ,6.62477 
295 ,55.2144 ,1.29596 ,0.64779 ,6.35614 
296 ,55.4062 ,1.29794 ,0.66490 ,6.52403 
297 ,55.5985 ,1.29999 ,0.63410 ,6.22183 
298 ,55.7901 ,1.30182 ,0.62042 ,6.08752 
299 ,55.9664 ,1.30362 ,0.61015 ,5.98678 
300 ,56.1584 ,1.30553 ,0.59646 ,5.85247 
301 ,56.3344 ,1.30730 ,0.56908 ,5.58384 
302 ,56.5267 ,1.30916 ,0.57593 ,5.65100 
303 ,56.7345 ,1.31129 ,0.54513 ,5.34879 
304 ,56.9108 ,1.31304 ,0.53828 ,5.28164 
305 ,57.1029 ,1.31502 ,0.53486 ,5.24806 
306 ,57.2791 ,1.31670 ,0.50748 ,4.97943 
307 ,57.4547 ,1.31851 ,0.51091 ,5.01301 
308 ,57.6310 ,1.32027 ,0.48011 ,4.71081 
309 ,57.8074 ,1.32202 ,0.48695 ,4.77796 
310 ,57.9994 ,1.32387 ,0.45273 ,4.44218 
311 ,58.1754 ,1.32566 ,0.43562 ,4.27429 
312 ,58.3675 ,1.32754 ,0.45273 ,4.44218 
313 ,58.5430 ,1.32942 ,0.41851 ,4.10640 
314 ,58.7197 ,1.33117 ,0.40140 ,3.93850 
315 ,58.9124 ,1.33301 ,0.40140 ,3.93850 
316 ,59.1037 ,1.33496 ,0.38429 ,3.77061 
317 ,59.2799 ,1.33675 ,0.36375 ,3.56914 
318 ,59.4559 ,1.33849 ,0.34664 ,3.40125 
319 ,59.6639 ,1.34051 ,0.31926 ,3.13263 
320 ,59.8400 ,1.34235 ,0.34322 ,3.36767 
321 ,60.2724 ,1.34538 ,0.30900 ,3.03189 
322 ,60.4645 ,1.34853 ,0.27820 ,2.72969 
323 ,60.6401 ,1.35038 ,0.78468 ,7.69927 
324 ,60.8326 ,1.35220 ,0.99343 ,9.74755 
325 ,61.0407 ,1.35423 ,1.04819 ,10.28480 
326 ,61.2327 ,1.35618 ,1.10294 ,10.82206 
327 ,61.4091 ,1.35806 ,1.12347 ,11.02353 
328 ,61.5846 ,1.35975 ,1.13716 ,11.15784 
329 ,61.7605 ,1.36152 ,1.12347 ,11.02353 
330 ,61.9370 ,1.36332 ,1.11663 ,10.95637 
331 ,62.1291 ,1.36512 ,1.14743 ,11.25857 
332 ,62.3210 ,1.36717 ,1.13716 ,11.15784 
333 ,62.5133 ,1.36905 ,1.14401 ,11.22500 
334 ,62.6894 ,1.37083 ,1.13032 ,11.09068 
335 ,62.8972 ,1.37271 ,1.12347 ,11.02353 
336 ,63.0895 ,1.37483 ,1.10979 ,10.88921 
337 ,63.2816 ,1.37673 ,1.10979 ,10.88921 
338 ,63.4576 ,1.37850 ,1.11321 ,10.92279 
339 ,63.6338 ,1.38028 ,1.10979 ,10.88921 
340 ,63.8256 ,1.38217 ,1.09952 ,10.78848 
341 ,64.0180 ,1.38407 ,1.09267 ,10.72132 
342 ,64.2098 ,1.38599 ,1.09267 ,10.72132 
343 ,64.4021 ,1.38793 ,1.08241 ,10.62059 
344 ,64.5940 ,1.38987 ,1.08925 ,10.68774 
345 ,64.7701 ,1.39156 ,1.07899 ,10.58701 
346 ,64.9457 ,1.39342 ,1.06530 ,10.45270 
347 ,65.1221 ,1.39514 ,1.05845 ,10.38554 
348 ,65.3143 ,1.39698 ,1.07214 ,10.51985 
349 ,65.4904 ,1.39877 ,1.06187 ,10.41912 
350 ,65.6985 ,1.40081 ,1.06187 ,10.41912 
351 ,65.8746 ,1.40265 ,1.05845 ,10.38554 
352 ,66.0825 ,1.40462 ,1.05845 ,10.38554 
353 ,66.2747 ,1.40660 ,1.06187 ,10.41912 
354 ,66.4509 ,1.40844 ,1.05161 ,10.31838 
355 ,66.6430 ,1.41030 ,1.03450 ,10.15049 
356 ,66.8349 ,1.41220 ,1.04819 ,10.28480 
357 ,67.0269 ,1.41412 ,1.03108 ,10.11691 
358 ,67.2194 ,1.41600 ,1.02423 ,10.04976 
359 ,67.4272 ,1.41810 ,1.01396 ,9.94902 
360 ,67.6195 ,1.41997 ,1.00370 ,9.84829 
361 ,67.8115 ,1.42202 ,1.00712 ,9.88186 
362 ,67.9875 ,1.42378 ,1.00712 ,9.88186 
363 ,68.1795 ,1.42569 ,0.99685 ,9.78113 
364 ,68.3553 ,1.42744 ,0.99343 ,9.74755 
365 ,68.5317 ,1.42922 ,0.99001 ,9.71397 
366 ,68.7399 ,1.43122 ,0.98317 ,9.64682 
367 ,68.9319 ,1.43319 ,0.99343 ,9.74755 
368 ,69.1240 ,1.43515 ,0.97290 ,9.54608 
369 ,69.3158 ,1.43702 ,0.96605 ,9.47892 
370 ,69.5080 ,1.43888 ,0.96948 ,9.51250 
371 ,69.6839 ,1.44074 ,0.94894 ,9.31103 
372 ,69.8761 ,1.44260 ,0.96263 ,9.44535 
373 ,70.0521 ,1.44442 ,0.96948 ,9.51250 
374 ,70.2285 ,1.44619 ,0.95579 ,9.37819 
375 ,70.4203 ,1.44808 ,0.93868 ,9.21030 
376 ,70.6285 ,1.45009 ,0.92499 ,9.07598 
377 ,70.8045 ,1.45196 ,0.91814 ,9.00883 
378 ,70.9806 ,1.45369 ,0.91472 ,8.97525 
379 ,71.1567 ,1.45543 ,0.92841 ,9.10956 
380 ,71.3485 ,1.45737 ,0.90788 ,8.90809 
381 ,71.5408 ,1.45928 ,0.90103 ,8.84094 
382 ,71.7330 ,1.46121 ,0.91130 ,8.94167 
383 ,71.9096 ,1.46298 ,0.91130 ,8.94167 
384 ,72.0850 ,1.46479 ,0.90103 ,8.84094 
385 ,72.2768 ,1.46664 ,0.89419 ,8.77378 
386 ,72.4529 ,1.46839 ,0.90103 ,8.84094 
387 ,72.6453 ,1.47031 ,0.86339 ,8.47158 
388 ,72.8374 ,1.47225 ,0.88392 ,8.67305 
389 ,73.0453 ,1.47419 ,0.85654 ,8.40442 
390 ,73.2375 ,1.47620 ,0.88050 ,8.63947 
391 ,73.4297 ,1.47811 ,0.85654 ,8.40442 
392 ,73.6217 ,1.48010 ,0.84628 ,8.30368 
393 ,73.8139 ,1.48203 ,0.87023 ,8.53873 
394 ,74.0058 ,1.48391 ,0.83601 ,8.20295 
395 ,74.1820 ,1.48570 ,0.84286 ,8.27011 
396 ,74.3420 ,1.48741 ,0.83943 ,8.23653 
397 ,74.5181 ,1.48905 ,0.83943 ,8.23653 
398 ,74.6938 ,1.49077 ,0.83601 ,8.20295 
399 ,74.8703 ,1.49258 ,0.81890 ,8.03506 
400 ,75.0461 ,1.49432 ,0.80863 ,7.93432 
401 ,75.2385 ,1.49624 ,0.82575 ,8.10221 
402 ,75.4305 ,1.49818 ,0.80863 ,7.93432 
403 ,75.6064 ,1.49993 ,0.79837 ,7.83359 
404 ,75.7987 ,1.50178 ,0.80521 ,7.90074 
405 ,75.9908 ,1.50378 ,0.78468 ,7.69927 
406 ,76.1989 ,1.50568 ,0.79495 ,7.80001 
407 ,76.4070 ,1.50784 ,0.77784 ,7.63212 
408 ,76.6149 ,1.50996 ,0.77099 ,7.56496 
409 ,76.8072 ,1.51185 ,0.76757 ,7.53138 
410 ,77.0149 ,1.51398 ,0.75730 ,7.43065 
411 ,77.1913 ,1.51579 ,0.74361 ,7.29633 
412 ,77.3673 ,1.51751 ,0.74361 ,7.29633 
413 ,77.5753 ,1.51944 ,0.74019 ,7.26276 
414 ,77.7832 ,1.52156 ,0.73677 ,7.22918 
415 ,77.9594 ,1.52348 ,0.72992 ,7.16202 
416 ,78.1675 ,1.52546 ,0.71966 ,7.06129 
417 ,78.3597 ,1.52747 ,0.73335 ,7.19560 
418 ,78.5516 ,1.52936 ,0.70939 ,6.96055 
419 ,78.7279 ,1.53115 ,0.70255 ,6.89340 
420 ,78.9356 ,1.53319 ,0.70939 ,6.96055 
421 ,79.1279 ,1.53504 ,0.69570 ,6.82624 
422 ,79.3200 ,1.53705 ,0.70255 ,6.89340 
423 ,79.5124 ,1.53896 ,0.68201 ,6.69193 
424 ,79.7199 ,1.54087 ,0.68886 ,6.75908 
425 ,79.8962 ,1.54281 ,0.68886 ,6.75908 
426 ,80.0882 ,1.54467 ,0.66490 ,6.52403 
427 ,80.2806 ,1.54660 ,0.67859 ,6.65835 
428 ,80.4724 ,1.54859 ,0.66833 ,6.55761 
429 ,80.6486 ,1.55034 ,0.66148 ,6.49046 
430 ,80.8247 ,1.55208 ,0.65121 ,6.38972 
431 ,81.0165 ,1.55390 ,0.65464 ,6.42330 
432 ,81.1929 ,1.55581 ,0.63753 ,6.25541 
433 ,81.3850 ,1.55765 ,0.63753 ,6.25541 
434 ,81.5609 ,1.55945 ,0.63068 ,6.18825 
435 ,81.7530 ,1.56136 ,0.63068 ,6.18825 
436 ,81.9293 ,1.56316 ,0.61699 ,6.05394 
437 ,82.1213 ,1.56507 ,0.63753 ,6.25541 
438 ,82.2973 ,1.56684 ,0.63068 ,6.18825 
439 ,82.4734 ,1.56855 ,0.61699 ,6.05394 
440 ,82.6815 ,1.57059 ,0.62384 ,6.12109 
441 ,82.8575 ,1.57240 ,0.61699 ,6.05394 
442 ,83.0337 ,1.57419 ,0.59646 ,5.85247 
443 ,83.2254 ,1.57601 ,0.61357 ,6.02036 
444 ,83.4178 ,1.57798 ,0.58962 ,5.78531 
445 ,83.5938 ,1.57976 ,0.58962 ,5.78531 
446 ,83.7699 ,1.58151 ,0.58277 ,5.71815 
447 ,83.9622 ,1.58349 ,0.58962 ,5.78531 
448 ,84.1541 ,1.58538 ,0.57593 ,5.65100 
449 ,84.3623 ,1.58742 ,0.58619 ,5.75173 
450 ,84.5540 ,1.58939 ,0.57593 ,5.65100 
451 ,84.7462 ,1.59126 ,0.57593 ,5.65100 
452 ,84.9384 ,1.59314 ,0.56224 ,5.51668 
453 ,85.1303 ,1.59512 ,0.56566 ,5.55026 
454 ,85.3061 ,1.59690 ,0.56566 ,5.55026 
455 ,85.4826 ,1.59866 ,0.56224 ,5.51668 
456 ,85.6748 ,1.60050 ,0.54513 ,5.34879 
457 ,85.8666 ,1.60242 ,0.55197 ,5.41595 
458 ,86.0429 ,1.60429 ,0.56566 ,5.55026 
459 ,86.2667 ,1.60645 ,0.54513 ,5.34879 
460 ,86.4430 ,1.60825 ,0.54513 ,5.34879 
461 ,86.6509 ,1.61032 ,0.52459 ,5.14732 
462 ,86.8273 ,1.61212 ,0.52802 ,5.18090 
463 ,87.0509 ,1.61411 ,0.51775 ,5.08017 
464 ,87.2435 ,1.61625 ,0.53144 ,5.21448 
465 ,87.4515 ,1.61831 ,0.52802 ,5.18090 
466 ,87.6275 ,1.62012 ,0.52117 ,5.11375 
467 ,87.8191 ,1.62203 ,0.51091 ,5.01301 
