Data stamp = , 21-04-2022 21:48:43 663

Calibration Values: 
Slope = , 26.54 , g/V 
Offset Voltage at no contact = , -0.501760 , V 

No , Time , Stage Position ,   Mass , Force 
   ,  (s) ,      (mm)      ,   (g)  , (mN)  

1 ,0.0000 ,0.74945 ,4.99394 ,49.00058 
2 ,0.2090 ,0.74955 ,5.00763 ,49.13490 
3 ,0.5294 ,0.75034 ,5.00763 ,49.13490 
4 ,0.7376 ,0.75188 ,4.99052 ,48.96701 
5 ,0.9298 ,0.75345 ,5.00763 ,49.13490 
6 ,1.1214 ,0.75539 ,5.01790 ,49.23563 
7 ,1.2979 ,0.75713 ,5.01790 ,49.23563 
8 ,1.4902 ,0.75910 ,5.00763 ,49.13490 
9 ,1.6821 ,0.76095 ,5.01106 ,49.16848 
10 ,1.8741 ,0.76291 ,4.97341 ,48.79911 
11 ,2.0498 ,0.76475 ,4.97341 ,48.79911 
12 ,2.2261 ,0.76644 ,4.95630 ,48.63122 
13 ,2.4183 ,0.76845 ,4.94603 ,48.53049 
14 ,2.5940 ,0.77011 ,4.93235 ,48.39618 
15 ,2.7864 ,0.77204 ,4.92550 ,48.32902 
16 ,2.9944 ,0.77409 ,4.90497 ,48.12755 
17 ,3.1866 ,0.77599 ,4.88786 ,47.95966 
18 ,3.3787 ,0.77787 ,4.87417 ,47.82534 
19 ,3.5549 ,0.77976 ,4.84679 ,47.55672 
20 ,3.7305 ,0.78159 ,4.82968 ,47.38883 
21 ,3.9071 ,0.78332 ,4.82968 ,47.38883 
22 ,4.0830 ,0.78504 ,4.80915 ,47.18736 
23 ,4.2751 ,0.78683 ,4.77493 ,46.85157 
24 ,4.4512 ,0.78868 ,4.75439 ,46.65010 
25 ,4.6272 ,0.79043 ,4.74413 ,46.54937 
26 ,4.7869 ,0.79220 ,4.74070 ,46.51579 
27 ,4.9796 ,0.79390 ,4.72702 ,46.38148 
28 ,5.1716 ,0.79585 ,4.69622 ,46.07927 
29 ,5.3631 ,0.79785 ,4.70648 ,46.18001 
30 ,5.5393 ,0.79957 ,4.67568 ,45.87780 
31 ,5.7153 ,0.80131 ,4.65857 ,45.70991 
32 ,5.8753 ,0.80303 ,4.62777 ,45.40771 
33 ,6.0679 ,0.80483 ,4.63119 ,45.44128 
34 ,6.2758 ,0.80689 ,4.59355 ,45.07192 
35 ,6.4680 ,0.80886 ,4.58328 ,44.97119 
36 ,6.6602 ,0.81075 ,4.57986 ,44.93761 
37 ,6.8521 ,0.81263 ,4.54564 ,44.60183 
38 ,7.0443 ,0.81460 ,4.53537 ,44.50109 
39 ,7.2360 ,0.81657 ,4.51826 ,44.33320 
40 ,7.4124 ,0.81832 ,4.49773 ,44.13173 
41 ,7.5885 ,0.82004 ,4.47720 ,43.93026 
42 ,7.7806 ,0.82193 ,4.46351 ,43.79595 
43 ,8.0043 ,0.82409 ,4.44982 ,43.66163 
44 ,8.1807 ,0.82603 ,4.43955 ,43.56090 
45 ,8.3728 ,0.82792 ,4.40533 ,43.22512 
46 ,8.5489 ,0.82967 ,4.39849 ,43.15796 
47 ,8.7249 ,0.83140 ,4.38480 ,43.02365 
48 ,8.9010 ,0.83317 ,4.37111 ,42.88933 
49 ,9.0927 ,0.83506 ,4.35058 ,42.68786 
50 ,9.2852 ,0.83696 ,4.34716 ,42.65429 
51 ,9.4933 ,0.83909 ,4.30609 ,42.25135 
52 ,9.6853 ,0.84095 ,4.31293 ,42.31850 
53 ,9.8613 ,0.84277 ,4.29582 ,42.15061 
54 ,10.0374 ,0.84454 ,4.27529 ,41.94914 
55 ,10.2290 ,0.84643 ,4.25133 ,41.71409 
56 ,10.4055 ,0.84824 ,4.24791 ,41.68051 
57 ,10.6136 ,0.85025 ,4.20685 ,41.27758 
58 ,10.7735 ,0.85201 ,4.19316 ,41.14326 
59 ,10.9819 ,0.85384 ,4.20342 ,41.24400 
60 ,11.1739 ,0.85591 ,4.16578 ,40.87464 
61 ,11.3500 ,0.85767 ,4.15551 ,40.77390 
62 ,11.5421 ,0.85958 ,4.14867 ,40.70674 
63 ,11.7342 ,0.86144 ,4.12129 ,40.43812 
64 ,11.9260 ,0.86334 ,4.11445 ,40.37096 
65 ,12.1183 ,0.86523 ,4.11103 ,40.33738 
66 ,12.3424 ,0.86742 ,4.06996 ,39.93444 
67 ,12.5184 ,0.86932 ,4.05285 ,39.76655 
68 ,12.6945 ,0.87121 ,4.04600 ,39.69940 
69 ,12.8707 ,0.87287 ,4.00152 ,39.26288 
70 ,13.0463 ,0.87461 ,4.01178 ,39.36361 
71 ,13.2224 ,0.87646 ,3.98441 ,39.09499 
72 ,13.3824 ,0.87808 ,3.97756 ,39.02783 
73 ,13.5591 ,0.87977 ,3.95361 ,38.79278 
74 ,13.7511 ,0.88172 ,3.93650 ,38.62489 
75 ,13.9431 ,0.88350 ,3.93307 ,38.59131 
76 ,14.1351 ,0.88549 ,3.91254 ,38.38984 
77 ,14.3272 ,0.88733 ,3.88858 ,38.15479 
78 ,14.5354 ,0.88943 ,3.87832 ,38.05406 
79 ,14.7273 ,0.89141 ,3.84752 ,37.75185 
80 ,14.9036 ,0.89320 ,3.84410 ,37.71828 
81 ,15.0956 ,0.89510 ,3.81330 ,37.41607 
82 ,15.2875 ,0.89694 ,3.82014 ,37.48323 
83 ,15.4637 ,0.89882 ,3.79961 ,37.28176 
84 ,15.6398 ,0.90057 ,3.77908 ,37.08029 
85 ,15.8319 ,0.90243 ,3.74828 ,36.77808 
86 ,16.0240 ,0.90438 ,3.74485 ,36.74450 
87 ,16.1996 ,0.90625 ,3.72090 ,36.50946 
88 ,16.3756 ,0.90794 ,3.69694 ,36.27441 
89 ,16.5517 ,0.90963 ,3.70037 ,36.30799 
90 ,16.7441 ,0.91153 ,3.69010 ,36.20725 
91 ,16.9522 ,0.91363 ,3.63877 ,35.70358 
92 ,17.1283 ,0.91537 ,3.63534 ,35.67000 
93 ,17.3045 ,0.91720 ,3.63534 ,35.67000 
94 ,17.5126 ,0.91915 ,3.60454 ,35.36779 
95 ,17.7047 ,0.92122 ,3.59428 ,35.26706 
96 ,17.8809 ,0.92295 ,3.59770 ,35.30064 
97 ,18.0726 ,0.92480 ,3.55321 ,34.86412 
98 ,18.2488 ,0.92663 ,3.54295 ,34.76338 
99 ,18.4248 ,0.92839 ,3.54295 ,34.76338 
100 ,18.6008 ,0.93018 ,3.52926 ,34.62907 
101 ,18.7930 ,0.93202 ,3.48819 ,34.22613 
102 ,18.9691 ,0.93386 ,3.47792 ,34.12540 
103 ,19.1453 ,0.93558 ,3.47108 ,34.05824 
104 ,19.3532 ,0.93760 ,3.43686 ,33.72246 
105 ,19.5294 ,0.93945 ,3.42317 ,33.58814 
106 ,19.7211 ,0.94133 ,3.42659 ,33.62172 
107 ,19.8973 ,0.94305 ,3.41290 ,33.48741 
108 ,20.1055 ,0.94512 ,3.38553 ,33.21878 
109 ,20.2818 ,0.94694 ,3.37526 ,33.11805 
110 ,20.4740 ,0.94881 ,3.34788 ,32.84942 
111 ,20.6819 ,0.95078 ,3.34446 ,32.81584 
112 ,20.8736 ,0.95291 ,3.31708 ,32.54722 
113 ,21.0659 ,0.95476 ,3.30682 ,32.44648 
114 ,21.2418 ,0.95654 ,3.29997 ,32.37933 
115 ,21.4181 ,0.95828 ,3.28971 ,32.27859 
116 ,21.6102 ,0.96019 ,3.26233 ,32.00996 
117 ,21.8183 ,0.96231 ,3.24522 ,31.84207 
118 ,22.0103 ,0.96429 ,3.22468 ,31.64060 
119 ,22.2025 ,0.96610 ,3.21442 ,31.53987 
120 ,22.3946 ,0.96801 ,3.18020 ,31.20409 
121 ,22.6186 ,0.97015 ,3.16309 ,31.03619 
122 ,22.7947 ,0.97209 ,3.14940 ,30.90188 
123 ,22.9863 ,0.97394 ,3.15624 ,30.96904 
124 ,23.1789 ,0.97583 ,3.13229 ,30.73399 
125 ,23.3866 ,0.97789 ,3.10149 ,30.43178 
126 ,23.5631 ,0.97977 ,3.09806 ,30.39821 
127 ,23.7712 ,0.98168 ,3.07753 ,30.19674 
128 ,23.9632 ,0.98366 ,3.06042 ,30.02884 
129 ,24.1552 ,0.98573 ,3.02962 ,29.72664 
130 ,24.3313 ,0.98742 ,3.03304 ,29.76022 
131 ,24.5394 ,0.98933 ,3.02962 ,29.72664 
132 ,24.7155 ,0.99130 ,3.00567 ,29.49159 
133 ,24.8916 ,0.99303 ,2.97829 ,29.22297 
134 ,25.0837 ,0.99494 ,2.96802 ,29.12223 
135 ,25.2756 ,0.99690 ,2.94749 ,28.92076 
136 ,25.4519 ,0.99863 ,2.92353 ,28.68571 
137 ,25.6439 ,1.00060 ,2.93038 ,28.75287 
138 ,25.8200 ,1.00226 ,2.90300 ,28.48424 
139 ,26.0119 ,1.00410 ,2.87220 ,28.18204 
140 ,26.1879 ,1.00603 ,2.86536 ,28.11488 
141 ,26.3803 ,1.00791 ,2.86193 ,28.08130 
142 ,26.5722 ,1.00984 ,2.83798 ,27.84625 
143 ,26.7483 ,1.01163 ,2.81060 ,27.57763 
144 ,26.9243 ,1.01335 ,2.80034 ,27.47689 
145 ,27.1006 ,1.01516 ,2.80376 ,27.51047 
146 ,27.2763 ,1.01692 ,2.76954 ,27.17469 
147 ,27.4527 ,1.01866 ,2.75927 ,27.07395 
148 ,27.6447 ,1.02055 ,2.74900 ,26.97322 
149 ,27.8209 ,1.02229 ,2.74216 ,26.90606 
150 ,28.0289 ,1.02433 ,2.70794 ,26.57028 
151 ,28.2206 ,1.02622 ,2.70794 ,26.57028 
152 ,28.3966 ,1.02804 ,2.68398 ,26.33523 
153 ,28.5890 ,1.02989 ,2.67714 ,26.26807 
154 ,28.7648 ,1.03172 ,2.65318 ,26.03303 
155 ,28.9412 ,1.03349 ,2.63607 ,25.86514 
156 ,29.1172 ,1.03524 ,2.64292 ,25.93229 
157 ,29.3094 ,1.03709 ,2.60869 ,25.59651 
158 ,29.5173 ,1.03919 ,2.60527 ,25.56293 
159 ,29.6935 ,1.04103 ,2.57447 ,25.26073 
160 ,29.8695 ,1.04281 ,2.56421 ,25.15999 
161 ,30.0618 ,1.04457 ,2.55052 ,25.02568 
162 ,30.2537 ,1.04669 ,2.52998 ,24.82421 
163 ,30.4299 ,1.04838 ,2.50603 ,24.58916 
164 ,30.5896 ,1.05013 ,2.49576 ,24.48842 
165 ,30.7658 ,1.05173 ,2.48550 ,24.38769 
166 ,30.9421 ,1.05355 ,2.48550 ,24.38769 
167 ,31.1501 ,1.05545 ,2.44443 ,23.98475 
168 ,31.3264 ,1.05734 ,2.43416 ,23.88402 
169 ,31.5182 ,1.05926 ,2.43416 ,23.88402 
170 ,31.6944 ,1.06100 ,2.39994 ,23.54823 
171 ,31.8862 ,1.06292 ,2.40679 ,23.61539 
172 ,32.0786 ,1.06480 ,2.37256 ,23.27961 
173 ,32.2865 ,1.06689 ,2.36914 ,23.24603 
174 ,32.4628 ,1.06871 ,2.34861 ,23.04456 
175 ,32.6706 ,1.07060 ,2.32808 ,22.84309 
176 ,32.8629 ,1.07266 ,2.31439 ,22.70877 
177 ,33.0710 ,1.07473 ,2.29043 ,22.47373 
178 ,33.2469 ,1.07652 ,2.26648 ,22.23868 
179 ,33.4230 ,1.07826 ,2.27332 ,22.30584 
180 ,33.6151 ,1.08019 ,2.24937 ,22.07079 
181 ,33.8071 ,1.08205 ,2.23226 ,21.90290 
182 ,33.9833 ,1.08393 ,2.23226 ,21.90290 
183 ,34.1753 ,1.08573 ,2.19803 ,21.56711 
184 ,34.3995 ,1.08799 ,2.19803 ,21.56711 
185 ,34.6076 ,1.09008 ,2.17066 ,21.29849 
186 ,34.7995 ,1.09204 ,2.15697 ,21.16417 
187 ,34.9757 ,1.09387 ,2.12617 ,20.86197 
188 ,35.1839 ,1.09589 ,2.13301 ,20.92912 
189 ,35.3918 ,1.09782 ,2.10564 ,20.66050 
190 ,35.5679 ,1.09976 ,2.08510 ,20.45903 
191 ,35.7441 ,1.10150 ,2.07826 ,20.39187 
192 ,35.9521 ,1.10353 ,2.05088 ,20.12325 
193 ,36.1280 ,1.10532 ,2.04746 ,20.08967 
194 ,36.3042 ,1.10714 ,2.04061 ,20.02251 
195 ,36.4805 ,1.10889 ,2.03035 ,19.92178 
196 ,36.6724 ,1.11073 ,1.99270 ,19.55241 
197 ,36.8485 ,1.11258 ,1.96875 ,19.31737 
198 ,37.0403 ,1.11448 ,1.98244 ,19.45168 
199 ,37.2161 ,1.11625 ,1.97217 ,19.35094 
200 ,37.4088 ,1.11803 ,1.94137 ,19.04874 
201 ,37.6008 ,1.12012 ,1.93111 ,18.94801 
202 ,37.8088 ,1.12206 ,1.90715 ,18.71296 
203 ,38.0008 ,1.12397 ,1.88319 ,18.47791 
204 ,38.1932 ,1.12592 ,1.86266 ,18.27644 
205 ,38.3849 ,1.12792 ,1.86608 ,18.31002 
206 ,38.5611 ,1.12964 ,1.86608 ,18.31002 
207 ,38.7532 ,1.13153 ,1.82160 ,17.87350 
208 ,38.9296 ,1.13337 ,1.81133 ,17.77276 
209 ,39.1211 ,1.13520 ,1.81817 ,17.83992 
210 ,39.3138 ,1.13711 ,1.77711 ,17.43698 
211 ,39.5056 ,1.13918 ,1.78395 ,17.50414 
212 ,39.6817 ,1.14086 ,1.76684 ,17.33625 
213 ,39.8741 ,1.14275 ,1.73262 ,17.00046 
214 ,40.0821 ,1.14478 ,1.73946 ,17.06762 
215 ,40.2576 ,1.14663 ,1.72578 ,16.93331 
216 ,40.4498 ,1.14845 ,1.70524 ,16.73184 
217 ,40.6421 ,1.15042 ,1.69498 ,16.63110 
218 ,40.8181 ,1.15220 ,1.68129 ,16.49679 
219 ,40.9942 ,1.15402 ,1.66760 ,16.36248 
220 ,41.1861 ,1.15589 ,1.64707 ,16.16101 
221 ,41.3785 ,1.15774 ,1.62311 ,15.92596 
222 ,41.5706 ,1.15978 ,1.61284 ,15.82522 
223 ,41.7464 ,1.16153 ,1.60600 ,15.75807 
224 ,41.9546 ,1.16363 ,1.59916 ,15.69091 
225 ,42.1785 ,1.16567 ,1.56493 ,15.35513 
226 ,42.3705 ,1.16768 ,1.53756 ,15.08650 
227 ,42.5626 ,1.16963 ,1.55124 ,15.22081 
228 ,42.7548 ,1.17160 ,1.52729 ,14.98577 
229 ,42.9311 ,1.17333 ,1.50333 ,14.75072 
230 ,43.1230 ,1.17526 ,1.51018 ,14.81787 
231 ,43.3152 ,1.17718 ,1.47938 ,14.51567 
232 ,43.4909 ,1.17894 ,1.46227 ,14.34778 
233 ,43.6672 ,1.18072 ,1.43489 ,14.07915 
234 ,43.8754 ,1.18272 ,1.42462 ,13.97842 
235 ,44.0515 ,1.18456 ,1.41778 ,13.91126 
236 ,44.2275 ,1.18633 ,1.40409 ,13.77695 
237 ,44.4197 ,1.18814 ,1.40409 ,13.77695 
238 ,44.6114 ,1.19018 ,1.38014 ,13.54190 
239 ,44.7878 ,1.19192 ,1.35618 ,13.30685 
240 ,44.9798 ,1.19374 ,1.36645 ,13.40759 
241 ,45.1561 ,1.19557 ,1.35276 ,13.27327 
242 ,45.3481 ,1.19753 ,1.31854 ,12.93749 
243 ,45.5401 ,1.19939 ,1.32196 ,12.97107 
244 ,45.7322 ,1.20129 ,1.28432 ,12.60171 
245 ,45.9242 ,1.20333 ,1.29116 ,12.66886 
246 ,46.1002 ,1.20501 ,1.27747 ,12.53455 
247 ,46.2762 ,1.20683 ,1.24667 ,12.23235 
248 ,46.4525 ,1.20855 ,1.22956 ,12.06445 
249 ,46.6441 ,1.21041 ,1.23641 ,12.13161 
250 ,46.8206 ,1.21228 ,1.22614 ,12.03088 
251 ,47.0125 ,1.21419 ,1.19192 ,11.69509 
252 ,47.2048 ,1.21607 ,1.18507 ,11.62794 
253 ,47.3966 ,1.21801 ,1.18165 ,11.59436 
254 ,47.5888 ,1.21984 ,1.16112 ,11.39289 
255 ,47.7645 ,1.22174 ,1.14058 ,11.19142 
256 ,47.9409 ,1.22343 ,1.14401 ,11.22500 
257 ,48.1171 ,1.22516 ,1.12690 ,11.05710 
258 ,48.3091 ,1.22706 ,1.09610 ,10.75490 
259 ,48.5011 ,1.22894 ,1.09952 ,10.78848 
260 ,48.6612 ,1.23073 ,1.07899 ,10.58701 
261 ,48.8373 ,1.23236 ,1.06530 ,10.45270 
262 ,49.0130 ,1.23410 ,1.04476 ,10.25123 
263 ,49.1890 ,1.23595 ,1.04476 ,10.25123 
264 ,49.3971 ,1.23781 ,1.02423 ,10.04976 
265 ,49.5897 ,1.23980 ,1.00028 ,9.81471 
266 ,49.7818 ,1.24184 ,0.99343 ,9.74755 
267 ,49.9577 ,1.24370 ,0.97632 ,9.57966 
268 ,50.1499 ,1.24544 ,0.96263 ,9.44535 
269 ,50.3258 ,1.24727 ,0.95237 ,9.34461 
270 ,50.5022 ,1.24902 ,0.94552 ,9.27745 
271 ,50.7096 ,1.25101 ,0.92157 ,9.04241 
272 ,50.8863 ,1.25284 ,0.92157 ,9.04241 
273 ,51.0781 ,1.25474 ,0.91814 ,9.00883 
274 ,51.2861 ,1.25681 ,0.89419 ,8.77378 
275 ,51.4624 ,1.25864 ,0.88392 ,8.67305 
276 ,51.6381 ,1.26039 ,0.86681 ,8.50515 
277 ,51.8145 ,1.26214 ,0.85654 ,8.40442 
278 ,52.0064 ,1.26401 ,0.84286 ,8.27011 
279 ,52.1988 ,1.26592 ,0.82232 ,8.06864 
280 ,52.3905 ,1.26793 ,0.79837 ,7.83359 
281 ,52.5830 ,1.26985 ,0.80179 ,7.86717 
282 ,52.7749 ,1.27169 ,0.77784 ,7.63212 
283 ,52.9670 ,1.27364 ,0.76415 ,7.49780 
284 ,53.1430 ,1.27542 ,0.75046 ,7.36349 
285 ,53.3191 ,1.27715 ,0.74361 ,7.29633 
286 ,53.4953 ,1.27893 ,0.72992 ,7.16202 
287 ,53.6873 ,1.28081 ,0.71624 ,7.02771 
288 ,53.8954 ,1.28280 ,0.68886 ,6.75908 
289 ,54.0874 ,1.28486 ,0.66833 ,6.55761 
290 ,54.2794 ,1.28672 ,0.68201 ,6.69193 
291 ,54.4874 ,1.28877 ,0.65121 ,6.38972 
292 ,54.6796 ,1.29074 ,0.65121 ,6.38972 
293 ,54.8557 ,1.29259 ,0.62384 ,6.12109 
294 ,55.0479 ,1.29441 ,0.60673 ,5.95320 
295 ,55.2395 ,1.29629 ,0.60330 ,5.91962 
296 ,55.4321 ,1.29822 ,0.58619 ,5.75173 
297 ,55.6242 ,1.30024 ,0.57935 ,5.68458 
298 ,55.8160 ,1.30212 ,0.54855 ,5.38237 
299 ,56.0082 ,1.30399 ,0.53144 ,5.21448 
300 ,56.1843 ,1.30590 ,0.55197 ,5.41595 
301 ,56.3439 ,1.30754 ,0.53144 ,5.21448 
302 ,56.5205 ,1.30919 ,0.51433 ,5.04659 
303 ,56.7125 ,1.31110 ,0.49037 ,4.81154 
304 ,56.8887 ,1.31291 ,0.46642 ,4.57649 
305 ,57.0967 ,1.31485 ,0.47668 ,4.67723 
306 ,57.2888 ,1.31686 ,0.44588 ,4.37502 
307 ,57.4648 ,1.31867 ,0.44931 ,4.40860 
308 ,57.6409 ,1.32041 ,0.43904 ,4.30787 
309 ,57.8165 ,1.32212 ,0.42877 ,4.20713 
310 ,57.9931 ,1.32394 ,0.39797 ,3.90493 
311 ,58.1849 ,1.32579 ,0.39455 ,3.87135 
312 ,58.3773 ,1.32767 ,0.38771 ,3.80419 
313 ,58.5693 ,1.32968 ,0.36375 ,3.56914 
314 ,58.7614 ,1.33154 ,0.35691 ,3.50199 
315 ,58.9693 ,1.33350 ,0.34322 ,3.36767 
316 ,59.1774 ,1.33568 ,0.32953 ,3.23336 
317 ,59.3533 ,1.33751 ,0.30558 ,2.99831 
318 ,59.5451 ,1.33938 ,0.29873 ,2.93116 
319 ,59.7374 ,1.34126 ,0.28504 ,2.79684 
320 ,59.9139 ,1.34311 ,0.27820 ,2.72969 
321 ,60.1216 ,1.34503 ,0.26793 ,2.62895 
322 ,60.3140 ,1.34709 ,0.25767 ,2.52822 
323 ,60.4898 ,1.34888 ,0.24055 ,2.36032 
324 ,60.6656 ,1.35066 ,0.20633 ,2.02454 
325 ,60.8419 ,1.35239 ,0.21318 ,2.09170 
326 ,61.0181 ,1.35413 ,0.20633 ,2.02454 
327 ,61.1942 ,1.35589 ,0.18580 ,1.82307 
328 ,61.3707 ,1.35768 ,0.17211 ,1.68876 
329 ,61.5785 ,1.35974 ,0.17553 ,1.72234 
330 ,61.7706 ,1.36158 ,0.14816 ,1.45371 
331 ,61.9785 ,1.36372 ,0.14816 ,1.45371 
332 ,62.1547 ,1.36550 ,0.12762 ,1.25224 
333 ,62.3307 ,1.36732 ,0.10709 ,1.05077 
334 ,62.5229 ,1.36914 ,0.10709 ,1.05077 
335 ,62.6989 ,1.37096 ,0.08998 ,0.88288 
336 ,62.8910 ,1.37286 ,0.06945 ,0.68141 
337 ,63.0989 ,1.37485 ,0.06260 ,0.61425 
338 ,63.2750 ,1.37671 ,0.05918 ,0.58067 
339 ,63.4512 ,1.37850 ,0.03522 ,0.34563 
340 ,63.6432 ,1.38039 ,0.02838 ,0.27847 
341 ,63.8189 ,1.38214 ,0.02154 ,0.21131 
342 ,63.9952 ,1.38391 ,0.00785 ,0.07700 
343 ,64.2035 ,1.38595 ,-0.00584 ,-0.05731 
344 ,64.3955 ,1.38781 ,-0.01269 ,-0.12447 
345 ,64.6036 ,1.38994 ,-0.01611 ,-0.15805 
346 ,64.7956 ,1.39188 ,-0.04006 ,-0.39310 
347 ,64.9717 ,1.39366 ,-0.06060 ,-0.59457 
348 ,65.1318 ,1.39538 ,-0.08455 ,-0.82961 
349 ,65.3239 ,1.39711 ,-0.07428 ,-0.72888 
350 ,65.5000 ,1.39896 ,-0.09824 ,-0.96393 
351 ,65.6760 ,1.40070 ,-0.10166 ,-0.99751 
352 ,65.8521 ,1.40246 ,-0.10851 ,-1.06466 
353 ,66.0282 ,1.40419 ,-0.13931 ,-1.36687 
354 ,66.2042 ,1.40602 ,-0.14615 ,-1.43402 
355 ,66.3965 ,1.40793 ,-0.14273 ,-1.40045 
356 ,66.5886 ,1.40978 ,-0.17695 ,-1.73623 
357 ,66.7806 ,1.41170 ,-0.17011 ,-1.66907 
358 ,66.9887 ,1.41368 ,-0.18722 ,-1.83696 
359 ,67.1647 ,1.41564 ,-0.19406 ,-1.90412 
360 ,67.3568 ,1.41747 ,-0.21459 ,-2.10559 
361 ,67.5649 ,1.41954 ,-0.22144 ,-2.17275 
362 ,67.7411 ,1.42136 ,-0.24197 ,-2.37422 
363 ,67.9491 ,1.42342 ,-0.26593 ,-2.60926 
364 ,68.1407 ,1.42529 ,-0.26250 ,-2.57569 
365 ,68.3171 ,1.42711 ,-0.25566 ,-2.50853 
366 ,68.5092 ,1.42906 ,-0.28988 ,-2.84431 
367 ,68.7013 ,1.43097 ,-0.29673 ,-2.91147 
368 ,68.8776 ,1.43270 ,-0.30015 ,-2.94505 
369 ,69.0694 ,1.43460 ,-0.30357 ,-2.97863 
370 ,69.2455 ,1.43638 ,-0.33779 ,-3.31441 
371 ,69.4217 ,1.43819 ,-0.34464 ,-3.38156 
372 ,69.6137 ,1.44011 ,-0.34121 ,-3.34799 
373 ,69.8219 ,1.44205 ,-0.37544 ,-3.68377 
374 ,70.0139 ,1.44403 ,-0.36517 ,-3.58303 
375 ,70.1899 ,1.44584 ,-0.37544 ,-3.68377 
376 ,70.3656 ,1.44756 ,-0.40281 ,-3.95240 
377 ,70.5578 ,1.44944 ,-0.39597 ,-3.88524 
378 ,70.7342 ,1.45127 ,-0.40623 ,-3.98597 
379 ,70.9420 ,1.45331 ,-0.43361 ,-4.25460 
380 ,71.1179 ,1.45514 ,-0.43361 ,-4.25460 
381 ,71.3100 ,1.45696 ,-0.46441 ,-4.55681 
382 ,71.4861 ,1.45877 ,-0.46783 ,-4.59038 
383 ,71.6943 ,1.46082 ,-0.46783 ,-4.59038 
384 ,71.8706 ,1.46266 ,-0.48152 ,-4.72470 
385 ,72.0463 ,1.46441 ,-0.49863 ,-4.89259 
386 ,72.2228 ,1.46611 ,-0.52943 ,-5.19479 
387 ,72.4146 ,1.46806 ,-0.51232 ,-5.02690 
388 ,72.6067 ,1.46993 ,-0.53628 ,-5.26195 
389 ,72.8149 ,1.47203 ,-0.53628 ,-5.26195 
390 ,73.0070 ,1.47398 ,-0.56365 ,-5.53058 
391 ,73.2311 ,1.47595 ,-0.56023 ,-5.49700 
392 ,73.4072 ,1.47803 ,-0.58419 ,-5.73205 
393 ,73.6152 ,1.48005 ,-0.59103 ,-5.79920 
394 ,73.8074 ,1.48198 ,-0.60814 ,-5.96709 
395 ,73.9992 ,1.48384 ,-0.61499 ,-6.03425 
396 ,74.1917 ,1.48586 ,-0.61499 ,-6.03425 
397 ,74.3995 ,1.48784 ,-0.64236 ,-6.30288 
398 ,74.5754 ,1.48972 ,-0.64236 ,-6.30288 
399 ,74.7678 ,1.49155 ,-0.65263 ,-6.40361 
400 ,74.9599 ,1.49351 ,-0.68685 ,-6.73940 
401 ,75.1520 ,1.49542 ,-0.67659 ,-6.63866 
402 ,75.3440 ,1.49735 ,-0.70054 ,-6.87371 
403 ,75.5202 ,1.49908 ,-0.71423 ,-7.00802 
404 ,75.7122 ,1.50112 ,-0.72792 ,-7.14233 
405 ,75.9042 ,1.50292 ,-0.74161 ,-7.27665 
406 ,76.0805 ,1.50472 ,-0.75187 ,-7.37738 
407 ,76.2561 ,1.50650 ,-0.73476 ,-7.20949 
408 ,76.4161 ,1.50818 ,-0.76214 ,-7.47812 
409 ,76.5924 ,1.50984 ,-0.77241 ,-7.57885 
410 ,76.7847 ,1.51172 ,-0.79636 ,-7.81390 
411 ,76.9767 ,1.51363 ,-0.77925 ,-7.64601 
412 ,77.1529 ,1.51542 ,-0.79978 ,-7.84748 
413 ,77.3610 ,1.51742 ,-0.81347 ,-7.98179 
414 ,77.5531 ,1.51936 ,-0.81689 ,-8.01537 
415 ,77.7447 ,1.52140 ,-0.84769 ,-8.31758 
416 ,77.9212 ,1.52316 ,-0.85454 ,-8.38473 
417 ,78.1292 ,1.52510 ,-0.87165 ,-8.55262 
418 ,78.3213 ,1.52707 ,-0.87507 ,-8.58620 
419 ,78.4974 ,1.52890 ,-0.88192 ,-8.65336 
420 ,78.6894 ,1.53073 ,-0.88534 ,-8.68694 
421 ,78.8655 ,1.53253 ,-0.91272 ,-8.95556 
422 ,79.0414 ,1.53431 ,-0.91956 ,-9.02272 
423 ,79.2337 ,1.53615 ,-0.91272 ,-8.95556 
424 ,79.4253 ,1.53809 ,-0.92298 ,-9.05630 
425 ,79.6178 ,1.53997 ,-0.93667 ,-9.19061 
426 ,79.8097 ,1.54202 ,-0.94351 ,-9.25777 
427 ,79.9858 ,1.54380 ,-0.98116 ,-9.62713 
428 ,80.1779 ,1.54559 ,-0.98116 ,-9.62713 
429 ,80.3705 ,1.54755 ,-0.98458 ,-9.66071 
430 ,80.5621 ,1.54953 ,-1.00511 ,-9.86218 
431 ,80.7543 ,1.55141 ,-1.00511 ,-9.86218 
432 ,80.9460 ,1.55330 ,-1.02222 ,-10.03007 
433 ,81.1384 ,1.55517 ,-1.03249 ,-10.13080 
434 ,81.3624 ,1.55735 ,-1.03934 ,-10.19796 
435 ,81.5707 ,1.55942 ,-1.04618 ,-10.26512 
436 ,81.7626 ,1.56149 ,-1.08725 ,-10.66806 
437 ,81.9706 ,1.56355 ,-1.07356 ,-10.53374 
438 ,82.1628 ,1.56544 ,-1.09409 ,-10.73521 
439 ,82.3549 ,1.56740 ,-1.07356 ,-10.53374 
440 ,82.5310 ,1.56916 ,-1.08382 ,-10.63448 
441 ,82.7230 ,1.57110 ,-1.11462 ,-10.93668 
442 ,82.9153 ,1.57304 ,-1.11805 ,-10.97026 
443 ,83.1068 ,1.57492 ,-1.10093 ,-10.80237 
444 ,83.2993 ,1.57678 ,-1.13173 ,-11.10457 
445 ,83.4915 ,1.57880 ,-1.11462 ,-10.93668 
446 ,83.6837 ,1.58075 ,-1.14200 ,-11.20531 
447 ,83.8759 ,1.58257 ,-1.13516 ,-11.13815 
448 ,84.0836 ,1.58464 ,-1.13858 ,-11.17173 
449 ,84.2597 ,1.58649 ,-1.16253 ,-11.40678 
450 ,84.4516 ,1.58833 ,-1.14884 ,-11.27247 
451 ,84.6277 ,1.59012 ,-1.15227 ,-11.30604 
452 ,84.8036 ,1.59193 ,-1.17964 ,-11.57467 
453 ,84.9957 ,1.59384 ,-1.20018 ,-11.77614 
454 ,85.1721 ,1.59562 ,-1.19333 ,-11.70898 
455 ,85.3478 ,1.59736 ,-1.19676 ,-11.74256 
456 ,85.5402 ,1.59926 ,-1.22413 ,-12.01119 
457 ,85.7323 ,1.60120 ,-1.21387 ,-11.91045 
458 ,85.9402 ,1.60311 ,-1.23440 ,-12.11192 
459 ,86.1324 ,1.60524 ,-1.22413 ,-12.01119 
460 ,86.3083 ,1.60693 ,-1.23098 ,-12.07834 
461 ,86.4846 ,1.60881 ,-1.26862 ,-12.44771 
