Data stamp = , 22-04-2022 06:07:45 903

Calibration Values: 
Slope = , 26.54 , g/V 
Offset Voltage at no contact = , -0.501760 , V 

No , Time , Stage Position ,   Mass , Force 
   ,  (s) ,      (mm)      ,   (g)  , (mN)  

1 ,0.0000 ,0.69951 ,5.32247 ,52.22410 
2 ,0.2041 ,0.69958 ,5.31563 ,52.15694 
3 ,0.6367 ,0.70095 ,5.31221 ,52.12337 
4 ,0.8443 ,0.70275 ,5.31221 ,52.12337 
5 ,1.0209 ,0.70450 ,5.32932 ,52.29126 
6 ,1.2289 ,0.70649 ,5.29167 ,51.92190 
7 ,1.4210 ,0.70834 ,5.33958 ,52.39199 
8 ,1.6132 ,0.71035 ,5.30878 ,52.08979 
9 ,1.8051 ,0.71229 ,5.32247 ,52.22410 
10 ,1.9812 ,0.71407 ,5.30878 ,52.08979 
11 ,2.1733 ,0.71597 ,5.28825 ,51.88832 
12 ,2.3652 ,0.71788 ,5.28825 ,51.88832 
13 ,2.5575 ,0.71976 ,5.27114 ,51.72043 
14 ,2.7337 ,0.72161 ,5.25745 ,51.58611 
15 ,2.9097 ,0.72337 ,5.23350 ,51.35107 
16 ,3.1013 ,0.72522 ,5.21639 ,51.18317 
17 ,3.2940 ,0.72713 ,5.18901 ,50.91455 
18 ,3.5019 ,0.72920 ,5.17874 ,50.81381 
19 ,3.6779 ,0.73101 ,5.16848 ,50.71308 
20 ,3.8536 ,0.73284 ,5.15136 ,50.54519 
21 ,4.0298 ,0.73456 ,5.12056 ,50.24298 
22 ,4.2219 ,0.73642 ,5.11372 ,50.17583 
23 ,4.3982 ,0.73828 ,5.10003 ,50.04151 
24 ,4.5743 ,0.74000 ,5.08634 ,49.90720 
25 ,4.7664 ,0.74185 ,5.05212 ,49.57142 
26 ,4.9585 ,0.74375 ,5.04528 ,49.50426 
27 ,5.1341 ,0.74564 ,5.02817 ,49.33637 
28 ,5.3107 ,0.74738 ,5.00079 ,49.06774 
29 ,5.5029 ,0.74926 ,5.00079 ,49.06774 
30 ,5.7108 ,0.75133 ,4.94946 ,48.56407 
31 ,5.9029 ,0.75324 ,4.96315 ,48.69838 
32 ,6.0949 ,0.75529 ,4.92550 ,48.32902 
33 ,6.2710 ,0.75698 ,4.90497 ,48.12755 
34 ,6.4470 ,0.75875 ,4.89812 ,48.06039 
35 ,6.6392 ,0.76063 ,4.89812 ,48.06039 
36 ,6.8153 ,0.76243 ,4.88786 ,47.95966 
37 ,7.0074 ,0.76433 ,4.85364 ,47.62387 
38 ,7.1830 ,0.76611 ,4.84679 ,47.55672 
39 ,7.3593 ,0.76790 ,4.81941 ,47.28809 
40 ,7.5356 ,0.76959 ,4.80915 ,47.18736 
41 ,7.7278 ,0.77157 ,4.78177 ,46.91873 
42 ,7.9038 ,0.77329 ,4.76808 ,46.78442 
43 ,8.0956 ,0.77513 ,4.76808 ,46.78442 
44 ,8.2719 ,0.77699 ,4.73386 ,46.44863 
45 ,8.4797 ,0.77898 ,4.73728 ,46.48221 
46 ,8.6878 ,0.78109 ,4.69964 ,46.11285 
47 ,8.8797 ,0.78294 ,4.67568 ,45.87780 
48 ,9.0560 ,0.78478 ,4.67911 ,45.91138 
49 ,9.2321 ,0.78663 ,4.65515 ,45.67633 
50 ,9.4239 ,0.78844 ,4.64146 ,45.54202 
51 ,9.6003 ,0.79021 ,4.63462 ,45.47486 
52 ,9.7604 ,0.79193 ,4.63462 ,45.47486 
53 ,9.9365 ,0.79365 ,4.59013 ,45.03835 
54 ,10.1286 ,0.79548 ,4.56960 ,44.83688 
55 ,10.3047 ,0.79727 ,4.55933 ,44.73614 
56 ,10.4802 ,0.79912 ,4.55591 ,44.70256 
57 ,10.6567 ,0.80080 ,4.54564 ,44.60183 
58 ,10.8646 ,0.80284 ,4.51484 ,44.29962 
59 ,11.0571 ,0.80475 ,4.51484 ,44.29962 
60 ,11.2330 ,0.80666 ,4.46351 ,43.79595 
61 ,11.4412 ,0.80852 ,4.46009 ,43.76237 
62 ,11.6172 ,0.81036 ,4.46351 ,43.79595 
63 ,11.7934 ,0.81214 ,4.46009 ,43.76237 
64 ,12.0015 ,0.81418 ,4.42586 ,43.42659 
65 ,12.1935 ,0.81614 ,4.39507 ,43.12438 
66 ,12.3695 ,0.81794 ,4.38138 ,42.99007 
67 ,12.5454 ,0.81967 ,4.35058 ,42.68786 
68 ,12.7695 ,0.82176 ,4.34716 ,42.65429 
69 ,12.9777 ,0.82396 ,4.33689 ,42.55355 
70 ,13.1539 ,0.82575 ,4.32662 ,42.45282 
71 ,13.3650 ,0.82780 ,4.30267 ,42.21777 
72 ,13.5701 ,0.82986 ,4.27871 ,41.98272 
73 ,13.7620 ,0.83183 ,4.26502 ,41.84841 
74 ,13.9539 ,0.83374 ,4.25133 ,41.71409 
75 ,14.1299 ,0.83550 ,4.22053 ,41.41189 
76 ,14.2900 ,0.83723 ,4.20342 ,41.24400 
77 ,14.4661 ,0.83887 ,4.19316 ,41.14326 
78 ,14.6583 ,0.84083 ,4.18974 ,41.10968 
79 ,14.8345 ,0.84264 ,4.16920 ,40.90821 
80 ,15.0263 ,0.84454 ,4.15551 ,40.77390 
81 ,15.2345 ,0.84642 ,4.15209 ,40.74032 
82 ,15.4105 ,0.84834 ,4.12129 ,40.43812 
83 ,15.5868 ,0.85012 ,4.09734 ,40.20307 
84 ,15.7625 ,0.85182 ,4.07680 ,40.00160 
85 ,15.9551 ,0.85373 ,4.08365 ,40.06876 
86 ,16.1470 ,0.85569 ,4.06654 ,39.90087 
87 ,16.3391 ,0.85752 ,4.04600 ,39.69940 
88 ,16.5311 ,0.85951 ,4.03232 ,39.56508 
89 ,16.7232 ,0.86142 ,4.00494 ,39.29646 
90 ,16.8989 ,0.86324 ,3.99125 ,39.16214 
91 ,17.0752 ,0.86493 ,3.97756 ,39.02783 
92 ,17.2514 ,0.86674 ,3.95703 ,38.82636 
93 ,17.4275 ,0.86851 ,3.94676 ,38.72562 
94 ,17.6037 ,0.87026 ,3.92281 ,38.49058 
95 ,17.7959 ,0.87210 ,3.91254 ,38.38984 
96 ,18.0038 ,0.87417 ,3.88516 ,38.12122 
97 ,18.2114 ,0.87615 ,3.88516 ,38.12122 
98 ,18.3879 ,0.87809 ,3.85779 ,37.85259 
99 ,18.5641 ,0.87984 ,3.82356 ,37.51681 
100 ,18.7559 ,0.88172 ,3.84067 ,37.68470 
101 ,18.9482 ,0.88357 ,3.82356 ,37.51681 
102 ,19.1402 ,0.88564 ,3.79276 ,37.21460 
103 ,19.3482 ,0.88762 ,3.77908 ,37.08029 
104 ,19.5404 ,0.88949 ,3.75854 ,36.87882 
105 ,19.7164 ,0.89144 ,3.74143 ,36.71093 
106 ,19.9085 ,0.89326 ,3.72774 ,36.57661 
107 ,20.1000 ,0.89513 ,3.70721 ,36.37514 
108 ,20.2765 ,0.89697 ,3.68668 ,36.17367 
109 ,20.4526 ,0.89874 ,3.69010 ,36.20725 
110 ,20.6447 ,0.90055 ,3.65930 ,35.90505 
111 ,20.8207 ,0.90240 ,3.62850 ,35.60284 
112 ,20.9969 ,0.90415 ,3.62166 ,35.53569 
113 ,21.2047 ,0.90615 ,3.60797 ,35.40137 
114 ,21.3811 ,0.90804 ,3.59428 ,35.26706 
115 ,21.5731 ,0.90985 ,3.59428 ,35.26706 
116 ,21.7812 ,0.91186 ,3.56690 ,34.99843 
117 ,21.9574 ,0.91381 ,3.53952 ,34.72981 
118 ,22.1494 ,0.91558 ,3.52584 ,34.59549 
119 ,22.3415 ,0.91755 ,3.50872 ,34.42760 
120 ,22.5495 ,0.91963 ,3.50872 ,34.42760 
121 ,22.7255 ,0.92144 ,3.47792 ,34.12540 
122 ,22.9337 ,0.92339 ,3.45055 ,33.85677 
123 ,23.1256 ,0.92539 ,3.44370 ,33.78961 
124 ,23.3015 ,0.92721 ,3.42659 ,33.62172 
125 ,23.4780 ,0.92900 ,3.40948 ,33.45383 
126 ,23.6700 ,0.93091 ,3.40606 ,33.42025 
127 ,23.8621 ,0.93282 ,3.38210 ,33.18520 
128 ,24.0382 ,0.93456 ,3.35130 ,32.88300 
129 ,24.2458 ,0.93655 ,3.35473 ,32.91658 
130 ,24.4222 ,0.93839 ,3.31708 ,32.54722 
131 ,24.5986 ,0.94018 ,3.31366 ,32.51364 
132 ,24.8065 ,0.94208 ,3.28971 ,32.27859 
133 ,24.9827 ,0.94404 ,3.27602 ,32.14428 
134 ,25.1748 ,0.94588 ,3.27602 ,32.14428 
135 ,25.3665 ,0.94789 ,3.26917 ,32.07712 
136 ,25.5749 ,0.94990 ,3.23153 ,31.70776 
137 ,25.7670 ,0.95186 ,3.21442 ,31.53987 
138 ,25.9591 ,0.95371 ,3.19388 ,31.33840 
139 ,26.1512 ,0.95560 ,3.20073 ,31.40555 
140 ,26.3433 ,0.95756 ,3.15282 ,30.93546 
141 ,26.5188 ,0.95949 ,3.14255 ,30.83472 
142 ,26.7115 ,0.96121 ,3.13913 ,30.80115 
143 ,26.9035 ,0.96320 ,3.10833 ,30.49894 
144 ,27.0954 ,0.96505 ,3.09122 ,30.33105 
145 ,27.2716 ,0.96688 ,3.09122 ,30.33105 
146 ,27.4477 ,0.96863 ,3.07753 ,30.19674 
147 ,27.6393 ,0.97063 ,3.05015 ,29.92811 
148 ,27.8158 ,0.97229 ,3.02962 ,29.72664 
149 ,27.9920 ,0.97411 ,3.02620 ,29.69306 
150 ,28.1842 ,0.97602 ,3.02278 ,29.65948 
151 ,28.3601 ,0.97780 ,2.98513 ,29.29012 
152 ,28.5519 ,0.97971 ,2.98171 ,29.25654 
153 ,28.7440 ,0.98158 ,2.96460 ,29.08865 
154 ,28.9361 ,0.98354 ,2.93722 ,28.82003 
155 ,29.1284 ,0.98544 ,2.92353 ,28.68571 
156 ,29.3363 ,0.98747 ,2.88931 ,28.34993 
157 ,29.5445 ,0.98955 ,2.88247 ,28.28277 
158 ,29.7201 ,0.99147 ,2.86878 ,28.14846 
159 ,29.8968 ,0.99318 ,2.84482 ,27.91341 
160 ,30.0885 ,0.99504 ,2.84825 ,27.94699 
161 ,30.2806 ,0.99694 ,2.81402 ,27.61121 
162 ,30.4725 ,0.99879 ,2.81402 ,27.61121 
163 ,30.6490 ,1.00066 ,2.79007 ,27.37616 
164 ,30.8408 ,1.00251 ,2.76954 ,27.17469 
165 ,31.0330 ,1.00445 ,2.75585 ,27.04038 
166 ,31.2091 ,1.00628 ,2.74900 ,26.97322 
167 ,31.4012 ,1.00809 ,2.71820 ,26.67101 
168 ,31.5773 ,1.00991 ,2.71136 ,26.60386 
169 ,31.7852 ,1.01198 ,2.71136 ,26.60386 
170 ,31.9775 ,1.01388 ,2.66003 ,26.10018 
171 ,32.1852 ,1.01599 ,2.67029 ,26.20092 
172 ,32.3776 ,1.01783 ,2.64976 ,25.99945 
173 ,32.5858 ,1.01994 ,2.64634 ,25.96587 
174 ,32.7777 ,1.02197 ,2.61554 ,25.66367 
175 ,32.9538 ,1.02366 ,2.58132 ,25.32788 
176 ,33.1299 ,1.02545 ,2.57447 ,25.26073 
177 ,33.3219 ,1.02730 ,2.56763 ,25.19357 
178 ,33.4981 ,1.02912 ,2.54367 ,24.95852 
179 ,33.6903 ,1.03103 ,2.54367 ,24.95852 
180 ,33.8983 ,1.03303 ,2.50945 ,24.62274 
181 ,34.0901 ,1.03505 ,2.49918 ,24.52200 
182 ,34.2823 ,1.03698 ,2.49576 ,24.48842 
183 ,34.4741 ,1.03883 ,2.45812 ,24.11906 
184 ,34.6506 ,1.04068 ,2.46154 ,24.15264 
185 ,34.8427 ,1.04256 ,2.45470 ,24.08549 
186 ,35.0342 ,1.04446 ,2.41363 ,23.68255 
187 ,35.2268 ,1.04632 ,2.42732 ,23.81686 
188 ,35.4344 ,1.04849 ,2.39652 ,23.51465 
189 ,35.6110 ,1.05024 ,2.36914 ,23.24603 
190 ,35.8030 ,1.05214 ,2.36914 ,23.24603 
191 ,35.9950 ,1.05402 ,2.33834 ,22.94382 
192 ,36.1711 ,1.05584 ,2.31781 ,22.74235 
193 ,36.3472 ,1.05765 ,2.31781 ,22.74235 
194 ,36.5714 ,1.05964 ,2.28701 ,22.44015 
195 ,36.7632 ,1.06170 ,2.28359 ,22.40657 
196 ,36.9554 ,1.06362 ,2.26990 ,22.27226 
197 ,37.1631 ,1.06569 ,2.24937 ,22.07079 
198 ,37.3396 ,1.06754 ,2.24937 ,22.07079 
199 ,37.4996 ,1.06925 ,2.21172 ,21.70143 
200 ,37.6918 ,1.07098 ,2.20488 ,21.63427 
201 ,37.8679 ,1.07285 ,2.18435 ,21.43280 
202 ,38.0600 ,1.07476 ,2.18092 ,21.39922 
203 ,38.2517 ,1.07658 ,2.15012 ,21.09702 
204 ,38.4442 ,1.07852 ,2.16039 ,21.19775 
205 ,38.6360 ,1.08043 ,2.11248 ,20.72766 
206 ,38.8283 ,1.08242 ,2.10564 ,20.66050 
207 ,39.0204 ,1.08429 ,2.09537 ,20.55976 
208 ,39.1964 ,1.08614 ,2.08510 ,20.45903 
209 ,39.3884 ,1.08802 ,2.06457 ,20.25756 
210 ,39.5645 ,1.08976 ,2.04746 ,20.08967 
211 ,39.7404 ,1.09158 ,2.04404 ,20.05609 
212 ,39.9486 ,1.09350 ,2.01324 ,19.75388 
213 ,40.1567 ,1.09560 ,1.99270 ,19.55241 
214 ,40.3327 ,1.09750 ,1.98244 ,19.45168 
215 ,40.5086 ,1.09919 ,1.96190 ,19.25021 
216 ,40.7010 ,1.10107 ,1.96533 ,19.28379 
217 ,40.8930 ,1.10301 ,1.93453 ,18.98158 
218 ,41.0688 ,1.10483 ,1.91742 ,18.81369 
219 ,41.2447 ,1.10663 ,1.91399 ,18.78011 
220 ,41.4212 ,1.10833 ,1.91399 ,18.78011 
221 ,41.6131 ,1.11031 ,1.87293 ,18.37717 
222 ,41.7733 ,1.11195 ,1.85582 ,18.20928 
223 ,41.9494 ,1.11362 ,1.84555 ,18.10855 
224 ,42.1254 ,1.11534 ,1.85582 ,18.20928 
225 ,42.3015 ,1.11710 ,1.82844 ,17.94066 
226 ,42.4776 ,1.11886 ,1.80791 ,17.73919 
227 ,42.6857 ,1.12088 ,1.78737 ,17.53772 
228 ,42.8775 ,1.12283 ,1.78395 ,17.50414 
229 ,43.0539 ,1.12468 ,1.76684 ,17.33625 
230 ,43.2456 ,1.12649 ,1.75657 ,17.23551 
231 ,43.4540 ,1.12861 ,1.72578 ,16.93331 
232 ,43.6299 ,1.13041 ,1.70866 ,16.76542 
233 ,43.8221 ,1.13232 ,1.71893 ,16.86615 
234 ,43.9983 ,1.13411 ,1.70182 ,16.69826 
235 ,44.1743 ,1.13586 ,1.67444 ,16.42963 
236 ,44.3501 ,1.13764 ,1.66760 ,16.36248 
237 ,44.5584 ,1.13965 ,1.65733 ,16.26174 
238 ,44.7342 ,1.14151 ,1.62995 ,15.99311 
239 ,44.9266 ,1.14331 ,1.61969 ,15.89238 
240 ,45.1505 ,1.14551 ,1.60258 ,15.72449 
241 ,45.3266 ,1.14734 ,1.58547 ,15.55660 
242 ,45.5026 ,1.14915 ,1.58204 ,15.52302 
243 ,45.6953 ,1.15102 ,1.55467 ,15.25439 
244 ,45.8710 ,1.15288 ,1.55809 ,15.28797 
245 ,46.0470 ,1.15456 ,1.52387 ,14.95219 
246 ,46.2231 ,1.15632 ,1.53071 ,15.01934 
247 ,46.4152 ,1.15825 ,1.51360 ,14.85145 
248 ,46.5914 ,1.16005 ,1.49649 ,14.68356 
249 ,46.7995 ,1.16198 ,1.49307 ,14.64998 
250 ,46.9752 ,1.16383 ,1.47938 ,14.51567 
251 ,47.1514 ,1.16561 ,1.45542 ,14.28062 
252 ,47.3276 ,1.16733 ,1.43831 ,14.11273 
253 ,47.5037 ,1.16921 ,1.43831 ,14.11273 
254 ,47.6795 ,1.17088 ,1.43147 ,14.04557 
255 ,47.8719 ,1.17282 ,1.39040 ,13.64263 
256 ,48.0640 ,1.17472 ,1.39040 ,13.64263 
257 ,48.2721 ,1.17676 ,1.35960 ,13.34043 
258 ,48.4638 ,1.17871 ,1.36303 ,13.37401 
259 ,48.6558 ,1.18056 ,1.33907 ,13.13896 
260 ,48.8320 ,1.18241 ,1.32880 ,13.03822 
261 ,49.0239 ,1.18426 ,1.32538 ,13.00465 
262 ,49.1999 ,1.18607 ,1.30485 ,12.80318 
263 ,49.3919 ,1.18792 ,1.28089 ,12.56813 
264 ,49.5840 ,1.18988 ,1.27063 ,12.46739 
265 ,49.7764 ,1.19180 ,1.25694 ,12.33308 
266 ,50.0008 ,1.19400 ,1.22272 ,11.99730 
267 ,50.1929 ,1.19604 ,1.21929 ,11.96372 
268 ,50.4005 ,1.19798 ,1.20903 ,11.86298 
269 ,50.5769 ,1.19987 ,1.21929 ,11.96372 
270 ,50.7686 ,1.20175 ,1.18507 ,11.62794 
271 ,50.9605 ,1.20365 ,1.16796 ,11.46004 
272 ,51.1368 ,1.20547 ,1.16796 ,11.46004 
273 ,51.3287 ,1.20735 ,1.14058 ,11.19142 
274 ,51.4888 ,1.20907 ,1.11321 ,10.92279 
275 ,51.6650 ,1.21070 ,1.12347 ,11.02353 
276 ,51.8408 ,1.21248 ,1.10636 ,10.85563 
277 ,52.0176 ,1.21428 ,1.11321 ,10.92279 
278 ,52.2096 ,1.21618 ,1.07899 ,10.58701 
279 ,52.4016 ,1.21806 ,1.07556 ,10.55343 
280 ,52.5937 ,1.21999 ,1.05845 ,10.38554 
281 ,52.7857 ,1.22197 ,1.02081 ,10.01618 
282 ,52.9619 ,1.22369 ,1.03792 ,10.18407 
283 ,53.1540 ,1.22562 ,1.03450 ,10.15049 
284 ,53.3456 ,1.22748 ,0.99685 ,9.78113 
285 ,53.5380 ,1.22939 ,1.00370 ,9.84829 
286 ,53.7462 ,1.23149 ,0.96948 ,9.51250 
287 ,53.9382 ,1.23349 ,0.97290 ,9.54608 
288 ,54.1144 ,1.23518 ,0.94894 ,9.31103 
289 ,54.3064 ,1.23706 ,0.92841 ,9.10956 
290 ,54.4820 ,1.23897 ,0.93183 ,9.14314 
291 ,54.6585 ,1.24066 ,0.91814 ,9.00883 
292 ,54.8344 ,1.24236 ,0.90446 ,8.87451 
293 ,55.0103 ,1.24420 ,0.89761 ,8.80736 
294 ,55.2024 ,1.24604 ,0.87708 ,8.60589 
295 ,55.3789 ,1.24787 ,0.87023 ,8.53873 
296 ,55.5545 ,1.24966 ,0.84628 ,8.30368 
297 ,55.7310 ,1.25137 ,0.83601 ,8.20295 
298 ,55.9228 ,1.25326 ,0.81890 ,8.03506 
299 ,56.1150 ,1.25512 ,0.79837 ,7.83359 
300 ,56.3068 ,1.25705 ,0.78468 ,7.69927 
301 ,56.4832 ,1.25888 ,0.77441 ,7.59854 
302 ,56.6913 ,1.26082 ,0.75388 ,7.39707 
303 ,56.8994 ,1.26297 ,0.76757 ,7.53138 
304 ,57.0753 ,1.26479 ,0.75388 ,7.39707 
305 ,57.2835 ,1.26691 ,0.72308 ,7.09486 
306 ,57.4596 ,1.26866 ,0.72650 ,7.12844 
307 ,57.6354 ,1.27043 ,0.70939 ,6.96055 
308 ,57.8278 ,1.27236 ,0.67175 ,6.59119 
309 ,58.0199 ,1.27424 ,0.66490 ,6.52403 
310 ,58.2119 ,1.27612 ,0.64779 ,6.35614 
311 ,58.4040 ,1.27815 ,0.65464 ,6.42330 
312 ,58.5801 ,1.27984 ,0.63068 ,6.18825 
313 ,58.7717 ,1.28175 ,0.61699 ,6.05394 
314 ,58.9482 ,1.28357 ,0.61015 ,5.98678 
315 ,59.1243 ,1.28535 ,0.60673 ,5.95320 
316 ,59.3005 ,1.28705 ,0.57593 ,5.65100 
317 ,59.4923 ,1.28902 ,0.55882 ,5.48311 
318 ,59.6844 ,1.29083 ,0.55539 ,5.44953 
319 ,59.8767 ,1.29272 ,0.54855 ,5.38237 
320 ,60.0527 ,1.29454 ,0.53486 ,5.24806 
321 ,60.2128 ,1.29628 ,0.51433 ,5.04659 
322 ,60.3889 ,1.29797 ,0.50406 ,4.94585 
323 ,60.5807 ,1.29989 ,0.49722 ,4.87870 
324 ,60.7731 ,1.30171 ,0.50064 ,4.91228 
325 ,60.9647 ,1.30361 ,0.47668 ,4.67723 
326 ,61.1408 ,1.30543 ,0.45615 ,4.47576 
327 ,61.3008 ,1.30717 ,0.45957 ,4.50934 
328 ,61.4610 ,1.30880 ,0.42877 ,4.20713 
329 ,61.6210 ,1.31039 ,0.41851 ,4.10640 
330 ,61.7971 ,1.31203 ,0.40824 ,4.00566 
331 ,61.9732 ,1.31375 ,0.40824 ,4.00566 
332 ,62.1491 ,1.31560 ,0.37402 ,3.66988 
333 ,62.3253 ,1.31727 ,0.37060 ,3.63630 
334 ,62.5014 ,1.31902 ,0.35691 ,3.50199 
335 ,62.6775 ,1.32082 ,0.35691 ,3.50199 
336 ,62.8535 ,1.32257 ,0.35006 ,3.43483 
337 ,63.0296 ,1.32432 ,0.33980 ,3.33410 
338 ,63.2217 ,1.32619 ,0.31242 ,3.06547 
339 ,63.3979 ,1.32802 ,0.31242 ,3.06547 
340 ,63.5738 ,1.32974 ,0.28847 ,2.83042 
341 ,63.7498 ,1.33152 ,0.28162 ,2.76326 
342 ,63.9260 ,1.33331 ,0.26793 ,2.62895 
343 ,64.1020 ,1.33502 ,0.24055 ,2.36032 
344 ,64.2940 ,1.33688 ,0.25424 ,2.49464 
345 ,64.4702 ,1.33874 ,0.22687 ,2.22601 
346 ,64.6302 ,1.34046 ,0.21318 ,2.09170 
347 ,64.8064 ,1.34207 ,0.20633 ,2.02454 
348 ,64.9823 ,1.34384 ,0.18922 ,1.85665 
349 ,65.1583 ,1.34563 ,0.17211 ,1.68876 
350 ,65.3345 ,1.34734 ,0.17211 ,1.68876 
351 ,65.4947 ,1.34910 ,0.16527 ,1.62160 
352 ,65.6712 ,1.35076 ,0.15158 ,1.48729 
353 ,65.8792 ,1.35270 ,0.14131 ,1.38655 
354 ,66.0712 ,1.35471 ,0.12078 ,1.18508 
355 ,66.2473 ,1.35652 ,0.11051 ,1.08435 
356 ,66.4393 ,1.35835 ,0.10367 ,1.01719 
357 ,66.6316 ,1.36028 ,0.08656 ,0.84930 
358 ,66.8236 ,1.36217 ,0.06602 ,0.64783 
359 ,66.9998 ,1.36402 ,0.05576 ,0.54710 
360 ,67.1919 ,1.36589 ,0.05918 ,0.58067 
361 ,67.3674 ,1.36774 ,0.02838 ,0.27847 
362 ,67.5438 ,1.36943 ,0.01127 ,0.11058 
363 ,67.7200 ,1.37122 ,0.01469 ,0.14416 
364 ,67.8960 ,1.37299 ,0.00785 ,0.07700 
365 ,68.0880 ,1.37493 ,-0.01953 ,-0.19163 
366 ,68.2640 ,1.37665 ,-0.04006 ,-0.39310 
367 ,68.4400 ,1.37844 ,-0.04691 ,-0.46025 
368 ,68.6323 ,1.38029 ,-0.04006 ,-0.39310 
369 ,68.8244 ,1.38223 ,-0.07771 ,-0.76246 
370 ,69.0005 ,1.38401 ,-0.08113 ,-0.79604 
371 ,69.1765 ,1.38580 ,-0.07771 ,-0.76246 
372 ,69.3686 ,1.38759 ,-0.09824 ,-0.96393 
373 ,69.5603 ,1.38950 ,-0.11535 ,-1.13182 
374 ,69.7527 ,1.39150 ,-0.10166 ,-0.99751 
375 ,69.9448 ,1.39345 ,-0.14615 ,-1.43402 
376 ,70.1210 ,1.39522 ,-0.14273 ,-1.40045 
377 ,70.2971 ,1.39701 ,-0.14957 ,-1.46760 
378 ,70.4890 ,1.39886 ,-0.16668 ,-1.63549 
379 ,70.6651 ,1.40068 ,-0.17011 ,-1.66907 
380 ,70.8573 ,1.40252 ,-0.17353 ,-1.70265 
381 ,71.0652 ,1.40460 ,-0.19748 ,-1.93770 
382 ,71.2574 ,1.40650 ,-0.20090 ,-1.97128 
383 ,71.4495 ,1.40849 ,-0.21117 ,-2.07201 
384 ,71.6415 ,1.41036 ,-0.22144 ,-2.17275 
385 ,71.8176 ,1.41215 ,-0.23170 ,-2.27348 
386 ,71.9939 ,1.41393 ,-0.22828 ,-2.23990 
387 ,72.1857 ,1.41578 ,-0.24881 ,-2.44137 
388 ,72.3618 ,1.41760 ,-0.26935 ,-2.64284 
389 ,72.5376 ,1.41938 ,-0.28304 ,-2.77716 
390 ,72.7141 ,1.42116 ,-0.27619 ,-2.71000 
391 ,72.9059 ,1.42306 ,-0.27961 ,-2.74358 
392 ,73.0982 ,1.42501 ,-0.31041 ,-3.04578 
393 ,73.2903 ,1.42692 ,-0.31384 ,-3.07936 
394 ,73.4823 ,1.42880 ,-0.32410 ,-3.18010 
395 ,73.6582 ,1.43061 ,-0.34464 ,-3.38156 
396 ,73.8502 ,1.43252 ,-0.34121 ,-3.34799 
397 ,74.0260 ,1.43426 ,-0.34121 ,-3.34799 
398 ,74.2021 ,1.43598 ,-0.37201 ,-3.65019 
399 ,74.3783 ,1.43778 ,-0.40281 ,-3.95240 
400 ,74.5542 ,1.43954 ,-0.40623 ,-3.98597 
401 ,74.7468 ,1.44138 ,-0.40966 ,-4.01955 
402 ,74.9545 ,1.44352 ,-0.41650 ,-4.08671 
403 ,75.1469 ,1.44543 ,-0.42677 ,-4.18744 
404 ,75.3390 ,1.44737 ,-0.44388 ,-4.35534 
405 ,75.5312 ,1.44931 ,-0.44388 ,-4.35534 
406 ,75.7391 ,1.45135 ,-0.47468 ,-4.65754 
407 ,75.9151 ,1.45314 ,-0.47810 ,-4.69112 
408 ,76.1070 ,1.45499 ,-0.48152 ,-4.72470 
409 ,76.2994 ,1.45687 ,-0.49179 ,-4.82543 
410 ,76.4755 ,1.45875 ,-0.49863 ,-4.89259 
411 ,76.6514 ,1.46050 ,-0.51574 ,-5.06048 
412 ,76.8276 ,1.46221 ,-0.52601 ,-5.16121 
413 ,77.0038 ,1.46401 ,-0.55339 ,-5.42984 
414 ,77.2119 ,1.46594 ,-0.55339 ,-5.42984 
415 ,77.4040 ,1.46804 ,-0.56708 ,-5.56415 
416 ,77.5958 ,1.46986 ,-0.58077 ,-5.69847 
417 ,77.7721 ,1.47172 ,-0.58077 ,-5.69847 
418 ,77.9641 ,1.47363 ,-0.59788 ,-5.86636 
419 ,78.1400 ,1.47540 ,-0.62525 ,-6.13499 
420 ,78.3322 ,1.47728 ,-0.60814 ,-5.96709 
421 ,78.5402 ,1.47935 ,-0.64579 ,-6.33646 
422 ,78.7164 ,1.48110 ,-0.64579 ,-6.33646 
423 ,78.9085 ,1.48303 ,-0.64579 ,-6.33646 
424 ,79.1166 ,1.48505 ,-0.67316 ,-6.60508 
425 ,79.2922 ,1.48694 ,-0.67316 ,-6.60508 
426 ,79.4522 ,1.48860 ,-0.68685 ,-6.73940 
427 ,79.6286 ,1.49023 ,-0.69712 ,-6.84013 
428 ,79.8048 ,1.49201 ,-0.70054 ,-6.87371 
429 ,80.0129 ,1.49407 ,-0.71081 ,-6.97444 
430 ,80.2047 ,1.49593 ,-0.73476 ,-7.20949 
431 ,80.3811 ,1.49786 ,-0.73476 ,-7.20949 
432 ,80.5570 ,1.49950 ,-0.75187 ,-7.37738 
433 ,80.7330 ,1.50131 ,-0.76214 ,-7.47812 
434 ,80.9252 ,1.50315 ,-0.76214 ,-7.47812 
435 ,81.1009 ,1.50501 ,-0.78610 ,-7.71317 
436 ,81.2931 ,1.50682 ,-0.79294 ,-7.78032 
437 ,81.4689 ,1.50875 ,-0.79636 ,-7.81390 
438 ,81.6451 ,1.51038 ,-0.79978 ,-7.84748 
439 ,81.8376 ,1.51232 ,-0.82374 ,-8.08253 
440 ,82.0454 ,1.51436 ,-0.82716 ,-8.11611 
441 ,82.2218 ,1.51616 ,-0.83401 ,-8.18326 
442 ,82.3981 ,1.51794 ,-0.85796 ,-8.41831 
443 ,82.6057 ,1.51992 ,-0.85454 ,-8.38473 
444 ,82.7820 ,1.52179 ,-0.86138 ,-8.45189 
445 ,82.9742 ,1.52363 ,-0.86823 ,-8.51904 
446 ,83.1662 ,1.52557 ,-0.88534 ,-8.68694 
447 ,83.3421 ,1.52740 ,-0.87849 ,-8.61978 
448 ,83.5343 ,1.52928 ,-0.89560 ,-8.78767 
449 ,83.7263 ,1.53113 ,-0.89218 ,-8.75409 
450 ,83.9186 ,1.53317 ,-0.91614 ,-8.98914 
451 ,84.1105 ,1.53495 ,-0.90245 ,-8.85483 
452 ,84.3027 ,1.53691 ,-0.91956 ,-9.02272 
453 ,84.4947 ,1.53884 ,-0.95036 ,-9.32492 
454 ,84.6865 ,1.54086 ,-0.94694 ,-9.29135 
455 ,84.8629 ,1.54263 ,-0.95036 ,-9.32492 
456 ,85.0546 ,1.54446 ,-0.96747 ,-9.49282 
457 ,85.2311 ,1.54628 ,-0.96405 ,-9.45924 
458 ,85.4232 ,1.54819 ,-0.98116 ,-9.62713 
459 ,85.6153 ,1.55005 ,-0.98458 ,-9.66071 
460 ,85.8074 ,1.55199 ,-0.98800 ,-9.69429 
461 ,85.9990 ,1.55393 ,-1.02565 ,-10.06365 
462 ,86.1753 ,1.55568 ,-1.02565 ,-10.06365 
