Data stamp = , 21-04-2022 23:12:38 717

Calibration Values: 
Slope = , 26.54 , g/V 
Offset Voltage at no contact = , -0.501760 , V 

No , Time , Stage Position ,   Mass , Force 
   ,  (s) ,      (mm)      ,   (g)  , (mN)  

1 ,0.0000 ,0.69942 ,5.37381 ,52.72778 
2 ,0.2142 ,0.69951 ,5.38065 ,52.79493 
3 ,0.5348 ,0.70034 ,5.37723 ,52.76135 
4 ,0.7269 ,0.70174 ,5.36354 ,52.62704 
5 ,0.9190 ,0.70331 ,5.36012 ,52.59346 
6 ,1.1111 ,0.70530 ,5.37723 ,52.76135 
7 ,1.3192 ,0.70728 ,5.37381 ,52.72778 
8 ,1.5111 ,0.70919 ,5.38065 ,52.79493 
9 ,1.7033 ,0.71113 ,5.36012 ,52.59346 
10 ,1.8793 ,0.71304 ,5.38065 ,52.79493 
11 ,2.0554 ,0.71474 ,5.35669 ,52.55988 
12 ,2.2311 ,0.71648 ,5.35669 ,52.55988 
13 ,2.4236 ,0.71836 ,5.31905 ,52.19052 
14 ,2.6315 ,0.72041 ,5.31905 ,52.19052 
15 ,2.8237 ,0.72241 ,5.28483 ,51.85474 
16 ,3.0158 ,0.72430 ,5.27114 ,51.72043 
17 ,3.1916 ,0.72607 ,5.28141 ,51.82116 
18 ,3.3840 ,0.72799 ,5.24376 ,51.45180 
19 ,3.5601 ,0.72975 ,5.22323 ,51.25033 
20 ,3.7520 ,0.73163 ,5.20954 ,51.11602 
21 ,3.9437 ,0.73354 ,5.19243 ,50.94813 
22 ,4.1199 ,0.73535 ,5.16505 ,50.67950 
23 ,4.2802 ,0.73712 ,5.16505 ,50.67950 
24 ,4.4882 ,0.73889 ,5.14452 ,50.47803 
25 ,4.6807 ,0.74099 ,5.12056 ,50.24298 
26 ,4.8726 ,0.74287 ,5.11714 ,50.20940 
27 ,5.0487 ,0.74467 ,5.09319 ,49.97436 
28 ,5.2408 ,0.74653 ,5.08634 ,49.90720 
29 ,5.4169 ,0.74834 ,5.06239 ,49.67215 
30 ,5.6248 ,0.75034 ,5.03501 ,49.40352 
31 ,5.8170 ,0.75229 ,5.02817 ,49.33637 
32 ,6.0250 ,0.75437 ,4.99394 ,49.00058 
33 ,6.2173 ,0.75630 ,5.00763 ,49.13490 
34 ,6.4250 ,0.75834 ,4.98026 ,48.86627 
35 ,6.6332 ,0.76042 ,4.95630 ,48.63122 
36 ,6.8092 ,0.76224 ,4.92892 ,48.36260 
37 ,7.0015 ,0.76408 ,4.92550 ,48.32902 
38 ,7.1772 ,0.76600 ,4.90155 ,48.09397 
39 ,7.3694 ,0.76788 ,4.88101 ,47.89250 
40 ,7.5774 ,0.76990 ,4.87417 ,47.82534 
41 ,7.7538 ,0.77170 ,4.85021 ,47.59030 
42 ,7.9616 ,0.77371 ,4.82626 ,47.35525 
43 ,8.1538 ,0.77571 ,4.81599 ,47.25451 
44 ,8.3780 ,0.77781 ,4.79546 ,47.05304 
45 ,8.5862 ,0.77998 ,4.77150 ,46.81800 
46 ,8.7618 ,0.78182 ,4.77150 ,46.81800 
47 ,8.9382 ,0.78351 ,4.74755 ,46.58295 
48 ,9.1141 ,0.78530 ,4.72702 ,46.38148 
49 ,9.3222 ,0.78730 ,4.72017 ,46.31432 
50 ,9.4983 ,0.78912 ,4.70306 ,46.14643 
51 ,9.6906 ,0.79106 ,4.67911 ,45.91138 
52 ,9.8825 ,0.79290 ,4.65515 ,45.67633 
53 ,10.0587 ,0.79472 ,4.64831 ,45.60918 
54 ,10.2347 ,0.79648 ,4.63119 ,45.44128 
55 ,10.4108 ,0.79830 ,4.60724 ,45.20624 
56 ,10.5870 ,0.80002 ,4.59697 ,45.10550 
57 ,10.7950 ,0.80208 ,4.58671 ,45.00477 
58 ,10.9871 ,0.80408 ,4.55591 ,44.70256 
59 ,11.1787 ,0.80590 ,4.54564 ,44.60183 
60 ,11.3548 ,0.80772 ,4.53880 ,44.53467 
61 ,11.5308 ,0.80947 ,4.52511 ,44.40036 
62 ,11.7069 ,0.81122 ,4.49431 ,44.09815 
63 ,11.8831 ,0.81297 ,4.46351 ,43.79595 
64 ,12.0752 ,0.81483 ,4.46693 ,43.82953 
65 ,12.2511 ,0.81665 ,4.44640 ,43.62806 
66 ,12.4273 ,0.81842 ,4.43271 ,43.49374 
67 ,12.6033 ,0.82017 ,4.40191 ,43.19154 
68 ,12.7793 ,0.82189 ,4.38822 ,43.05723 
69 ,12.9554 ,0.82366 ,4.39164 ,43.09080 
70 ,13.1314 ,0.82549 ,4.37795 ,42.95649 
71 ,13.3076 ,0.82719 ,4.34716 ,42.65429 
72 ,13.4838 ,0.82897 ,4.32662 ,42.45282 
73 ,13.6596 ,0.83075 ,4.32320 ,42.41924 
74 ,13.8357 ,0.83250 ,4.32320 ,42.41924 
75 ,14.0118 ,0.83422 ,4.30609 ,42.25135 
76 ,14.1881 ,0.83595 ,4.27529 ,41.94914 
77 ,14.3799 ,0.83802 ,4.26160 ,41.81483 
78 ,14.5561 ,0.83968 ,4.25818 ,41.78125 
79 ,14.7161 ,0.84142 ,4.24107 ,41.61336 
80 ,14.8922 ,0.84304 ,4.21711 ,41.37831 
81 ,15.0683 ,0.84480 ,4.19316 ,41.14326 
82 ,15.2442 ,0.84658 ,4.17947 ,41.00895 
83 ,15.4202 ,0.84830 ,4.15894 ,40.80748 
84 ,15.5805 ,0.85006 ,4.17262 ,40.94179 
85 ,15.7729 ,0.85177 ,4.14867 ,40.70674 
86 ,15.9487 ,0.85363 ,4.12471 ,40.47170 
87 ,16.1252 ,0.85538 ,4.10076 ,40.23665 
88 ,16.3328 ,0.85738 ,4.09049 ,40.13591 
89 ,16.5411 ,0.85945 ,4.08365 ,40.06876 
90 ,16.7171 ,0.86131 ,4.06996 ,39.93444 
91 ,16.9094 ,0.86315 ,4.02547 ,39.49793 
92 ,17.1174 ,0.86526 ,4.04258 ,39.66582 
93 ,17.2931 ,0.86704 ,4.02889 ,39.53150 
94 ,17.4696 ,0.86882 ,3.99809 ,39.22930 
95 ,17.6777 ,0.87085 ,3.99809 ,39.22930 
96 ,17.8859 ,0.87286 ,3.95361 ,38.79278 
97 ,18.1095 ,0.87507 ,3.93650 ,38.62489 
98 ,18.2858 ,0.87697 ,3.91938 ,38.45700 
99 ,18.4616 ,0.87869 ,3.91254 ,38.38984 
100 ,18.6540 ,0.88067 ,3.90570 ,38.32268 
101 ,18.8462 ,0.88246 ,3.87832 ,38.05406 
102 ,19.0379 ,0.88450 ,3.87147 ,37.98690 
103 ,19.2142 ,0.88625 ,3.85779 ,37.85259 
104 ,19.3900 ,0.88800 ,3.83041 ,37.58396 
105 ,19.5820 ,0.88991 ,3.80987 ,37.38249 
106 ,19.7739 ,0.89182 ,3.78592 ,37.14744 
107 ,19.9501 ,0.89363 ,3.78592 ,37.14744 
108 ,20.1425 ,0.89545 ,3.75854 ,36.87882 
109 ,20.3509 ,0.89758 ,3.73801 ,36.67735 
110 ,20.5264 ,0.89938 ,3.72432 ,36.54303 
111 ,20.7027 ,0.90112 ,3.71405 ,36.44230 
112 ,20.9110 ,0.90322 ,3.68668 ,36.17367 
113 ,21.0869 ,0.90498 ,3.66614 ,35.97220 
114 ,21.2788 ,0.90683 ,3.67641 ,36.07294 
115 ,21.4708 ,0.90886 ,3.64219 ,35.73716 
116 ,21.6469 ,0.91056 ,3.62850 ,35.60284 
117 ,21.8390 ,0.91250 ,3.62850 ,35.60284 
118 ,22.0153 ,0.91427 ,3.60454 ,35.36779 
119 ,22.2075 ,0.91615 ,3.58401 ,35.16632 
120 ,22.3838 ,0.91793 ,3.56690 ,34.99843 
121 ,22.5756 ,0.91979 ,3.55663 ,34.89770 
122 ,22.7517 ,0.92164 ,3.54979 ,34.83054 
123 ,22.9438 ,0.92348 ,3.52241 ,34.56192 
124 ,23.1199 ,0.92533 ,3.50530 ,34.39402 
125 ,23.2960 ,0.92706 ,3.50530 ,34.39402 
126 ,23.4720 ,0.92878 ,3.47450 ,34.09182 
127 ,23.6641 ,0.93068 ,3.46424 ,33.99108 
128 ,23.8722 ,0.93275 ,3.43686 ,33.72246 
129 ,24.0642 ,0.93472 ,3.43344 ,33.68888 
130 ,24.2404 ,0.93649 ,3.41633 ,33.52099 
131 ,24.4322 ,0.93835 ,3.39579 ,33.31952 
132 ,24.6244 ,0.94023 ,3.37526 ,33.11805 
133 ,24.8161 ,0.94218 ,3.35473 ,32.91658 
134 ,24.9929 ,0.94406 ,3.34788 ,32.84942 
135 ,25.2167 ,0.94609 ,3.34788 ,32.84942 
136 ,25.3928 ,0.94799 ,3.32051 ,32.58080 
137 ,25.6009 ,0.95005 ,3.30339 ,32.41290 
138 ,25.7929 ,0.95197 ,3.28286 ,32.21143 
139 ,25.9689 ,0.95384 ,3.28286 ,32.21143 
140 ,26.1450 ,0.95554 ,3.23837 ,31.77492 
141 ,26.3211 ,0.95732 ,3.23837 ,31.77492 
142 ,26.5130 ,0.95920 ,3.22126 ,31.60702 
143 ,26.7214 ,0.96114 ,3.20415 ,31.43913 
144 ,26.9131 ,0.96314 ,3.18362 ,31.23766 
145 ,27.1055 ,0.96509 ,3.16651 ,31.06977 
146 ,27.3135 ,0.96720 ,3.14255 ,30.83472 
147 ,27.5057 ,0.96907 ,3.13571 ,30.76757 
148 ,27.6814 ,0.97094 ,3.12202 ,30.63325 
149 ,27.8578 ,0.97267 ,3.12202 ,30.63325 
150 ,28.0493 ,0.97464 ,3.09806 ,30.39821 
151 ,28.2259 ,0.97630 ,3.06726 ,30.09600 
152 ,28.3860 ,0.97803 ,3.07411 ,30.16316 
153 ,28.5620 ,0.97967 ,3.04673 ,29.89453 
154 ,28.7541 ,0.98162 ,3.02278 ,29.65948 
155 ,28.9620 ,0.98360 ,3.02620 ,29.69306 
156 ,29.1702 ,0.98563 ,2.99198 ,29.35728 
157 ,29.3623 ,0.98767 ,2.99540 ,29.39086 
158 ,29.5544 ,0.98953 ,2.96118 ,29.05507 
159 ,29.7304 ,0.99149 ,2.94407 ,28.88718 
160 ,29.9065 ,0.99318 ,2.91669 ,28.61856 
161 ,30.0824 ,0.99484 ,2.92011 ,28.65213 
162 ,30.2907 ,0.99690 ,2.90300 ,28.48424 
163 ,30.4988 ,0.99901 ,2.89616 ,28.41709 
164 ,30.6908 ,1.00093 ,2.88589 ,28.31635 
165 ,30.8667 ,1.00273 ,2.83798 ,27.84625 
166 ,31.0430 ,1.00447 ,2.84825 ,27.94699 
167 ,31.2347 ,1.00635 ,2.80718 ,27.54405 
168 ,31.4113 ,1.00818 ,2.80376 ,27.51047 
169 ,31.6030 ,1.01012 ,2.78322 ,27.30900 
170 ,31.8112 ,1.01213 ,2.76611 ,27.14111 
171 ,31.9874 ,1.01393 ,2.75243 ,27.00680 
172 ,32.1631 ,1.01565 ,2.75243 ,27.00680 
173 ,32.3393 ,1.01739 ,2.73874 ,26.87248 
174 ,32.5156 ,1.01918 ,2.71820 ,26.67101 
175 ,32.6913 ,1.02102 ,2.69425 ,26.43597 
176 ,32.8677 ,1.02268 ,2.67714 ,26.26807 
177 ,33.0593 ,1.02460 ,2.67372 ,26.23450 
178 ,33.2357 ,1.02638 ,2.64634 ,25.96587 
179 ,33.4115 ,1.02812 ,2.63265 ,25.83156 
180 ,33.5879 ,1.02992 ,2.61554 ,25.66367 
181 ,33.7640 ,1.03167 ,2.60869 ,25.59651 
182 ,33.9720 ,1.03361 ,2.58474 ,25.36146 
183 ,34.1482 ,1.03552 ,2.57789 ,25.29430 
184 ,34.3403 ,1.03733 ,2.56421 ,25.15999 
185 ,34.5323 ,1.03930 ,2.54710 ,24.99210 
186 ,34.7400 ,1.04137 ,2.53683 ,24.89136 
187 ,34.9319 ,1.04326 ,2.50261 ,24.55558 
188 ,35.1080 ,1.04511 ,2.49234 ,24.45485 
189 ,35.2845 ,1.04693 ,2.49234 ,24.45485 
190 ,35.4764 ,1.04884 ,2.47523 ,24.28696 
191 ,35.6689 ,1.05068 ,2.44443 ,23.98475 
192 ,35.8770 ,1.05278 ,2.43759 ,23.91759 
193 ,36.0689 ,1.05467 ,2.43074 ,23.85044 
194 ,36.2290 ,1.05645 ,2.40679 ,23.61539 
195 ,36.4052 ,1.05811 ,2.38968 ,23.44750 
196 ,36.5807 ,1.05988 ,2.36914 ,23.24603 
197 ,36.7572 ,1.06158 ,2.36914 ,23.24603 
198 ,36.9650 ,1.06361 ,2.35888 ,23.14529 
199 ,37.1414 ,1.06547 ,2.33150 ,22.87667 
200 ,37.3334 ,1.06727 ,2.30070 ,22.57446 
201 ,37.5415 ,1.06942 ,2.30412 ,22.60804 
202 ,37.7177 ,1.07125 ,2.27332 ,22.30584 
203 ,37.8937 ,1.07298 ,2.25621 ,22.13794 
204 ,38.0857 ,1.07482 ,2.25621 ,22.13794 
205 ,38.2617 ,1.07664 ,2.24937 ,22.07079 
206 ,38.4697 ,1.07868 ,2.21515 ,21.73500 
207 ,38.6618 ,1.08059 ,2.21515 ,21.73500 
208 ,38.8379 ,1.08248 ,2.18092 ,21.39922 
209 ,39.0301 ,1.08428 ,2.16039 ,21.19775 
210 ,39.2220 ,1.08617 ,2.17408 ,21.33206 
211 ,39.4143 ,1.08815 ,2.14328 ,21.02986 
212 ,39.6221 ,1.09019 ,2.12275 ,20.82839 
213 ,39.7822 ,1.09196 ,2.11590 ,20.76123 
214 ,39.9746 ,1.09369 ,2.09195 ,20.52619 
215 ,40.1822 ,1.09576 ,2.08510 ,20.45903 
216 ,40.3908 ,1.09790 ,2.07484 ,20.35829 
217 ,40.5827 ,1.09984 ,2.06115 ,20.22398 
218 ,40.7586 ,1.10162 ,2.04061 ,20.02251 
219 ,40.9508 ,1.10344 ,2.00297 ,19.65315 
220 ,41.1426 ,1.10540 ,2.00639 ,19.68673 
221 ,41.3189 ,1.10723 ,1.99955 ,19.61957 
222 ,41.5110 ,1.10907 ,1.96190 ,19.25021 
223 ,41.6874 ,1.11091 ,1.96533 ,19.28379 
224 ,41.8951 ,1.11281 ,1.95164 ,19.14948 
225 ,42.1033 ,1.11502 ,1.93795 ,19.01516 
226 ,42.2954 ,1.11701 ,1.91057 ,18.74654 
227 ,42.4717 ,1.11875 ,1.89688 ,18.61222 
228 ,42.6633 ,1.12058 ,1.89004 ,18.54507 
229 ,42.8397 ,1.12241 ,1.86951 ,18.34360 
230 ,43.0314 ,1.12437 ,1.85582 ,18.20928 
231 ,43.2076 ,1.12612 ,1.82160 ,17.87350 
232 ,43.5758 ,1.12972 ,1.80106 ,17.67203 
233 ,43.7842 ,1.13182 ,1.80449 ,17.70561 
234 ,43.9921 ,1.13385 ,1.78737 ,17.53772 
235 ,44.1682 ,1.13576 ,1.77026 ,17.36983 
236 ,44.3282 ,1.13743 ,1.76684 ,17.33625 
237 ,44.5042 ,1.13904 ,1.74631 ,17.13478 
238 ,44.6805 ,1.14081 ,1.72578 ,16.93331 
239 ,44.8887 ,1.14286 ,1.72920 ,16.96689 
240 ,45.0807 ,1.14474 ,1.68813 ,16.56395 
241 ,45.2566 ,1.14656 ,1.67102 ,16.39605 
242 ,45.4487 ,1.14844 ,1.66418 ,16.32890 
243 ,45.6248 ,1.15030 ,1.65733 ,16.26174 
244 ,45.8006 ,1.15207 ,1.62311 ,15.92596 
245 ,45.9767 ,1.15380 ,1.62653 ,15.95954 
246 ,46.1688 ,1.15564 ,1.61284 ,15.82522 
247 ,46.3610 ,1.15752 ,1.60600 ,15.75807 
248 ,46.5531 ,1.15947 ,1.57862 ,15.48944 
249 ,46.7292 ,1.16129 ,1.55809 ,15.28797 
250 ,46.9212 ,1.16323 ,1.56151 ,15.32155 
251 ,47.1133 ,1.16505 ,1.52045 ,14.91861 
252 ,47.2890 ,1.16692 ,1.53071 ,15.01934 
253 ,47.4656 ,1.16870 ,1.51702 ,14.88503 
254 ,47.6735 ,1.17067 ,1.47938 ,14.51567 
255 ,47.8497 ,1.17250 ,1.47253 ,14.44851 
256 ,48.0577 ,1.17445 ,1.46569 ,14.38136 
257 ,48.2339 ,1.17631 ,1.44174 ,14.14631 
258 ,48.4095 ,1.17816 ,1.43489 ,14.07915 
259 ,48.5859 ,1.17983 ,1.41778 ,13.91126 
260 ,48.7619 ,1.18161 ,1.41094 ,13.84410 
261 ,48.9382 ,1.18338 ,1.38698 ,13.60906 
262 ,49.1302 ,1.18523 ,1.38014 ,13.54190 
263 ,49.3062 ,1.18702 ,1.37671 ,13.50832 
264 ,49.4824 ,1.18877 ,1.36303 ,13.37401 
265 ,49.6583 ,1.19059 ,1.33565 ,13.10538 
266 ,49.8506 ,1.19246 ,1.33223 ,13.07180 
267 ,50.0422 ,1.19432 ,1.31169 ,12.87033 
268 ,50.2346 ,1.19622 ,1.29458 ,12.70244 
269 ,50.4426 ,1.19836 ,1.27405 ,12.50097 
270 ,50.6189 ,1.20014 ,1.26378 ,12.40024 
271 ,50.8105 ,1.20215 ,1.26720 ,12.43381 
272 ,50.9872 ,1.20385 ,1.24667 ,12.23235 
273 ,51.1790 ,1.20578 ,1.22614 ,12.03088 
274 ,51.3873 ,1.20776 ,1.21245 ,11.89656 
275 ,51.5788 ,1.20971 ,1.18850 ,11.66151 
276 ,51.7713 ,1.21162 ,1.17481 ,11.52720 
277 ,51.9791 ,1.21375 ,1.15427 ,11.32573 
278 ,52.1555 ,1.21551 ,1.14058 ,11.19142 
279 ,52.3471 ,1.21742 ,1.14401 ,11.22500 
280 ,52.5236 ,1.21920 ,1.12347 ,11.02353 
281 ,52.6991 ,1.22102 ,1.11321 ,10.92279 
282 ,52.8759 ,1.22274 ,1.08925 ,10.68774 
283 ,53.0838 ,1.22474 ,1.09952 ,10.78848 
284 ,53.2760 ,1.22659 ,1.06530 ,10.45270 
285 ,53.4679 ,1.22865 ,1.05845 ,10.38554 
286 ,53.6441 ,1.23040 ,1.04819 ,10.28480 
287 ,53.8679 ,1.23248 ,1.02081 ,10.01618 
288 ,54.0603 ,1.23456 ,1.01054 ,9.91544 
289 ,54.2523 ,1.23643 ,1.00370 ,9.84829 
290 ,54.4443 ,1.23840 ,1.00028 ,9.81471 
291 ,54.6364 ,1.24023 ,0.95921 ,9.41177 
292 ,54.8281 ,1.24229 ,0.95921 ,9.41177 
293 ,55.0207 ,1.24421 ,0.93868 ,9.21030 
294 ,55.2128 ,1.24605 ,0.92841 ,9.10956 
295 ,55.4048 ,1.24800 ,0.92157 ,9.04241 
296 ,55.6129 ,1.25003 ,0.89419 ,8.77378 
297 ,55.8048 ,1.25194 ,0.89419 ,8.77378 
298 ,56.0131 ,1.25401 ,0.87708 ,8.60589 
299 ,56.2048 ,1.25608 ,0.86339 ,8.47158 
300 ,56.3812 ,1.25780 ,0.84286 ,8.27011 
301 ,56.5732 ,1.25968 ,0.82232 ,8.06864 
302 ,56.7653 ,1.26151 ,0.82575 ,8.10221 
303 ,56.9411 ,1.26342 ,0.79837 ,7.83359 
304 ,57.1335 ,1.26522 ,0.77784 ,7.63212 
305 ,57.3416 ,1.26733 ,0.77099 ,7.56496 
306 ,57.5336 ,1.26928 ,0.75046 ,7.36349 
307 ,57.7257 ,1.27115 ,0.75388 ,7.39707 
308 ,57.9018 ,1.27297 ,0.73335 ,7.19560 
309 ,58.0778 ,1.27476 ,0.71624 ,7.02771 
310 ,58.2376 ,1.27644 ,0.69913 ,6.85982 
311 ,58.4141 ,1.27807 ,0.68886 ,6.75908 
312 ,58.6222 ,1.28014 ,0.68201 ,6.69193 
313 ,58.8143 ,1.28201 ,0.67517 ,6.62477 
314 ,59.0064 ,1.28403 ,0.66148 ,6.49046 
315 ,59.1823 ,1.28581 ,0.64095 ,6.28899 
316 ,59.3743 ,1.28762 ,0.61699 ,6.05394 
317 ,59.5666 ,1.28953 ,0.61699 ,6.05394 
318 ,59.7746 ,1.29163 ,0.60330 ,5.91962 
319 ,59.9667 ,1.29354 ,0.58962 ,5.78531 
320 ,60.1583 ,1.29549 ,0.56908 ,5.58384 
321 ,60.3348 ,1.29734 ,0.55882 ,5.48311 
322 ,60.5270 ,1.29922 ,0.55539 ,5.44953 
323 ,60.7030 ,1.30101 ,0.55197 ,5.41595 
324 ,60.8951 ,1.30291 ,0.51091 ,5.01301 
325 ,61.0711 ,1.30470 ,0.51091 ,5.01301 
326 ,61.2626 ,1.30648 ,0.49037 ,4.81154 
327 ,61.4394 ,1.30835 ,0.46984 ,4.61007 
328 ,61.6474 ,1.31034 ,0.47668 ,4.67723 
329 ,61.8234 ,1.31216 ,0.46984 ,4.61007 
330 ,62.0316 ,1.31418 ,0.44931 ,4.40860 
331 ,62.2077 ,1.31604 ,0.43904 ,4.30787 
332 ,62.3996 ,1.31792 ,0.41851 ,4.10640 
333 ,62.5919 ,1.31985 ,0.39113 ,3.83777 
334 ,62.7837 ,1.32170 ,0.38429 ,3.77061 
335 ,62.9759 ,1.32366 ,0.37402 ,3.66988 
336 ,63.1519 ,1.32550 ,0.35691 ,3.50199 
337 ,63.3280 ,1.32721 ,0.35691 ,3.50199 
338 ,63.5359 ,1.32920 ,0.33295 ,3.26694 
339 ,63.7441 ,1.33130 ,0.31242 ,3.06547 
340 ,63.9201 ,1.33314 ,0.29873 ,2.93116 
341 ,64.1283 ,1.33519 ,0.30900 ,3.03189 
342 ,64.3043 ,1.33697 ,0.29873 ,2.93116 
343 ,64.4801 ,1.33874 ,0.27820 ,2.72969 
344 ,64.6566 ,1.34050 ,0.26109 ,2.56179 
345 ,64.8486 ,1.34234 ,0.26793 ,2.62895 
346 ,65.0248 ,1.34414 ,0.25082 ,2.46106 
347 ,65.2170 ,1.34608 ,0.22344 ,2.19243 
348 ,65.4089 ,1.34801 ,0.22344 ,2.19243 
349 ,65.5850 ,1.34987 ,0.20976 ,2.05812 
350 ,65.7610 ,1.35155 ,0.20633 ,2.02454 
351 ,65.9372 ,1.35328 ,0.17211 ,1.68876 
352 ,66.1131 ,1.35502 ,0.17896 ,1.75592 
353 ,66.2893 ,1.35682 ,0.16869 ,1.65518 
354 ,66.4654 ,1.35860 ,0.18922 ,1.85665 
355 ,66.6410 ,1.36038 ,0.13105 ,1.28582 
356 ,66.8176 ,1.36212 ,0.12420 ,1.21866 
357 ,67.0094 ,1.36397 ,0.12762 ,1.25224 
358 ,67.1858 ,1.36580 ,0.11051 ,1.08435 
359 ,67.3778 ,1.36767 ,0.07971 ,0.78214 
360 ,67.5698 ,1.36969 ,0.08998 ,0.88288 
361 ,67.7460 ,1.37140 ,0.08656 ,0.84930 
362 ,67.9539 ,1.37338 ,0.05576 ,0.54710 
363 ,68.1300 ,1.37523 ,0.04549 ,0.44636 
364 ,68.3218 ,1.37708 ,0.03522 ,0.34563 
365 ,68.4982 ,1.37888 ,0.00785 ,0.07700 
366 ,68.6741 ,1.38064 ,0.00443 ,0.04342 
367 ,68.8664 ,1.38256 ,-0.00242 ,-0.02373 
368 ,69.0745 ,1.38459 ,-0.02637 ,-0.25878 
369 ,69.2665 ,1.38657 ,-0.03664 ,-0.35952 
370 ,69.4426 ,1.38832 ,-0.04348 ,-0.42667 
371 ,69.6507 ,1.39039 ,-0.06060 ,-0.59457 
372 ,69.8268 ,1.39217 ,-0.07086 ,-0.69530 
373 ,70.0028 ,1.39393 ,-0.07771 ,-0.76246 
374 ,70.1949 ,1.39583 ,-0.10508 ,-1.03108 
375 ,70.3870 ,1.39771 ,-0.10508 ,-1.03108 
376 ,70.5787 ,1.39966 ,-0.13246 ,-1.29971 
377 ,70.7706 ,1.40151 ,-0.12562 ,-1.23255 
378 ,70.9471 ,1.40338 ,-0.13588 ,-1.33329 
379 ,71.1392 ,1.40523 ,-0.16668 ,-1.63549 
380 ,71.3153 ,1.40710 ,-0.19064 ,-1.87054 
381 ,71.5075 ,1.40895 ,-0.17353 ,-1.70265 
382 ,71.6996 ,1.41084 ,-0.21459 ,-2.10559 
383 ,71.8912 ,1.41275 ,-0.21459 ,-2.10559 
384 ,72.0997 ,1.41473 ,-0.21802 ,-2.13917 
385 ,72.2918 ,1.41688 ,-0.23513 ,-2.30706 
386 ,72.4679 ,1.41857 ,-0.24539 ,-2.40779 
387 ,72.6759 ,1.42062 ,-0.27277 ,-2.67642 
388 ,72.8680 ,1.42250 ,-0.25908 ,-2.54211 
389 ,73.0276 ,1.42429 ,-0.27619 ,-2.71000 
390 ,73.2041 ,1.42596 ,-0.28304 ,-2.77716 
391 ,73.3962 ,1.42789 ,-0.31726 ,-3.11294 
392 ,73.5883 ,1.42976 ,-0.32068 ,-3.14652 
393 ,73.7644 ,1.43158 ,-0.32410 ,-3.18010 
394 ,73.9563 ,1.43346 ,-0.34121 ,-3.34799 
395 ,74.1481 ,1.43542 ,-0.35148 ,-3.44872 
396 ,74.3244 ,1.43714 ,-0.36859 ,-3.61661 
397 ,74.5167 ,1.43897 ,-0.38228 ,-3.75093 
398 ,74.6925 ,1.44079 ,-0.39939 ,-3.91882 
399 ,74.8849 ,1.44267 ,-0.40281 ,-3.95240 
400 ,75.0766 ,1.44464 ,-0.41308 ,-4.05313 
401 ,75.2526 ,1.44642 ,-0.43703 ,-4.28818 
402 ,75.4290 ,1.44818 ,-0.43361 ,-4.25460 
403 ,75.6052 ,1.44996 ,-0.44046 ,-4.32176 
404 ,75.8132 ,1.45194 ,-0.46441 ,-4.55681 
405 ,76.0051 ,1.45387 ,-0.47126 ,-4.62396 
406 ,76.1810 ,1.45573 ,-0.49863 ,-4.89259 
407 ,76.3573 ,1.45750 ,-0.50206 ,-4.92617 
408 ,76.5495 ,1.45938 ,-0.50548 ,-4.95975 
409 ,76.7412 ,1.46124 ,-0.51917 ,-5.09406 
410 ,76.9335 ,1.46317 ,-0.52601 ,-5.16121 
411 ,77.1256 ,1.46514 ,-0.51574 ,-5.06048 
412 ,77.3015 ,1.46686 ,-0.51917 ,-5.09406 
413 ,77.4780 ,1.46866 ,-0.53285 ,-5.22837 
414 ,77.6698 ,1.47057 ,-0.55681 ,-5.46342 
415 ,77.8460 ,1.47236 ,-0.55681 ,-5.46342 
416 ,78.0221 ,1.47410 ,-0.55339 ,-5.42984 
417 ,78.2137 ,1.47595 ,-0.57734 ,-5.66489 
418 ,78.3903 ,1.47774 ,-0.58761 ,-5.76562 
419 ,78.5660 ,1.47955 ,-0.59445 ,-5.83278 
420 ,78.7583 ,1.48142 ,-0.59788 ,-5.86636 
421 ,78.9504 ,1.48331 ,-0.61841 ,-6.06783 
422 ,79.1586 ,1.48541 ,-0.62183 ,-6.10141 
423 ,79.3663 ,1.48735 ,-0.65263 ,-6.40361 
424 ,79.5587 ,1.48939 ,-0.65263 ,-6.40361 
425 ,79.7506 ,1.49134 ,-0.66632 ,-6.53793 
426 ,79.9269 ,1.49313 ,-0.66632 ,-6.53793 
427 ,80.1188 ,1.49500 ,-0.69370 ,-6.80655 
428 ,80.2949 ,1.49679 ,-0.70739 ,-6.94086 
429 ,80.4867 ,1.49867 ,-0.70739 ,-6.94086 
430 ,80.6630 ,1.50047 ,-0.71765 ,-7.04160 
431 ,80.8392 ,1.50227 ,-0.72792 ,-7.14233 
432 ,81.0154 ,1.50404 ,-0.75530 ,-7.41096 
433 ,81.2070 ,1.50595 ,-0.74161 ,-7.27665 
434 ,81.3830 ,1.50771 ,-0.75530 ,-7.41096 
435 ,81.5591 ,1.50943 ,-0.76214 ,-7.47812 
436 ,81.7515 ,1.51137 ,-0.79294 ,-7.78032 
437 ,81.9597 ,1.51339 ,-0.78952 ,-7.74674 
438 ,82.1356 ,1.51522 ,-0.79978 ,-7.84748 
439 ,82.3278 ,1.51710 ,-0.82374 ,-8.08253 
440 ,82.5200 ,1.51904 ,-0.82716 ,-8.11611 
441 ,82.7117 ,1.52093 ,-0.84427 ,-8.28400 
442 ,82.9041 ,1.52281 ,-0.84427 ,-8.28400 
443 ,83.0963 ,1.52475 ,-0.87507 ,-8.58620 
444 ,83.2883 ,1.52675 ,-0.87849 ,-8.61978 
445 ,83.4643 ,1.52845 ,-0.88534 ,-8.68694 
446 ,83.6404 ,1.53029 ,-0.88534 ,-8.68694 
447 ,83.8324 ,1.53211 ,-0.90929 ,-8.92198 
448 ,84.0248 ,1.53414 ,-0.90929 ,-8.92198 
449 ,84.2168 ,1.53606 ,-0.91956 ,-9.02272 
450 ,84.4089 ,1.53790 ,-0.93325 ,-9.15703 
451 ,84.6009 ,1.53985 ,-0.94009 ,-9.22419 
452 ,84.7764 ,1.54170 ,-0.97089 ,-9.52639 
453 ,84.9529 ,1.54341 ,-0.97774 ,-9.59355 
454 ,85.1449 ,1.54526 ,-0.96063 ,-9.42566 
455 ,85.3368 ,1.54717 ,-0.99485 ,-9.76144 
456 ,85.5131 ,1.54896 ,-1.01538 ,-9.96291 
457 ,85.7054 ,1.55087 ,-1.01880 ,-9.99649 
458 ,85.8973 ,1.55273 ,-1.02222 ,-10.03007 
459 ,86.0735 ,1.55460 ,-1.02907 ,-10.09723 
460 ,86.2655 ,1.55647 ,-1.04276 ,-10.23154 
461 ,86.4415 ,1.55832 ,-1.04960 ,-10.29869 
462 ,86.6332 ,1.56010 ,-1.07014 ,-10.50016 
