Data stamp = , 22-04-2022 00:23:53 778

Calibration Values: 
Slope = , 26.54 , g/V 
Offset Voltage at no contact = , -0.501760 , V 

No , Time , Stage Position ,   Mass , Force 
   ,  (s) ,      (mm)      ,   (g)  , (mN)  

1 ,0.0000 ,0.69945 ,5.41829 ,53.16429 
2 ,0.2069 ,0.69951 ,5.42514 ,53.23145 
3 ,0.6227 ,0.70089 ,5.42514 ,53.23145 
4 ,0.8148 ,0.70243 ,5.40118 ,52.99640 
5 ,1.0069 ,0.70428 ,5.41145 ,53.09714 
6 ,1.1831 ,0.70604 ,5.42172 ,53.19787 
7 ,1.3591 ,0.70770 ,5.41145 ,53.09714 
8 ,1.5354 ,0.70954 ,5.39776 ,52.96282 
9 ,1.7273 ,0.71140 ,5.41145 ,53.09714 
10 ,1.9036 ,0.71323 ,5.38407 ,52.82851 
11 ,2.0798 ,0.71500 ,5.35669 ,52.55988 
12 ,2.2719 ,0.71691 ,5.35669 ,52.55988 
13 ,2.4639 ,0.71879 ,5.33958 ,52.39199 
14 ,2.6559 ,0.72073 ,5.30878 ,52.08979 
15 ,2.8321 ,0.72261 ,5.29167 ,51.92190 
16 ,3.0240 ,0.72451 ,5.29510 ,51.95548 
17 ,3.2162 ,0.72633 ,5.25061 ,51.51896 
18 ,3.4083 ,0.72825 ,5.26087 ,51.61969 
19 ,3.6002 ,0.73019 ,5.23007 ,51.31749 
20 ,3.7762 ,0.73200 ,5.20612 ,51.08244 
21 ,3.9525 ,0.73375 ,5.18559 ,50.88097 
22 ,4.3044 ,0.73736 ,5.15479 ,50.57876 
23 ,4.5124 ,0.73923 ,5.14794 ,50.51161 
24 ,4.6886 ,0.74109 ,5.12741 ,50.31014 
25 ,4.8644 ,0.74286 ,5.12399 ,50.27656 
26 ,5.0409 ,0.74462 ,5.10003 ,50.04151 
27 ,5.2489 ,0.74663 ,5.09661 ,50.00793 
28 ,5.4571 ,0.74873 ,5.05554 ,49.60499 
29 ,5.6491 ,0.75067 ,5.05897 ,49.63857 
30 ,5.8412 ,0.75259 ,5.00763 ,49.13490 
31 ,6.0334 ,0.75461 ,4.99052 ,48.96701 
32 ,6.2250 ,0.75646 ,4.99394 ,49.00058 
33 ,6.4010 ,0.75824 ,4.98026 ,48.86627 
34 ,6.5773 ,0.75994 ,4.94603 ,48.53049 
35 ,6.7535 ,0.76175 ,4.92550 ,48.32902 
36 ,6.9298 ,0.76353 ,4.91866 ,48.26186 
37 ,7.1217 ,0.76539 ,4.89812 ,48.06039 
38 ,7.3299 ,0.76746 ,4.89470 ,48.02681 
39 ,7.5216 ,0.76937 ,4.87075 ,47.79177 
40 ,7.6978 ,0.77116 ,4.83652 ,47.45598 
41 ,7.8740 ,0.77296 ,4.82284 ,47.32167 
42 ,8.0821 ,0.77495 ,4.81941 ,47.28809 
43 ,8.2742 ,0.77694 ,4.79888 ,47.08662 
44 ,8.4664 ,0.77879 ,4.79204 ,47.01946 
45 ,8.6904 ,0.78097 ,4.77150 ,46.81800 
46 ,8.9146 ,0.78320 ,4.74070 ,46.51579 
47 ,9.1063 ,0.78523 ,4.73728 ,46.48221 
48 ,9.2986 ,0.78717 ,4.70990 ,46.21359 
49 ,9.4745 ,0.78890 ,4.68595 ,45.97854 
50 ,9.6668 ,0.79084 ,4.68937 ,46.01212 
51 ,9.8587 ,0.79268 ,4.65515 ,45.67633 
52 ,10.0349 ,0.79450 ,4.64146 ,45.54202 
53 ,10.2109 ,0.79631 ,4.62777 ,45.40771 
54 ,10.3869 ,0.79807 ,4.63804 ,45.50844 
55 ,10.5630 ,0.79982 ,4.61066 ,45.23981 
56 ,10.7552 ,0.80173 ,4.57302 ,44.87045 
57 ,10.9473 ,0.80362 ,4.57302 ,44.87045 
58 ,11.1394 ,0.80549 ,4.53537 ,44.50109 
59 ,11.3313 ,0.80754 ,4.53880 ,44.53467 
60 ,11.5073 ,0.80926 ,4.52511 ,44.40036 
61 ,11.6996 ,0.81109 ,4.48746 ,44.03100 
62 ,11.9076 ,0.81317 ,4.49431 ,44.09815 
63 ,12.0995 ,0.81514 ,4.47378 ,43.89668 
64 ,12.2757 ,0.81697 ,4.43271 ,43.49374 
65 ,12.4516 ,0.81874 ,4.43271 ,43.49374 
66 ,12.6435 ,0.82060 ,4.42586 ,43.42659 
67 ,12.8201 ,0.82243 ,4.39849 ,43.15796 
68 ,13.0122 ,0.82429 ,4.38138 ,42.99007 
69 ,13.1880 ,0.82606 ,4.37453 ,42.92291 
70 ,13.3963 ,0.82813 ,4.34031 ,42.58713 
71 ,13.5724 ,0.82995 ,4.32320 ,42.41924 
72 ,13.7482 ,0.83164 ,4.34031 ,42.58713 
73 ,13.9405 ,0.83361 ,4.29924 ,42.18419 
74 ,14.1325 ,0.83546 ,4.28556 ,42.04988 
75 ,14.3086 ,0.83731 ,4.27187 ,41.91556 
76 ,14.4846 ,0.83910 ,4.23765 ,41.57978 
77 ,14.6608 ,0.84082 ,4.24449 ,41.64694 
78 ,14.8368 ,0.84257 ,4.21711 ,41.37831 
79 ,15.0289 ,0.84439 ,4.20685 ,41.27758 
80 ,15.2050 ,0.84626 ,4.20342 ,41.24400 
81 ,15.3971 ,0.84809 ,4.16578 ,40.87464 
82 ,15.5732 ,0.84993 ,4.15209 ,40.74032 
83 ,15.7654 ,0.85177 ,4.15209 ,40.74032 
84 ,15.9574 ,0.85369 ,4.11787 ,40.40454 
85 ,16.1815 ,0.85592 ,4.09734 ,40.20307 
86 ,16.3735 ,0.85786 ,4.09734 ,40.20307 
87 ,16.5655 ,0.85977 ,4.07680 ,40.00160 
88 ,16.7417 ,0.86156 ,4.06312 ,39.86729 
89 ,16.9173 ,0.86338 ,4.04943 ,39.73297 
90 ,17.0938 ,0.86512 ,4.01863 ,39.43077 
91 ,17.2699 ,0.86691 ,4.00836 ,39.33003 
92 ,17.4938 ,0.86886 ,3.99125 ,39.16214 
93 ,17.6699 ,0.87080 ,3.97756 ,39.02783 
94 ,17.8620 ,0.87268 ,3.96387 ,38.89352 
95 ,18.0541 ,0.87469 ,3.94676 ,38.72562 
96 ,18.2462 ,0.87660 ,3.91938 ,38.45700 
97 ,18.4223 ,0.87838 ,3.91596 ,38.42342 
98 ,18.6143 ,0.88028 ,3.88516 ,38.12122 
99 ,18.7899 ,0.88210 ,3.87832 ,38.05406 
100 ,18.9666 ,0.88382 ,3.87147 ,37.98690 
101 ,19.1906 ,0.88599 ,3.84067 ,37.68470 
102 ,19.3986 ,0.88806 ,3.84410 ,37.71828 
103 ,19.5907 ,0.89001 ,3.82014 ,37.48323 
104 ,19.7825 ,0.89202 ,3.80987 ,37.38249 
105 ,19.9588 ,0.89374 ,3.78250 ,37.11387 
106 ,20.1508 ,0.89567 ,3.76539 ,36.94597 
107 ,20.3269 ,0.89742 ,3.75170 ,36.81166 
108 ,20.5032 ,0.89921 ,3.74485 ,36.74450 
109 ,20.6949 ,0.90110 ,3.70721 ,36.37514 
110 ,20.8711 ,0.90290 ,3.69694 ,36.27441 
111 ,21.0470 ,0.90463 ,3.69352 ,36.24083 
112 ,21.2231 ,0.90641 ,3.67641 ,36.07294 
113 ,21.3991 ,0.90817 ,3.64903 ,35.80431 
114 ,21.5756 ,0.90994 ,3.63534 ,35.67000 
115 ,21.7516 ,0.91169 ,3.61481 ,35.46853 
116 ,21.9277 ,0.91344 ,3.61481 ,35.46853 
117 ,22.1196 ,0.91535 ,3.59770 ,35.30064 
118 ,22.2958 ,0.91708 ,3.57375 ,35.06559 
119 ,22.4876 ,0.91903 ,3.57032 ,35.03201 
120 ,22.6639 ,0.92081 ,3.56006 ,34.93128 
121 ,22.8560 ,0.92266 ,3.52241 ,34.56192 
122 ,23.0641 ,0.92472 ,3.51899 ,34.52834 
123 ,23.2403 ,0.92655 ,3.50188 ,34.36045 
124 ,23.4162 ,0.92835 ,3.47792 ,34.12540 
125 ,23.5924 ,0.93008 ,3.46424 ,33.99108 
126 ,23.7843 ,0.93201 ,3.46424 ,33.99108 
127 ,23.9605 ,0.93380 ,3.45055 ,33.85677 
128 ,24.1522 ,0.93568 ,3.40606 ,33.42025 
129 ,24.3285 ,0.93743 ,3.40606 ,33.42025 
130 ,24.5206 ,0.93935 ,3.38895 ,33.25236 
131 ,24.7126 ,0.94130 ,3.35130 ,32.88300 
132 ,24.9205 ,0.94324 ,3.36157 ,32.98374 
133 ,25.1290 ,0.94539 ,3.34446 ,32.81584 
134 ,25.3209 ,0.94727 ,3.30682 ,32.44648 
135 ,25.5292 ,0.94939 ,3.31024 ,32.48006 
136 ,25.7209 ,0.95138 ,3.28971 ,32.27859 
137 ,25.8974 ,0.95310 ,3.27259 ,32.11070 
138 ,26.0889 ,0.95502 ,3.26575 ,32.04354 
139 ,26.2655 ,0.95680 ,3.25206 ,31.90923 
140 ,26.4574 ,0.95863 ,3.22468 ,31.64060 
141 ,26.6335 ,0.96051 ,3.21442 ,31.53987 
142 ,26.8257 ,0.96242 ,3.20757 ,31.47271 
143 ,27.0340 ,0.96444 ,3.18020 ,31.20409 
144 ,27.2098 ,0.96627 ,3.15624 ,30.96904 
145 ,27.4020 ,0.96820 ,3.15282 ,30.93546 
146 ,27.5936 ,0.97003 ,3.11860 ,30.59968 
147 ,27.8021 ,0.97197 ,3.11518 ,30.56610 
148 ,27.9938 ,0.97408 ,3.08438 ,30.26389 
149 ,28.1862 ,0.97599 ,3.09122 ,30.33105 
150 ,28.4102 ,0.97808 ,3.05358 ,29.96169 
151 ,28.6184 ,0.98028 ,3.03989 ,29.82737 
152 ,28.8105 ,0.98217 ,3.04331 ,29.86095 
153 ,29.0026 ,0.98414 ,3.02278 ,29.65948 
154 ,29.1785 ,0.98589 ,3.00224 ,29.45801 
155 ,29.3707 ,0.98780 ,2.97144 ,29.15581 
156 ,29.5786 ,0.98987 ,2.96460 ,29.08865 
157 ,29.7547 ,0.99169 ,2.93380 ,28.78645 
158 ,29.9469 ,0.99359 ,2.93722 ,28.82003 
159 ,30.1549 ,0.99564 ,2.90642 ,28.51782 
160 ,30.3469 ,0.99751 ,2.91327 ,28.58498 
161 ,30.5390 ,0.99946 ,2.88247 ,28.28277 
162 ,30.7313 ,1.00133 ,2.86193 ,28.08130 
163 ,30.9073 ,1.00319 ,2.85509 ,28.01415 
164 ,31.0833 ,1.00494 ,2.84140 ,27.87983 
165 ,31.2594 ,1.00678 ,2.82771 ,27.74552 
166 ,31.4356 ,1.00856 ,2.79349 ,27.40974 
167 ,31.6116 ,1.01025 ,2.77980 ,27.27542 
168 ,31.8037 ,1.01216 ,2.79007 ,27.37616 
169 ,32.0118 ,1.01417 ,2.76611 ,27.14111 
170 ,32.2039 ,1.01619 ,2.75585 ,27.04038 
171 ,32.4120 ,1.01816 ,2.72505 ,26.73817 
172 ,32.6040 ,1.02010 ,2.71820 ,26.67101 
173 ,32.7960 ,1.02201 ,2.69083 ,26.40239 
174 ,32.9718 ,1.02383 ,2.67714 ,26.26807 
175 ,33.1643 ,1.02567 ,2.67714 ,26.26807 
176 ,33.3563 ,1.02762 ,2.64292 ,25.93229 
177 ,33.5482 ,1.02952 ,2.64292 ,25.93229 
178 ,33.7245 ,1.03142 ,2.62238 ,25.73082 
179 ,33.9005 ,1.03310 ,2.61554 ,25.66367 
180 ,34.1085 ,1.03510 ,2.58132 ,25.32788 
181 ,34.3007 ,1.03711 ,2.58474 ,25.36146 
182 ,34.4766 ,1.03889 ,2.57105 ,25.22715 
183 ,34.6526 ,1.04062 ,2.53341 ,24.85779 
184 ,34.8449 ,1.04256 ,2.53683 ,24.89136 
185 ,35.0372 ,1.04441 ,2.49576 ,24.48842 
186 ,35.2290 ,1.04636 ,2.49576 ,24.48842 
187 ,35.4211 ,1.04826 ,2.47865 ,24.32053 
188 ,35.5972 ,1.05005 ,2.46154 ,24.15264 
189 ,35.7892 ,1.05192 ,2.45470 ,24.08549 
190 ,35.9652 ,1.05375 ,2.44785 ,24.01833 
191 ,36.1415 ,1.05550 ,2.42390 ,23.78328 
192 ,36.3336 ,1.05741 ,2.39652 ,23.51465 
193 ,36.5256 ,1.05935 ,2.38625 ,23.41392 
194 ,36.7174 ,1.06116 ,2.36914 ,23.24603 
195 ,36.8933 ,1.06304 ,2.35203 ,23.07814 
196 ,37.1017 ,1.06496 ,2.34519 ,23.01098 
197 ,37.2774 ,1.06684 ,2.32808 ,22.84309 
198 ,37.4540 ,1.06864 ,2.31097 ,22.67520 
199 ,37.6458 ,1.07052 ,2.29728 ,22.54088 
200 ,37.8381 ,1.07243 ,2.28359 ,22.40657 
201 ,38.0301 ,1.07432 ,2.25963 ,22.17152 
202 ,38.2381 ,1.07639 ,2.24594 ,22.03721 
203 ,38.4142 ,1.07821 ,2.22541 ,21.83574 
204 ,38.5903 ,1.07998 ,2.21515 ,21.73500 
205 ,38.7823 ,1.08187 ,2.20488 ,21.63427 
206 ,38.9744 ,1.08378 ,2.17066 ,21.29849 
207 ,39.1825 ,1.08576 ,2.17408 ,21.33206 
208 ,39.3586 ,1.08777 ,2.14670 ,21.06344 
209 ,39.5185 ,1.08939 ,2.15012 ,21.09702 
210 ,39.7109 ,1.09113 ,2.12959 ,20.89555 
211 ,39.9030 ,1.09302 ,2.12275 ,20.82839 
212 ,40.0947 ,1.09502 ,2.10221 ,20.62692 
213 ,40.2710 ,1.09680 ,2.07141 ,20.32472 
214 ,40.4472 ,1.09855 ,2.07141 ,20.32472 
215 ,40.6552 ,1.10057 ,2.05430 ,20.15682 
216 ,40.8472 ,1.10257 ,2.02008 ,19.82104 
217 ,41.0234 ,1.10430 ,2.02008 ,19.82104 
218 ,41.1995 ,1.10610 ,2.02350 ,19.85462 
219 ,41.3754 ,1.10789 ,1.99613 ,19.58599 
220 ,41.5514 ,1.10961 ,1.96533 ,19.28379 
221 ,41.7597 ,1.11161 ,1.96875 ,19.31737 
222 ,41.9353 ,1.11349 ,1.94822 ,19.11590 
223 ,42.1117 ,1.11521 ,1.92426 ,18.88085 
224 ,42.3039 ,1.11707 ,1.93795 ,19.01516 
225 ,42.4959 ,1.11901 ,1.90031 ,18.64580 
226 ,42.6716 ,1.12077 ,1.88319 ,18.47791 
227 ,42.8478 ,1.12257 ,1.85924 ,18.24286 
228 ,43.0720 ,1.12466 ,1.86608 ,18.31002 
229 ,43.2481 ,1.12653 ,1.83186 ,17.97423 
230 ,43.4243 ,1.12834 ,1.82502 ,17.90708 
231 ,43.6165 ,1.13017 ,1.81817 ,17.83992 
232 ,43.8243 ,1.13224 ,1.81133 ,17.77276 
233 ,44.0162 ,1.13415 ,1.79422 ,17.60487 
234 ,44.1923 ,1.13602 ,1.76000 ,17.26909 
235 ,44.3846 ,1.13786 ,1.75315 ,17.20193 
236 ,44.5927 ,1.13995 ,1.73262 ,17.00046 
237 ,44.8006 ,1.14200 ,1.72235 ,16.89973 
238 ,44.9769 ,1.14382 ,1.72578 ,16.93331 
239 ,45.1690 ,1.14570 ,1.68471 ,16.53037 
240 ,45.3610 ,1.14762 ,1.68813 ,16.56395 
241 ,45.5692 ,1.14968 ,1.66075 ,16.29532 
242 ,45.7610 ,1.15163 ,1.63680 ,16.06027 
243 ,45.9535 ,1.15352 ,1.62311 ,15.92596 
244 ,46.1294 ,1.15535 ,1.61284 ,15.82522 
245 ,46.3056 ,1.15720 ,1.60942 ,15.79164 
246 ,46.4817 ,1.15884 ,1.60258 ,15.72449 
247 ,46.6737 ,1.16077 ,1.56836 ,15.38871 
248 ,46.8497 ,1.16250 ,1.55809 ,15.28797 
249 ,47.0258 ,1.16438 ,1.54782 ,15.18724 
250 ,47.2179 ,1.16615 ,1.54098 ,15.12008 
251 ,47.3939 ,1.16807 ,1.50676 ,14.78430 
252 ,47.5700 ,1.16978 ,1.50333 ,14.75072 
253 ,47.7461 ,1.17148 ,1.48280 ,14.54925 
254 ,47.9221 ,1.17329 ,1.47596 ,14.48209 
255 ,48.0981 ,1.17510 ,1.46569 ,14.38136 
256 ,48.2904 ,1.17686 ,1.44858 ,14.21346 
257 ,48.4826 ,1.17880 ,1.43831 ,14.11273 
258 ,48.6745 ,1.18080 ,1.41778 ,13.91126 
259 ,48.8667 ,1.18268 ,1.41094 ,13.84410 
260 ,49.0427 ,1.18451 ,1.39383 ,13.67621 
261 ,49.2506 ,1.18652 ,1.36645 ,13.40759 
262 ,49.4428 ,1.18849 ,1.36303 ,13.37401 
263 ,49.6348 ,1.19031 ,1.34591 ,13.20612 
264 ,49.8271 ,1.19235 ,1.33223 ,13.07180 
265 ,50.0189 ,1.19418 ,1.32538 ,13.00465 
266 ,50.1950 ,1.19604 ,1.29800 ,12.73602 
267 ,50.3870 ,1.19783 ,1.28774 ,12.63528 
268 ,50.5634 ,1.19967 ,1.27063 ,12.46739 
269 ,50.7712 ,1.20167 ,1.27405 ,12.50097 
270 ,50.9795 ,1.20369 ,1.24325 ,12.19877 
271 ,51.1714 ,1.20579 ,1.23641 ,12.13161 
272 ,51.3794 ,1.20777 ,1.21929 ,11.96372 
273 ,51.5877 ,1.20987 ,1.19192 ,11.69509 
274 ,51.7798 ,1.21178 ,1.19192 ,11.69509 
275 ,51.9719 ,1.21378 ,1.16112 ,11.39289 
276 ,52.1479 ,1.21547 ,1.14743 ,11.25857 
277 ,52.3396 ,1.21741 ,1.13374 ,11.12426 
278 ,52.5159 ,1.21919 ,1.13374 ,11.12426 
279 ,52.7241 ,1.22114 ,1.12690 ,11.05710 
280 ,52.9164 ,1.22314 ,1.10636 ,10.85563 
281 ,53.1082 ,1.22506 ,1.06872 ,10.48627 
282 ,53.3004 ,1.22706 ,1.07556 ,10.55343 
283 ,53.5085 ,1.22907 ,1.03450 ,10.15049 
284 ,53.6846 ,1.23089 ,1.02081 ,10.01618 
285 ,53.8763 ,1.23276 ,1.02423 ,10.04976 
286 ,54.0528 ,1.23458 ,1.01396 ,9.94902 
287 ,54.2446 ,1.23643 ,0.99001 ,9.71397 
288 ,54.4206 ,1.23825 ,0.97290 ,9.54608 
289 ,54.6124 ,1.24010 ,0.96948 ,9.51250 
290 ,54.7725 ,1.24190 ,0.95579 ,9.37819 
291 ,54.9810 ,1.24372 ,0.94894 ,9.31103 
292 ,55.1893 ,1.24579 ,0.91814 ,9.00883 
293 ,55.3973 ,1.24794 ,0.91130 ,8.94167 
294 ,55.5732 ,1.24975 ,0.91472 ,8.97525 
295 ,55.7655 ,1.25169 ,0.86339 ,8.47158 
296 ,55.9414 ,1.25341 ,0.86681 ,8.50515 
297 ,56.1171 ,1.25516 ,0.86339 ,8.47158 
298 ,56.2935 ,1.25691 ,0.84628 ,8.30368 
299 ,56.4858 ,1.25877 ,0.82575 ,8.10221 
300 ,56.6939 ,1.26093 ,0.82575 ,8.10221 
301 ,56.8859 ,1.26284 ,0.80179 ,7.86717 
302 ,57.0621 ,1.26466 ,0.78126 ,7.66570 
303 ,57.2701 ,1.26667 ,0.76757 ,7.53138 
304 ,57.4461 ,1.26847 ,0.75046 ,7.36349 
305 ,57.6382 ,1.27032 ,0.76072 ,7.46423 
306 ,57.8304 ,1.27227 ,0.72992 ,7.16202 
307 ,58.0064 ,1.27417 ,0.71281 ,6.99413 
308 ,58.1826 ,1.27586 ,0.70939 ,6.96055 
309 ,58.3746 ,1.27782 ,0.70255 ,6.89340 
310 ,58.5827 ,1.27970 ,0.67859 ,6.65835 
311 ,58.7743 ,1.28172 ,0.68544 ,6.72550 
312 ,58.9508 ,1.28354 ,0.67175 ,6.59119 
313 ,59.1588 ,1.28549 ,0.65464 ,6.42330 
314 ,59.3350 ,1.28740 ,0.63068 ,6.18825 
315 ,59.5109 ,1.28914 ,0.62042 ,6.08752 
316 ,59.7031 ,1.29093 ,0.59988 ,5.88605 
317 ,59.8951 ,1.29288 ,0.60330 ,5.91962 
318 ,60.0714 ,1.29473 ,0.59304 ,5.81889 
319 ,60.2792 ,1.29670 ,0.56224 ,5.51668 
320 ,60.4553 ,1.29855 ,0.56224 ,5.51668 
321 ,60.6316 ,1.30036 ,0.55197 ,5.41595 
322 ,60.8397 ,1.30233 ,0.52802 ,5.18090 
323 ,61.0157 ,1.30416 ,0.51433 ,5.04659 
324 ,61.2398 ,1.30632 ,0.50748 ,4.97943 
325 ,61.4477 ,1.30842 ,0.47326 ,4.64365 
326 ,61.6400 ,1.31031 ,0.45957 ,4.50934 
327 ,61.8479 ,1.31241 ,0.43904 ,4.30787 
328 ,62.0561 ,1.31442 ,0.44246 ,4.34144 
329 ,62.2642 ,1.31658 ,0.40482 ,3.97208 
330 ,62.4563 ,1.31852 ,0.41851 ,4.10640 
331 ,62.6482 ,1.32040 ,0.40140 ,3.93850 
332 ,62.8244 ,1.32222 ,0.38086 ,3.73703 
333 ,63.0004 ,1.32399 ,0.35349 ,3.46841 
334 ,63.1766 ,1.32576 ,0.34664 ,3.40125 
335 ,63.3526 ,1.32751 ,0.35349 ,3.46841 
336 ,63.5284 ,1.32929 ,0.34664 ,3.40125 
337 ,63.7206 ,1.33120 ,0.30900 ,3.03189 
338 ,63.8967 ,1.33301 ,0.30558 ,2.99831 
339 ,64.0565 ,1.33467 ,0.29531 ,2.89758 
340 ,64.2807 ,1.33664 ,0.27820 ,2.72969 
341 ,64.4730 ,1.33872 ,0.28504 ,2.79684 
342 ,64.6648 ,1.34057 ,0.24055 ,2.36032 
343 ,64.8413 ,1.34241 ,0.23029 ,2.25959 
344 ,65.0173 ,1.34419 ,0.23029 ,2.25959 
345 ,65.2414 ,1.34626 ,0.21318 ,2.09170 
346 ,65.4172 ,1.34815 ,0.18922 ,1.85665 
347 ,65.6092 ,1.34999 ,0.18580 ,1.82307 
348 ,65.8334 ,1.35215 ,0.18922 ,1.85665 
349 ,66.0257 ,1.35417 ,0.15842 ,1.55445 
350 ,66.2173 ,1.35610 ,0.14131 ,1.38655 
351 ,66.3932 ,1.35796 ,0.14816 ,1.45371 
352 ,66.5696 ,1.35972 ,0.13447 ,1.31940 
353 ,66.7777 ,1.36172 ,0.12420 ,1.21866 
354 ,66.9858 ,1.36372 ,0.10367 ,1.01719 
355 ,67.1940 ,1.36577 ,0.10709 ,1.05077 
356 ,67.3860 ,1.36789 ,0.08314 ,0.81572 
357 ,67.5623 ,1.36962 ,0.07629 ,0.74857 
358 ,67.7539 ,1.37153 ,0.07971 ,0.78214 
359 ,67.9305 ,1.37325 ,0.07287 ,0.71499 
360 ,68.1225 ,1.37517 ,0.03180 ,0.31205 
361 ,68.3306 ,1.37716 ,0.04891 ,0.47994 
362 ,68.5225 ,1.37918 ,0.00443 ,0.04342 
363 ,68.7147 ,1.38111 ,0.01127 ,0.11058 
364 ,68.9067 ,1.38300 ,-0.00584 ,-0.05731 
365 ,69.1149 ,1.38506 ,-0.01611 ,-0.15805 
366 ,69.3067 ,1.38700 ,-0.03664 ,-0.35952 
367 ,69.5150 ,1.38905 ,-0.03322 ,-0.32594 
368 ,69.6908 ,1.39084 ,-0.05717 ,-0.56099 
369 ,69.8832 ,1.39269 ,-0.06744 ,-0.66172 
370 ,70.0753 ,1.39466 ,-0.07428 ,-0.72888 
371 ,70.2673 ,1.39662 ,-0.09482 ,-0.93035 
372 ,70.4590 ,1.39852 ,-0.12904 ,-1.26613 
373 ,70.6356 ,1.40033 ,-0.12219 ,-1.19898 
374 ,70.8434 ,1.40230 ,-0.13931 ,-1.36687 
375 ,71.0356 ,1.40427 ,-0.14615 ,-1.43402 
376 ,71.2116 ,1.40605 ,-0.14273 ,-1.40045 
377 ,71.3876 ,1.40781 ,-0.15984 ,-1.56834 
378 ,71.5639 ,1.40963 ,-0.18379 ,-1.80338 
379 ,71.7559 ,1.41148 ,-0.20433 ,-2.00485 
380 ,71.9479 ,1.41341 ,-0.20090 ,-1.97128 
381 ,72.1401 ,1.41535 ,-0.23170 ,-2.27348 
382 ,72.3163 ,1.41711 ,-0.24539 ,-2.40779 
383 ,72.5080 ,1.41896 ,-0.23513 ,-2.30706 
384 ,72.6840 ,1.42080 ,-0.24539 ,-2.40779 
385 ,72.8765 ,1.42269 ,-0.27961 ,-2.74358 
386 ,73.0681 ,1.42464 ,-0.26935 ,-2.64284 
387 ,73.2606 ,1.42655 ,-0.28304 ,-2.77716 
388 ,73.4527 ,1.42849 ,-0.28988 ,-2.84431 
389 ,73.6448 ,1.43034 ,-0.31041 ,-3.04578 
390 ,73.8204 ,1.43217 ,-0.32410 ,-3.18010 
391 ,73.9968 ,1.43390 ,-0.33779 ,-3.31441 
392 ,74.1729 ,1.43568 ,-0.35490 ,-3.48230 
393 ,74.3488 ,1.43744 ,-0.35490 ,-3.48230 
394 ,74.5252 ,1.43921 ,-0.36175 ,-3.54946 
395 ,74.7167 ,1.44110 ,-0.39939 ,-3.91882 
396 ,74.8928 ,1.44291 ,-0.39597 ,-3.88524 
397 ,75.0690 ,1.44463 ,-0.39597 ,-3.88524 
398 ,75.2614 ,1.44657 ,-0.41650 ,-4.08671 
399 ,75.4533 ,1.44840 ,-0.41992 ,-4.12029 
400 ,75.6293 ,1.45027 ,-0.43361 ,-4.25460 
401 ,75.8216 ,1.45208 ,-0.45072 ,-4.42249 
402 ,76.0136 ,1.45400 ,-0.45414 ,-4.45607 
403 ,76.2057 ,1.45597 ,-0.45757 ,-4.48965 
404 ,76.4138 ,1.45802 ,-0.48494 ,-4.75828 
405 ,76.5896 ,1.45982 ,-0.47810 ,-4.69112 
406 ,76.7820 ,1.46175 ,-0.51574 ,-5.06048 
407 ,76.9737 ,1.46366 ,-0.52259 ,-5.12764 
408 ,77.1502 ,1.46546 ,-0.53970 ,-5.29553 
409 ,77.3579 ,1.46742 ,-0.53285 ,-5.22837 
410 ,77.5344 ,1.46926 ,-0.54654 ,-5.36268 
411 ,77.7101 ,1.47105 ,-0.56023 ,-5.49700 
412 ,77.9024 ,1.47296 ,-0.58077 ,-5.69847 
413 ,78.0780 ,1.47471 ,-0.57734 ,-5.66489 
414 ,78.2546 ,1.47650 ,-0.57734 ,-5.66489 
415 ,78.4626 ,1.47852 ,-0.58419 ,-5.73205 
416 ,78.6545 ,1.48037 ,-0.60472 ,-5.93352 
417 ,78.8628 ,1.48248 ,-0.61156 ,-6.00067 
418 ,79.0548 ,1.48443 ,-0.61841 ,-6.06783 
419 ,79.2308 ,1.48624 ,-0.62183 ,-6.10141 
420 ,79.4230 ,1.48816 ,-0.63210 ,-6.20214 
421 ,79.6151 ,1.49000 ,-0.63894 ,-6.26930 
422 ,79.8071 ,1.49200 ,-0.63552 ,-6.23572 
423 ,79.9992 ,1.49386 ,-0.68685 ,-6.73940 
424 ,80.1910 ,1.49576 ,-0.66632 ,-6.53793 
425 ,80.3832 ,1.49774 ,-0.68685 ,-6.73940 
426 ,80.5755 ,1.49969 ,-0.70739 ,-6.94086 
427 ,80.7676 ,1.50162 ,-0.69027 ,-6.77297 
428 ,80.9597 ,1.50344 ,-0.72107 ,-7.07518 
429 ,81.1518 ,1.50547 ,-0.73134 ,-7.17591 
430 ,81.3433 ,1.50735 ,-0.74161 ,-7.27665 
431 ,81.5198 ,1.50914 ,-0.75872 ,-7.44454 
432 ,81.7117 ,1.51098 ,-0.75872 ,-7.44454 
433 ,81.9198 ,1.51296 ,-0.78610 ,-7.71317 
434 ,82.1277 ,1.51513 ,-0.79978 ,-7.84748 
435 ,82.3038 ,1.51695 ,-0.78610 ,-7.71317 
436 ,82.4802 ,1.51870 ,-0.79978 ,-7.84748 
437 ,82.7042 ,1.52081 ,-0.81347 ,-7.98179 
438 ,82.8803 ,1.52271 ,-0.82716 ,-8.11611 
439 ,83.0559 ,1.52446 ,-0.84769 ,-8.31758 
440 ,83.2326 ,1.52624 ,-0.85112 ,-8.35115 
441 ,83.4245 ,1.52816 ,-0.84769 ,-8.31758 
442 ,83.6166 ,1.53004 ,-0.89218 ,-8.75409 
443 ,83.8247 ,1.53210 ,-0.88876 ,-8.72051 
444 ,84.0008 ,1.53395 ,-0.89903 ,-8.82125 
445 ,84.1931 ,1.53572 ,-0.91614 ,-8.98914 
446 ,84.3849 ,1.53772 ,-0.91614 ,-8.98914 
447 ,84.5765 ,1.53967 ,-0.93667 ,-9.19061 
448 ,84.7531 ,1.54148 ,-0.95378 ,-9.35850 
449 ,84.9452 ,1.54333 ,-0.96405 ,-9.45924 
450 ,85.2809 ,1.54600 ,-0.96405 ,-9.45924 
451 ,85.4733 ,1.54858 ,-0.96405 ,-9.45924 
452 ,85.6490 ,1.55039 ,-0.99485 ,-9.76144 
453 ,85.8255 ,1.55215 ,-0.99485 ,-9.76144 
454 ,86.0016 ,1.55393 ,-1.01196 ,-9.92933 
455 ,86.2096 ,1.55593 ,-1.00854 ,-9.89576 
456 ,86.3856 ,1.55778 ,-1.01880 ,-9.99649 
457 ,86.5618 ,1.55956 ,-1.02565 ,-10.06365 
458 ,86.7538 ,1.56136 ,-1.04276 ,-10.23154 
459 ,86.9301 ,1.56323 ,-1.06329 ,-10.43301 
460 ,87.1217 ,1.56511 ,-1.05302 ,-10.33227 
461 ,87.2978 ,1.56686 ,-1.07356 ,-10.53374 
462 ,87.4902 ,1.56884 ,-1.09067 ,-10.70163 
