Data stamp = , 21-04-2022 15:31:41 472

Calibration Values: 
Slope = , 26.54 , g/V 
Offset Voltage at no contact = , -0.501760 , V 

No , Time , Stage Position ,   Mass , Force 
   ,  (s) ,      (mm)      ,   (g)  , (mN)  

1 ,0.0000 ,0.74939 ,4.98710 ,48.93343 
2 ,0.2038 ,0.74949 ,4.98026 ,48.86627 
3 ,0.5722 ,0.75045 ,5.00421 ,49.10132 
4 ,0.7805 ,0.75210 ,4.99052 ,48.96701 
5 ,0.9721 ,0.75389 ,4.99052 ,48.96701 
6 ,1.1642 ,0.75571 ,4.99052 ,48.96701 
7 ,1.3402 ,0.75759 ,5.00421 ,49.10132 
8 ,1.5324 ,0.75939 ,5.00421 ,49.10132 
9 ,1.7243 ,0.76140 ,4.98026 ,48.86627 
10 ,1.9164 ,0.76334 ,4.99052 ,48.96701 
11 ,2.1409 ,0.76557 ,4.96657 ,48.73196 
12 ,2.3331 ,0.76751 ,4.95972 ,48.66480 
13 ,2.5412 ,0.76941 ,4.93577 ,48.42975 
14 ,2.7492 ,0.77159 ,4.92550 ,48.32902 
15 ,2.9249 ,0.77345 ,4.89812 ,48.06039 
16 ,3.1014 ,0.77520 ,4.88444 ,47.92608 
17 ,3.2932 ,0.77711 ,4.87075 ,47.79177 
18 ,3.4854 ,0.77903 ,4.84679 ,47.55672 
19 ,3.6776 ,0.78090 ,4.82968 ,47.38883 
20 ,3.8698 ,0.78277 ,4.80573 ,47.15378 
21 ,4.0457 ,0.78468 ,4.81599 ,47.25451 
22 ,4.2216 ,0.78634 ,4.78519 ,46.95231 
23 ,4.3978 ,0.78809 ,4.78177 ,46.91873 
24 ,4.5739 ,0.78989 ,4.74755 ,46.58295 
25 ,4.7499 ,0.79160 ,4.72359 ,46.34790 
26 ,4.9419 ,0.79358 ,4.72359 ,46.34790 
27 ,5.1340 ,0.79546 ,4.70648 ,46.18001 
28 ,5.3262 ,0.79734 ,4.69622 ,46.07927 
29 ,5.5022 ,0.79921 ,4.68253 ,45.94496 
30 ,5.6942 ,0.80109 ,4.65515 ,45.67633 
31 ,5.8704 ,0.80289 ,4.62435 ,45.37413 
32 ,6.0467 ,0.80461 ,4.61751 ,45.30697 
33 ,6.2548 ,0.80661 ,4.59355 ,45.07192 
34 ,6.4466 ,0.80854 ,4.58671 ,45.00477 
35 ,6.6388 ,0.81053 ,4.57302 ,44.87045 
36 ,6.8149 ,0.81230 ,4.54222 ,44.56825 
37 ,6.9910 ,0.81410 ,4.53195 ,44.46751 
38 ,7.1667 ,0.81582 ,4.50115 ,44.16531 
39 ,7.3592 ,0.81767 ,4.51484 ,44.29962 
40 ,7.5667 ,0.81977 ,4.50115 ,44.16531 
41 ,7.7591 ,0.82170 ,4.46693 ,43.82953 
42 ,7.9349 ,0.82352 ,4.44982 ,43.66163 
43 ,8.1115 ,0.82525 ,4.42586 ,43.42659 
44 ,8.3032 ,0.82709 ,4.43271 ,43.49374 
45 ,8.4956 ,0.82900 ,4.41560 ,43.32585 
46 ,8.6875 ,0.83095 ,4.38822 ,43.05723 
47 ,8.8636 ,0.83280 ,4.36769 ,42.85576 
48 ,9.0558 ,0.83467 ,4.34373 ,42.62071 
49 ,9.2318 ,0.83651 ,4.32662 ,42.45282 
50 ,9.3914 ,0.83818 ,4.31636 ,42.35208 
51 ,9.5680 ,0.83983 ,4.29240 ,42.11703 
52 ,9.7756 ,0.84183 ,4.28556 ,42.04988 
53 ,9.9522 ,0.84368 ,4.27529 ,41.94914 
54 ,10.1440 ,0.84553 ,4.26502 ,41.84841 
55 ,10.3523 ,0.84764 ,4.22738 ,41.47905 
56 ,10.5283 ,0.84938 ,4.21711 ,41.37831 
57 ,10.7362 ,0.85146 ,4.20000 ,41.21042 
58 ,10.9125 ,0.85324 ,4.17947 ,41.00895 
59 ,11.1208 ,0.85525 ,4.17605 ,40.97537 
60 ,11.2965 ,0.85716 ,4.13840 ,40.60601 
61 ,11.4885 ,0.85898 ,4.14525 ,40.67317 
62 ,11.6650 ,0.86077 ,4.13156 ,40.53885 
63 ,11.8730 ,0.86281 ,4.10760 ,40.30380 
64 ,12.0488 ,0.86465 ,4.09391 ,40.16949 
65 ,12.2252 ,0.86637 ,4.08023 ,40.03518 
66 ,12.4172 ,0.86827 ,4.05627 ,39.80013 
67 ,12.6250 ,0.87032 ,4.05627 ,39.80013 
68 ,12.8013 ,0.87211 ,4.03916 ,39.63224 
69 ,12.9774 ,0.87391 ,4.02205 ,39.46435 
70 ,13.1696 ,0.87585 ,3.99809 ,39.22930 
71 ,13.3618 ,0.87775 ,3.98783 ,39.12856 
72 ,13.5533 ,0.87966 ,3.96045 ,38.85994 
73 ,13.7618 ,0.88170 ,3.94334 ,38.69205 
74 ,13.9540 ,0.88364 ,3.92281 ,38.49058 
75 ,14.1459 ,0.88555 ,3.92623 ,38.52415 
76 ,14.3379 ,0.88743 ,3.90227 ,38.28911 
77 ,14.5142 ,0.88924 ,3.88516 ,38.12122 
78 ,14.7065 ,0.89114 ,3.87832 ,38.05406 
79 ,14.8984 ,0.89302 ,3.85436 ,37.81901 
80 ,15.1064 ,0.89511 ,3.84067 ,37.68470 
81 ,15.2984 ,0.89704 ,3.80645 ,37.34891 
82 ,15.4906 ,0.89908 ,3.79276 ,37.21460 
83 ,15.6826 ,0.90089 ,3.80303 ,37.31534 
84 ,15.8586 ,0.90274 ,3.77565 ,37.04671 
85 ,16.0508 ,0.90452 ,3.73459 ,36.64377 
86 ,16.2428 ,0.90647 ,3.73117 ,36.61019 
87 ,16.4029 ,0.90826 ,3.71748 ,36.47588 
88 ,16.5786 ,0.90988 ,3.70379 ,36.34157 
89 ,16.7712 ,0.91176 ,3.69352 ,36.24083 
90 ,16.9307 ,0.91357 ,3.66614 ,35.97220 
91 ,17.1068 ,0.91516 ,3.65930 ,35.90505 
92 ,17.2833 ,0.91695 ,3.64561 ,35.77073 
93 ,17.4750 ,0.91881 ,3.61823 ,35.50211 
94 ,17.6675 ,0.92072 ,3.61823 ,35.50211 
95 ,17.8434 ,0.92259 ,3.60454 ,35.36779 
96 ,18.0034 ,0.92422 ,3.59770 ,35.30064 
97 ,18.1637 ,0.92587 ,3.58743 ,35.19990 
98 ,18.3398 ,0.92752 ,3.56348 ,34.96485 
99 ,18.5314 ,0.92941 ,3.52584 ,34.59549 
100 ,18.6915 ,0.93113 ,3.52241 ,34.56192 
101 ,18.8680 ,0.93281 ,3.51899 ,34.52834 
102 ,19.0599 ,0.93472 ,3.50872 ,34.42760 
103 ,19.2357 ,0.93647 ,3.48135 ,34.15898 
104 ,19.4120 ,0.93821 ,3.45739 ,33.92393 
105 ,19.6042 ,0.94017 ,3.45739 ,33.92393 
106 ,19.7802 ,0.94189 ,3.43686 ,33.72246 
107 ,19.9724 ,0.94377 ,3.41290 ,33.48741 
108 ,20.1483 ,0.94553 ,3.40264 ,33.38667 
109 ,20.3406 ,0.94741 ,3.38895 ,33.25236 
110 ,20.5326 ,0.94945 ,3.34788 ,32.84942 
111 ,20.7408 ,0.95141 ,3.35815 ,32.95016 
112 ,20.9328 ,0.95331 ,3.33077 ,32.68153 
113 ,21.1249 ,0.95530 ,3.32393 ,32.61437 
114 ,21.3010 ,0.95712 ,3.31366 ,32.51364 
115 ,21.5090 ,0.95916 ,3.29655 ,32.34575 
116 ,21.7011 ,0.96111 ,3.27259 ,32.11070 
117 ,21.9091 ,0.96305 ,3.25206 ,31.90923 
118 ,22.1010 ,0.96502 ,3.24522 ,31.84207 
119 ,22.2769 ,0.96700 ,3.21100 ,31.50629 
120 ,22.4535 ,0.96862 ,3.20073 ,31.40555 
121 ,22.6451 ,0.97044 ,3.19731 ,31.37198 
122 ,22.8214 ,0.97231 ,3.18020 ,31.20409 
123 ,22.9976 ,0.97406 ,3.15624 ,30.96904 
124 ,23.1737 ,0.97583 ,3.12544 ,30.66683 
125 ,23.3655 ,0.97770 ,3.14940 ,30.90188 
126 ,23.5419 ,0.97948 ,3.12202 ,30.63325 
127 ,23.7180 ,0.98131 ,3.11175 ,30.53252 
128 ,23.9101 ,0.98318 ,3.08438 ,30.26389 
129 ,24.1021 ,0.98510 ,3.07753 ,30.19674 
130 ,24.2783 ,0.98690 ,3.05358 ,29.96169 
131 ,24.4709 ,0.98875 ,3.03989 ,29.82737 
132 ,24.6625 ,0.99076 ,3.02278 ,29.65948 
133 ,24.8545 ,0.99265 ,2.98855 ,29.32370 
134 ,25.0464 ,0.99449 ,2.99882 ,29.42444 
135 ,25.2382 ,0.99649 ,2.96802 ,29.12223 
136 ,25.4147 ,0.99822 ,2.94749 ,28.92076 
137 ,25.6062 ,1.00004 ,2.94407 ,28.88718 
138 ,25.7985 ,1.00198 ,2.91327 ,28.58498 
139 ,25.9747 ,1.00383 ,2.90642 ,28.51782 
140 ,26.1830 ,1.00579 ,2.90300 ,28.48424 
141 ,26.4066 ,1.00800 ,2.89273 ,28.38351 
142 ,26.5831 ,1.00988 ,2.87220 ,28.18204 
143 ,26.7588 ,1.01166 ,2.83456 ,27.81268 
144 ,26.9512 ,1.01358 ,2.83456 ,27.81268 
145 ,27.1271 ,1.01533 ,2.81745 ,27.64479 
146 ,27.3194 ,1.01730 ,2.79007 ,27.37616 
147 ,27.4953 ,1.01902 ,2.75927 ,27.07395 
148 ,27.6715 ,1.02084 ,2.77296 ,27.20827 
149 ,27.8474 ,1.02252 ,2.75243 ,27.00680 
150 ,28.0395 ,1.02438 ,2.72163 ,26.70459 
151 ,28.2157 ,1.02622 ,2.71136 ,26.60386 
152 ,28.3918 ,1.02799 ,2.69425 ,26.43597 
153 ,28.5679 ,1.02976 ,2.69767 ,26.46954 
154 ,28.7760 ,1.03179 ,2.65318 ,26.03303 
155 ,28.9841 ,1.03383 ,2.65660 ,26.06661 
156 ,29.1601 ,1.03567 ,2.63265 ,25.83156 
157 ,29.3358 ,1.03743 ,2.62581 ,25.76440 
158 ,29.5123 ,1.03916 ,2.61896 ,25.69724 
159 ,29.7200 ,1.04118 ,2.58816 ,25.39504 
160 ,29.9125 ,1.04309 ,2.57105 ,25.22715 
161 ,30.1045 ,1.04516 ,2.55052 ,25.02568 
162 ,30.2805 ,1.04688 ,2.53683 ,24.89136 
163 ,30.4566 ,1.04865 ,2.51630 ,24.68989 
164 ,30.6328 ,1.05039 ,2.51972 ,24.72347 
165 ,30.8244 ,1.05228 ,2.49576 ,24.48842 
166 ,31.0169 ,1.05415 ,2.47865 ,24.32053 
167 ,31.2250 ,1.05626 ,2.46496 ,24.18622 
168 ,31.4168 ,1.05817 ,2.43416 ,23.88402 
169 ,31.5928 ,1.05999 ,2.42732 ,23.81686 
170 ,31.7852 ,1.06193 ,2.42048 ,23.74970 
171 ,31.9933 ,1.06393 ,2.40336 ,23.58181 
172 ,32.1854 ,1.06584 ,2.39652 ,23.51465 
173 ,32.3935 ,1.06785 ,2.37941 ,23.34676 
174 ,32.5855 ,1.06983 ,2.35545 ,23.11171 
175 ,32.7776 ,1.07170 ,2.33834 ,22.94382 
176 ,32.9692 ,1.07374 ,2.33492 ,22.91024 
177 ,33.1619 ,1.07563 ,2.32123 ,22.77593 
178 ,33.3539 ,1.07760 ,2.28359 ,22.40657 
179 ,33.5459 ,1.07950 ,2.25963 ,22.17152 
180 ,33.7221 ,1.08123 ,2.25279 ,22.10437 
181 ,33.9140 ,1.08318 ,2.24594 ,22.03721 
182 ,34.1058 ,1.08506 ,2.22883 ,21.86932 
183 ,34.2823 ,1.08686 ,2.21172 ,21.70143 
184 ,34.4743 ,1.08877 ,2.20488 ,21.63427 
185 ,34.6823 ,1.09079 ,2.16723 ,21.26491 
186 ,34.8744 ,1.09270 ,2.15355 ,21.13059 
187 ,35.0506 ,1.09455 ,2.15355 ,21.13059 
188 ,35.2423 ,1.09642 ,2.13301 ,20.92912 
189 ,35.4347 ,1.09846 ,2.11248 ,20.72766 
190 ,35.6107 ,1.10016 ,2.11932 ,20.79481 
191 ,35.8028 ,1.10204 ,2.08510 ,20.45903 
192 ,35.9789 ,1.10382 ,2.07826 ,20.39187 
193 ,36.1546 ,1.10561 ,2.06115 ,20.22398 
194 ,36.3470 ,1.10744 ,2.05088 ,20.12325 
195 ,36.5392 ,1.10939 ,2.02008 ,19.82104 
196 ,36.7313 ,1.11134 ,2.02350 ,19.85462 
197 ,36.9230 ,1.11324 ,1.99955 ,19.61957 
198 ,37.0992 ,1.11503 ,1.97559 ,19.38452 
199 ,37.2911 ,1.11695 ,1.97217 ,19.35094 
200 ,37.4671 ,1.11870 ,1.96533 ,19.28379 
201 ,37.6436 ,1.12050 ,1.94479 ,19.08232 
202 ,37.8197 ,1.12225 ,1.91742 ,18.81369 
203 ,38.0117 ,1.12414 ,1.91742 ,18.81369 
204 ,38.1878 ,1.12590 ,1.90031 ,18.64580 
205 ,38.3799 ,1.12783 ,1.87293 ,18.37717 
206 ,38.5721 ,1.12962 ,1.86266 ,18.27644 
207 ,38.7642 ,1.13163 ,1.84897 ,18.14213 
208 ,38.9561 ,1.13357 ,1.84213 ,18.07497 
209 ,39.1323 ,1.13536 ,1.83871 ,18.04139 
210 ,39.3243 ,1.13727 ,1.81475 ,17.80634 
211 ,39.5000 ,1.13901 ,1.79422 ,17.60487 
212 ,39.6921 ,1.14096 ,1.79080 ,17.57129 
213 ,39.8683 ,1.14274 ,1.77711 ,17.43698 
214 ,40.0446 ,1.14449 ,1.75657 ,17.23551 
215 ,40.2524 ,1.14635 ,1.73604 ,17.03404 
216 ,40.4443 ,1.14844 ,1.72920 ,16.96689 
217 ,40.6365 ,1.15039 ,1.72578 ,16.93331 
218 ,40.8450 ,1.15240 ,1.68129 ,16.49679 
219 ,41.0530 ,1.15449 ,1.69840 ,16.66468 
220 ,41.2451 ,1.15640 ,1.66075 ,16.29532 
221 ,41.4372 ,1.15833 ,1.64707 ,16.16101 
222 ,41.6130 ,1.16019 ,1.65391 ,16.22816 
223 ,41.7892 ,1.16192 ,1.63680 ,16.06027 
224 ,41.9659 ,1.16365 ,1.61284 ,15.82522 
225 ,42.1575 ,1.16555 ,1.60600 ,15.75807 
226 ,42.3816 ,1.16766 ,1.56836 ,15.38871 
227 ,42.5735 ,1.16972 ,1.58547 ,15.55660 
228 ,42.7659 ,1.17171 ,1.55809 ,15.28797 
229 ,42.9577 ,1.17362 ,1.52387 ,14.95219 
230 ,43.1339 ,1.17533 ,1.52729 ,14.98577 
231 ,43.2937 ,1.17709 ,1.51360 ,14.85145 
232 ,43.4705 ,1.17870 ,1.50333 ,14.75072 
233 ,43.8380 ,1.18145 ,1.46569 ,14.38136 
234 ,44.0139 ,1.18416 ,1.44174 ,14.14631 
235 ,44.1903 ,1.18593 ,1.45200 ,14.24704 
236 ,44.3825 ,1.18775 ,1.43147 ,14.04557 
237 ,44.5746 ,1.18972 ,1.43147 ,14.04557 
238 ,44.7507 ,1.19154 ,1.41094 ,13.84410 
239 ,44.9428 ,1.19340 ,1.37671 ,13.50832 
240 ,45.1669 ,1.19552 ,1.37329 ,13.47474 
241 ,45.3588 ,1.19754 ,1.34934 ,13.23969 
242 ,45.5348 ,1.19935 ,1.32880 ,13.03822 
243 ,45.7268 ,1.20120 ,1.32538 ,13.00465 
244 ,45.8866 ,1.20298 ,1.30827 ,12.83675 
245 ,46.0628 ,1.20464 ,1.30143 ,12.76960 
246 ,46.2392 ,1.20639 ,1.28432 ,12.60171 
247 ,46.4147 ,1.20823 ,1.28089 ,12.56813 
248 ,46.5908 ,1.20996 ,1.26036 ,12.36666 
249 ,46.7670 ,1.21171 ,1.24325 ,12.19877 
250 ,46.9430 ,1.21342 ,1.22614 ,12.03088 
251 ,47.1192 ,1.21522 ,1.22272 ,11.99730 
252 ,47.3118 ,1.21709 ,1.21929 ,11.96372 
253 ,47.5037 ,1.21900 ,1.17823 ,11.56078 
254 ,47.6956 ,1.22091 ,1.18850 ,11.66151 
255 ,47.8720 ,1.22273 ,1.17138 ,11.49362 
256 ,48.0637 ,1.22461 ,1.14743 ,11.25857 
257 ,48.2400 ,1.22640 ,1.13032 ,11.09068 
258 ,48.4481 ,1.22841 ,1.12005 ,10.98995 
259 ,48.6562 ,1.23048 ,1.09610 ,10.75490 
260 ,48.8482 ,1.23238 ,1.08583 ,10.65416 
261 ,49.0242 ,1.23423 ,1.08241 ,10.62059 
262 ,49.2162 ,1.23612 ,1.05845 ,10.38554 
263 ,49.4245 ,1.23812 ,1.04134 ,10.21765 
264 ,49.6166 ,1.24007 ,1.04134 ,10.21765 
265 ,49.8248 ,1.24217 ,1.02423 ,10.04976 
266 ,50.0008 ,1.24397 ,1.00028 ,9.81471 
267 ,50.1929 ,1.24595 ,0.99001 ,9.71397 
268 ,50.3850 ,1.24784 ,0.98317 ,9.64682 
269 ,50.5770 ,1.24965 ,0.97974 ,9.61324 
270 ,50.7691 ,1.25166 ,0.95237 ,9.34461 
271 ,50.9770 ,1.25359 ,0.95237 ,9.34461 
272 ,51.1530 ,1.25549 ,0.94210 ,9.24388 
273 ,51.3292 ,1.25729 ,0.93183 ,9.14314 
274 ,51.5214 ,1.25920 ,0.89761 ,8.80736 
275 ,51.7133 ,1.26100 ,0.89761 ,8.80736 
276 ,51.8895 ,1.26286 ,0.88050 ,8.63947 
277 ,52.0814 ,1.26477 ,0.85312 ,8.37084 
278 ,52.2732 ,1.26672 ,0.85997 ,8.43800 
279 ,52.4662 ,1.26861 ,0.82232 ,8.06864 
280 ,52.6574 ,1.27057 ,0.81206 ,7.96790 
281 ,52.8498 ,1.27249 ,0.80863 ,7.93432 
282 ,53.0580 ,1.27452 ,0.79152 ,7.76643 
283 ,53.2500 ,1.27638 ,0.78810 ,7.73285 
284 ,53.4257 ,1.27819 ,0.77784 ,7.63212 
285 ,53.6021 ,1.27998 ,0.75046 ,7.36349 
286 ,53.7778 ,1.28172 ,0.74019 ,7.26276 
287 ,53.9544 ,1.28352 ,0.72992 ,7.16202 
288 ,54.1621 ,1.28546 ,0.69228 ,6.79266 
289 ,54.3384 ,1.28736 ,0.70939 ,6.96055 
290 ,54.5144 ,1.28916 ,0.67859 ,6.65835 
291 ,54.7066 ,1.29097 ,0.67859 ,6.65835 
292 ,54.8987 ,1.29290 ,0.66490 ,6.52403 
293 ,55.0908 ,1.29488 ,0.65806 ,6.45688 
294 ,55.2828 ,1.29680 ,0.63410 ,6.22183 
295 ,55.4745 ,1.29862 ,0.63753 ,6.25541 
296 ,55.6507 ,1.30049 ,0.62726 ,6.15467 
297 ,55.8592 ,1.30253 ,0.59646 ,5.85247 
298 ,56.0828 ,1.30463 ,0.58277 ,5.71815 
299 ,56.2593 ,1.30658 ,0.56908 ,5.58384 
300 ,56.4669 ,1.30854 ,0.56224 ,5.51668 
301 ,56.6433 ,1.31039 ,0.54171 ,5.31522 
302 ,56.8194 ,1.31216 ,0.52459 ,5.14732 
303 ,56.9955 ,1.31393 ,0.52459 ,5.14732 
304 ,57.1715 ,1.31566 ,0.50748 ,4.97943 
305 ,57.3638 ,1.31754 ,0.48011 ,4.71081 
306 ,57.5557 ,1.31945 ,0.47668 ,4.67723 
307 ,57.7318 ,1.32141 ,0.46300 ,4.54291 
308 ,57.9079 ,1.32302 ,0.44931 ,4.40860 
309 ,58.0840 ,1.32485 ,0.45273 ,4.44218 
310 ,58.2760 ,1.32665 ,0.43220 ,4.24071 
311 ,58.4842 ,1.32862 ,0.41166 ,4.03924 
312 ,58.6762 ,1.33073 ,0.41851 ,4.10640 
313 ,58.8523 ,1.33250 ,0.39797 ,3.90493 
314 ,59.0605 ,1.33454 ,0.37402 ,3.66988 
315 ,59.2526 ,1.33642 ,0.36033 ,3.53557 
316 ,59.4445 ,1.33831 ,0.33980 ,3.33410 
317 ,59.6205 ,1.34018 ,0.33638 ,3.30052 
318 ,59.7963 ,1.34187 ,0.32953 ,3.23336 
319 ,59.9888 ,1.34378 ,0.30558 ,2.99831 
320 ,60.1650 ,1.34562 ,0.28504 ,2.79684 
321 ,60.3729 ,1.34761 ,0.28847 ,2.83042 
322 ,60.5489 ,1.34946 ,0.27820 ,2.72969 
323 ,60.7410 ,1.35136 ,0.25082 ,2.46106 
324 ,60.9011 ,1.35305 ,0.27135 ,2.66253 
325 ,61.0770 ,1.35470 ,0.24055 ,2.36032 
326 ,61.2533 ,1.35645 ,0.24398 ,2.39390 
327 ,61.4452 ,1.35831 ,0.22002 ,2.15885 
328 ,61.6215 ,1.36018 ,0.20291 ,1.99096 
329 ,61.8135 ,1.36204 ,0.19607 ,1.92381 
330 ,62.0055 ,1.36397 ,0.16869 ,1.65518 
331 ,62.1816 ,1.36577 ,0.15842 ,1.55445 
332 ,62.3738 ,1.36764 ,0.15158 ,1.48729 
333 ,62.5818 ,1.36958 ,0.14473 ,1.42013 
334 ,62.7898 ,1.37175 ,0.11393 ,1.11793 
335 ,62.9662 ,1.37359 ,0.10367 ,1.01719 
336 ,63.1581 ,1.37552 ,0.10709 ,1.05077 
337 ,63.3660 ,1.37752 ,0.08656 ,0.84930 
338 ,63.5422 ,1.37937 ,0.07971 ,0.78214 
339 ,63.7182 ,1.38114 ,0.06602 ,0.64783 
340 ,63.8943 ,1.38290 ,0.05234 ,0.51352 
341 ,64.1021 ,1.38494 ,0.05576 ,0.54710 
342 ,64.2943 ,1.38682 ,0.02154 ,0.21131 
343 ,64.4711 ,1.38864 ,0.01127 ,0.11058 
344 ,64.6629 ,1.39052 ,0.01127 ,0.11058 
345 ,64.8548 ,1.39248 ,-0.00926 ,-0.09089 
346 ,65.0467 ,1.39431 ,-0.03664 ,-0.35952 
347 ,65.2229 ,1.39612 ,-0.02980 ,-0.29236 
348 ,65.3990 ,1.39793 ,-0.04006 ,-0.39310 
349 ,65.5911 ,1.39973 ,-0.06744 ,-0.66172 
350 ,65.7832 ,1.40170 ,-0.06060 ,-0.59457 
351 ,65.9593 ,1.40350 ,-0.07086 ,-0.69530 
352 ,66.1672 ,1.40552 ,-0.09482 ,-0.93035 
353 ,66.3434 ,1.40731 ,-0.08797 ,-0.86319 
354 ,66.5356 ,1.40925 ,-0.10851 ,-1.06466 
355 ,66.7116 ,1.41103 ,-0.12219 ,-1.19898 
356 ,66.9035 ,1.41294 ,-0.14615 ,-1.43402 
357 ,67.0797 ,1.41475 ,-0.14273 ,-1.40045 
358 ,67.2716 ,1.41666 ,-0.16326 ,-1.60191 
359 ,67.4639 ,1.41849 ,-0.17011 ,-1.66907 
360 ,67.6716 ,1.42053 ,-0.17695 ,-1.73623 
361 ,67.8801 ,1.42262 ,-0.18722 ,-1.83696 
362 ,68.0723 ,1.42466 ,-0.20090 ,-1.97128 
363 ,68.2642 ,1.42650 ,-0.20090 ,-1.97128 
364 ,68.4399 ,1.42830 ,-0.21459 ,-2.10559 
365 ,68.6163 ,1.43005 ,-0.22486 ,-2.20632 
366 ,68.8083 ,1.43195 ,-0.23513 ,-2.30706 
367 ,68.9846 ,1.43375 ,-0.25224 ,-2.47495 
368 ,69.1764 ,1.43566 ,-0.24539 ,-2.40779 
369 ,69.3528 ,1.43746 ,-0.27961 ,-2.74358 
370 ,69.5287 ,1.43922 ,-0.29673 ,-2.91147 
371 ,69.7048 ,1.44100 ,-0.28304 ,-2.77716 
372 ,69.8808 ,1.44272 ,-0.29673 ,-2.91147 
373 ,70.0729 ,1.44463 ,-0.32068 ,-3.14652 
374 ,70.2488 ,1.44642 ,-0.34121 ,-3.34799 
375 ,70.4251 ,1.44817 ,-0.33437 ,-3.28083 
376 ,70.6171 ,1.44996 ,-0.34121 ,-3.34799 
377 ,70.8093 ,1.45190 ,-0.35832 ,-3.51588 
378 ,70.9855 ,1.45374 ,-0.38228 ,-3.75093 
379 ,71.1775 ,1.45560 ,-0.38570 ,-3.78450 
380 ,71.3855 ,1.45767 ,-0.39939 ,-3.91882 
381 ,71.5614 ,1.45955 ,-0.40281 ,-3.95240 
382 ,71.7699 ,1.46148 ,-0.42335 ,-4.15387 
383 ,71.9457 ,1.46336 ,-0.44388 ,-4.35534 
384 ,72.1219 ,1.46515 ,-0.43019 ,-4.22102 
385 ,72.3139 ,1.46710 ,0.81890 ,8.03506 
386 ,72.4900 ,1.46879 ,0.87366 ,8.57231 
387 ,72.6816 ,1.47066 ,0.89761 ,8.80736 
388 ,72.8582 ,1.47247 ,0.90446 ,8.87451 
389 ,73.0502 ,1.47432 ,0.88392 ,8.67305 
390 ,73.2584 ,1.47637 ,0.89077 ,8.74020 
391 ,73.4502 ,1.47833 ,0.87366 ,8.57231 
392 ,73.6426 ,1.48026 ,0.89761 ,8.80736 
393 ,73.8667 ,1.48249 ,0.86681 ,8.50515 
394 ,74.0747 ,1.48455 ,0.85654 ,8.40442 
395 ,74.2665 ,1.48652 ,0.84970 ,8.33726 
396 ,74.4430 ,1.48835 ,0.83601 ,8.20295 
397 ,74.6350 ,1.49018 ,0.83601 ,8.20295 
398 ,74.8429 ,1.49217 ,0.81890 ,8.03506 
399 ,75.0192 ,1.49407 ,0.83943 ,8.23653 
400 ,75.2111 ,1.49595 ,0.80863 ,7.93432 
401 ,75.3873 ,1.49776 ,0.81548 ,8.00148 
402 ,75.5793 ,1.49965 ,0.82575 ,8.10221 
403 ,75.7712 ,1.50152 ,0.80179 ,7.86717 
404 ,75.9472 ,1.50334 ,0.77784 ,7.63212 
405 ,76.1395 ,1.50531 ,0.80863 ,7.93432 
406 ,76.3156 ,1.50708 ,0.78468 ,7.69927 
407 ,76.5077 ,1.50889 ,0.78468 ,7.69927 
408 ,76.6998 ,1.51079 ,0.78468 ,7.69927 
409 ,76.8757 ,1.51261 ,0.77441 ,7.59854 
410 ,77.0680 ,1.51452 ,0.75730 ,7.43065 
411 ,77.2759 ,1.51660 ,0.75730 ,7.43065 
412 ,77.4522 ,1.51844 ,0.74704 ,7.32991 
413 ,77.6443 ,1.52033 ,0.76072 ,7.46423 
414 ,77.8363 ,1.52218 ,0.74361 ,7.29633 
415 ,78.0280 ,1.52414 ,0.73335 ,7.19560 
416 ,78.2205 ,1.52603 ,0.74704 ,7.32991 
417 ,78.4281 ,1.52810 ,0.71281 ,6.99413 
418 ,78.6043 ,1.52987 ,0.72992 ,7.16202 
419 ,78.7802 ,1.53172 ,0.72650 ,7.12844 
420 ,78.9732 ,1.53348 ,0.71966 ,7.06129 
421 ,79.1968 ,1.53564 ,0.68886 ,6.75908 
422 ,79.3890 ,1.53769 ,0.69913 ,6.85982 
423 ,79.5810 ,1.53963 ,0.70255 ,6.89340 
424 ,79.7571 ,1.54139 ,0.68544 ,6.72550 
425 ,79.9492 ,1.54342 ,0.67859 ,6.65835 
426 ,80.1568 ,1.54539 ,0.67859 ,6.65835 
427 ,80.3493 ,1.54727 ,0.68201 ,6.69193 
428 ,80.5572 ,1.54934 ,0.67175 ,6.59119 
429 ,80.7495 ,1.55125 ,0.65464 ,6.42330 
430 ,80.9416 ,1.55333 ,0.67175 ,6.59119 
431 ,81.1337 ,1.55514 ,0.64779 ,6.35614 
432 ,81.3259 ,1.55703 ,0.67859 ,6.65835 
433 ,81.5019 ,1.55890 ,0.65121 ,6.38972 
434 ,81.6936 ,1.56078 ,0.63068 ,6.18825 
435 ,81.8699 ,1.56251 ,0.64779 ,6.35614 
436 ,82.0460 ,1.56431 ,0.62384 ,6.12109 
437 ,82.2221 ,1.56611 ,0.63753 ,6.25541 
438 ,82.4142 ,1.56797 ,0.60330 ,5.91962 
439 ,82.5903 ,1.56976 ,0.62726 ,6.15467 
440 ,82.7824 ,1.57168 ,0.61015 ,5.98678 
441 ,82.9905 ,1.57372 ,0.59646 ,5.85247 
442 ,83.1824 ,1.57560 ,0.61015 ,5.98678 
443 ,83.3902 ,1.57769 ,0.62042 ,6.08752 
444 ,83.5828 ,1.57957 ,0.61357 ,6.02036 
445 ,83.7585 ,1.58142 ,0.59646 ,5.85247 
446 ,83.9347 ,1.58321 ,0.59988 ,5.88605 
447 ,84.1268 ,1.58503 ,0.59646 ,5.85247 
448 ,84.3188 ,1.58694 ,0.57251 ,5.61742 
449 ,84.4945 ,1.58888 ,0.56224 ,5.51668 
450 ,84.6871 ,1.59066 ,0.60673 ,5.95320 
451 ,84.8951 ,1.59273 ,0.58619 ,5.75173 
452 ,85.0713 ,1.59460 ,0.56566 ,5.55026 
453 ,85.2473 ,1.59633 ,0.56908 ,5.58384 
454 ,85.4232 ,1.59811 ,0.57935 ,5.68458 
455 ,85.6154 ,1.59996 ,0.56224 ,5.51668 
456 ,85.7914 ,1.60177 ,0.56224 ,5.51668 
457 ,85.9680 ,1.60353 ,0.56224 ,5.51668 
458 ,86.1598 ,1.60543 ,0.55539 ,5.44953 
459 ,86.3519 ,1.60733 ,0.55539 ,5.44953 
460 ,86.5599 ,1.60935 ,0.56908 ,5.58384 
461 ,86.7520 ,1.61130 ,0.54513 ,5.34879 
462 ,86.9441 ,1.61321 ,0.54513 ,5.34879 
463 ,87.1203 ,1.61507 ,0.55197 ,5.41595 
464 ,87.3122 ,1.61691 ,0.54171 ,5.31522 
465 ,87.5044 ,1.61882 ,0.54171 ,5.31522 
466 ,87.6960 ,1.62088 ,0.54855 ,5.38237 
