Data stamp = , 22-04-2022 04:43:25 945

Calibration Values: 
Slope = , 26.54 , g/V 
Offset Voltage at no contact = , -0.501760 , V 

No , Time , Stage Position ,   Mass , Force 
   ,  (s) ,      (mm)      ,   (g)  , (mN)  

1 ,0.0000 ,0.69936 ,5.32589 ,52.25768 
2 ,0.2152 ,0.69945 ,5.31905 ,52.19052 
3 ,0.5359 ,0.70030 ,5.30878 ,52.08979 
4 ,0.7438 ,0.70183 ,5.32589 ,52.25768 
5 ,0.9359 ,0.70343 ,5.32589 ,52.25768 
6 ,1.1440 ,0.70557 ,5.30878 ,52.08979 
7 ,1.3361 ,0.70742 ,5.31905 ,52.19052 
8 ,1.5280 ,0.70931 ,5.30194 ,52.02263 
9 ,1.7202 ,0.71124 ,5.31221 ,52.12337 
10 ,1.9282 ,0.71334 ,5.28483 ,51.85474 
11 ,2.1204 ,0.71530 ,5.28825 ,51.88832 
12 ,2.3125 ,0.71728 ,5.24376 ,51.45180 
13 ,2.5365 ,0.71932 ,5.24376 ,51.45180 
14 ,2.7125 ,0.72129 ,5.21296 ,51.14960 
15 ,2.8885 ,0.72301 ,5.19243 ,50.94813 
16 ,3.0649 ,0.72481 ,5.18216 ,50.84739 
17 ,3.2568 ,0.72665 ,5.16505 ,50.67950 
18 ,3.4329 ,0.72850 ,5.14452 ,50.47803 
19 ,3.6249 ,0.73043 ,5.15136 ,50.54519 
20 ,3.8171 ,0.73223 ,5.13083 ,50.34372 
21 ,4.0089 ,0.73419 ,5.09661 ,50.00793 
22 ,4.1851 ,0.73601 ,5.07608 ,49.80646 
23 ,4.3609 ,0.73776 ,5.07608 ,49.80646 
24 ,4.5370 ,0.73945 ,5.06581 ,49.70573 
25 ,4.7133 ,0.74128 ,5.04870 ,49.53784 
26 ,4.9051 ,0.74325 ,5.02132 ,49.26921 
27 ,5.0815 ,0.74491 ,4.99394 ,49.00058 
28 ,5.2574 ,0.74668 ,4.99052 ,48.96701 
29 ,5.4337 ,0.74844 ,4.96999 ,48.76554 
30 ,5.6094 ,0.75028 ,4.95288 ,48.59764 
31 ,5.8017 ,0.75213 ,4.93919 ,48.46333 
32 ,5.9939 ,0.75410 ,4.91866 ,48.26186 
33 ,6.2020 ,0.75603 ,4.89470 ,48.02681 
34 ,6.3941 ,0.75806 ,4.88786 ,47.95966 
35 ,6.5701 ,0.75981 ,4.86048 ,47.69103 
36 ,6.7781 ,0.76182 ,4.85021 ,47.59030 
37 ,6.9703 ,0.76372 ,4.83995 ,47.48956 
38 ,7.1783 ,0.76584 ,4.81941 ,47.28809 
39 ,7.3704 ,0.76775 ,4.78861 ,46.98589 
40 ,7.5626 ,0.76965 ,4.75782 ,46.68368 
41 ,7.7386 ,0.77148 ,4.77150 ,46.81800 
42 ,7.9307 ,0.77341 ,4.74755 ,46.58295 
43 ,8.1383 ,0.77542 ,4.73728 ,46.48221 
44 ,8.3309 ,0.77730 ,4.71675 ,46.28074 
45 ,8.5069 ,0.77925 ,4.69279 ,46.04569 
46 ,8.6988 ,0.78109 ,4.68937 ,46.01212 
47 ,8.8747 ,0.78291 ,4.66884 ,45.81065 
48 ,9.0832 ,0.78476 ,4.65857 ,45.70991 
49 ,9.2753 ,0.78682 ,4.64146 ,45.54202 
50 ,9.4834 ,0.78874 ,4.59355 ,45.07192 
51 ,9.6755 ,0.79088 ,4.59697 ,45.10550 
52 ,9.8674 ,0.79269 ,4.57302 ,44.87045 
53 ,10.0437 ,0.79453 ,4.54906 ,44.63541 
54 ,10.2518 ,0.79660 ,4.54564 ,44.60183 
55 ,10.4439 ,0.79848 ,4.52169 ,44.36678 
56 ,10.6360 ,0.80040 ,4.51142 ,44.26604 
57 ,10.8436 ,0.80252 ,4.48062 ,43.96384 
58 ,11.0036 ,0.80426 ,4.48062 ,43.96384 
59 ,11.1960 ,0.80594 ,4.45666 ,43.72879 
60 ,11.3722 ,0.80782 ,4.44298 ,43.59448 
61 ,11.5645 ,0.80970 ,4.40875 ,43.25870 
62 ,11.7723 ,0.81168 ,4.40533 ,43.22512 
63 ,11.9643 ,0.81365 ,4.38480 ,43.02365 
64 ,12.1405 ,0.81552 ,4.36084 ,42.78860 
65 ,12.3164 ,0.81725 ,4.35058 ,42.68786 
66 ,12.4929 ,0.81902 ,4.36084 ,42.78860 
67 ,12.7008 ,0.82095 ,4.33004 ,42.48639 
68 ,12.9088 ,0.82311 ,4.29240 ,42.11703 
69 ,13.1010 ,0.82506 ,4.28213 ,42.01630 
70 ,13.2769 ,0.82693 ,4.28556 ,42.04988 
71 ,13.4691 ,0.82874 ,4.26502 ,41.84841 
72 ,13.6450 ,0.83060 ,4.24449 ,41.64694 
73 ,13.8372 ,0.83240 ,4.22738 ,41.47905 
74 ,14.0292 ,0.83431 ,4.20685 ,41.27758 
75 ,14.2210 ,0.83626 ,4.19316 ,41.14326 
76 ,14.4132 ,0.83817 ,4.18289 ,41.04253 
77 ,14.6213 ,0.84030 ,4.15209 ,40.74032 
78 ,14.8138 ,0.84218 ,4.15894 ,40.80748 
79 ,15.0055 ,0.84410 ,4.12471 ,40.47170 
80 ,15.1815 ,0.84588 ,4.09734 ,40.20307 
81 ,15.3575 ,0.84769 ,4.09391 ,40.16949 
82 ,15.5496 ,0.84949 ,4.09049 ,40.13591 
83 ,15.7421 ,0.85142 ,4.06654 ,39.90087 
84 ,15.9338 ,0.85340 ,4.04943 ,39.73297 
85 ,16.1261 ,0.85532 ,4.01178 ,39.36361 
86 ,16.3021 ,0.85714 ,4.00494 ,39.29646 
87 ,16.4779 ,0.85882 ,4.00836 ,39.33003 
88 ,16.6543 ,0.86061 ,3.99467 ,39.19572 
89 ,16.8305 ,0.86235 ,3.98098 ,39.06141 
90 ,17.0382 ,0.86445 ,3.94334 ,38.69205 
91 ,17.2147 ,0.86620 ,3.93650 ,38.62489 
92 ,17.4224 ,0.86815 ,3.91596 ,38.42342 
93 ,17.6148 ,0.87016 ,3.90227 ,38.28911 
94 ,17.8066 ,0.87214 ,3.88858 ,38.15479 
95 ,17.9988 ,0.87404 ,3.87147 ,37.98690 
96 ,18.1911 ,0.87590 ,3.86463 ,37.91975 
97 ,18.3831 ,0.87780 ,3.83383 ,37.61754 
98 ,18.5588 ,0.87969 ,3.79619 ,37.24818 
99 ,18.7352 ,0.88143 ,3.81330 ,37.41607 
100 ,18.9434 ,0.88350 ,3.78250 ,37.11387 
101 ,19.1354 ,0.88538 ,3.78250 ,37.11387 
102 ,19.3275 ,0.88727 ,3.74485 ,36.74450 
103 ,19.5037 ,0.88911 ,3.73117 ,36.61019 
104 ,19.7273 ,0.89116 ,3.73117 ,36.61019 
105 ,19.9197 ,0.89322 ,3.71405 ,36.44230 
106 ,20.1119 ,0.89507 ,3.68668 ,36.17367 
107 ,20.3040 ,0.89713 ,3.66957 ,36.00578 
108 ,20.5119 ,0.89905 ,3.65930 ,35.90505 
109 ,20.6877 ,0.90097 ,3.61823 ,35.50211 
110 ,20.8644 ,0.90274 ,3.61481 ,35.46853 
111 ,21.0563 ,0.90460 ,3.61823 ,35.50211 
112 ,21.2801 ,0.90670 ,3.59086 ,35.23348 
113 ,21.4564 ,0.90863 ,3.56348 ,34.96485 
114 ,21.6482 ,0.91051 ,3.55663 ,34.89770 
115 ,21.8244 ,0.91237 ,3.53268 ,34.66265 
116 ,22.0003 ,0.91399 ,3.51557 ,34.49476 
117 ,22.1768 ,0.91584 ,3.50872 ,34.42760 
118 ,22.3846 ,0.91774 ,3.49846 ,34.32687 
119 ,22.5769 ,0.91976 ,3.48477 ,34.19255 
120 ,22.7530 ,0.92158 ,3.46766 ,34.02466 
121 ,22.9289 ,0.92342 ,3.43686 ,33.72246 
122 ,23.1212 ,0.92520 ,3.43001 ,33.65530 
123 ,23.3292 ,0.92731 ,3.41975 ,33.55457 
124 ,23.5051 ,0.92912 ,3.39579 ,33.31952 
125 ,23.6970 ,0.93100 ,3.38553 ,33.21878 
126 ,23.8734 ,0.93281 ,3.38553 ,33.21878 
127 ,24.0655 ,0.93466 ,3.36842 ,33.05089 
128 ,24.2736 ,0.93671 ,3.34446 ,32.81584 
129 ,24.4658 ,0.93864 ,3.30682 ,32.44648 
130 ,24.6576 ,0.94053 ,3.31024 ,32.48006 
131 ,24.8337 ,0.94240 ,3.30339 ,32.41290 
132 ,25.0258 ,0.94437 ,3.26917 ,32.07712 
133 ,25.2016 ,0.94604 ,3.25206 ,31.90923 
134 ,25.3780 ,0.94782 ,3.24522 ,31.84207 
135 ,25.5698 ,0.94967 ,3.23837 ,31.77492 
136 ,25.7462 ,0.95149 ,3.22468 ,31.64060 
137 ,25.9380 ,0.95336 ,3.20757 ,31.47271 
138 ,26.1301 ,0.95533 ,3.18362 ,31.23766 
139 ,26.3223 ,0.95722 ,3.16309 ,31.03619 
140 ,26.4983 ,0.95898 ,3.14255 ,30.83472 
141 ,26.6903 ,0.96097 ,3.15966 ,31.00262 
142 ,26.8661 ,0.96276 ,3.11518 ,30.56610 
143 ,27.0581 ,0.96457 ,3.10149 ,30.43178 
144 ,27.2341 ,0.96643 ,3.09806 ,30.39821 
145 ,27.3942 ,0.96809 ,3.08780 ,30.29747 
146 ,27.5866 ,0.96986 ,3.06726 ,30.09600 
147 ,27.8110 ,0.97212 ,3.04673 ,29.89453 
148 ,28.0024 ,0.97413 ,3.03304 ,29.76022 
149 ,28.1785 ,0.97588 ,3.01593 ,29.59233 
150 ,28.3548 ,0.97766 ,3.01593 ,29.59233 
151 ,28.5312 ,0.97935 ,2.99540 ,29.39086 
152 ,28.7392 ,0.98142 ,2.98513 ,29.29012 
153 ,28.9154 ,0.98317 ,2.96118 ,29.05507 
154 ,29.1234 ,0.98510 ,2.94064 ,28.85360 
155 ,29.3151 ,0.98725 ,2.91669 ,28.61856 
156 ,29.5073 ,0.98902 ,2.91327 ,28.58498 
157 ,29.6997 ,0.99099 ,2.87562 ,28.21562 
158 ,29.8918 ,0.99290 ,2.88589 ,28.31635 
159 ,30.0994 ,0.99484 ,2.85167 ,27.98057 
160 ,30.2759 ,0.99676 ,2.84825 ,27.94699 
161 ,30.4519 ,0.99859 ,2.83456 ,27.81268 
162 ,30.6599 ,1.00051 ,2.80376 ,27.51047 
163 ,30.8522 ,1.00240 ,2.79691 ,27.44332 
164 ,31.0603 ,1.00462 ,2.77296 ,27.20827 
165 ,31.2522 ,1.00654 ,2.77638 ,27.24185 
166 ,31.4281 ,1.00826 ,2.75927 ,27.07395 
167 ,31.6043 ,1.01009 ,2.74216 ,26.90606 
168 ,31.8124 ,1.01205 ,2.72505 ,26.73817 
169 ,31.9887 ,1.01391 ,2.70452 ,26.53670 
170 ,32.1806 ,1.01573 ,2.68398 ,26.33523 
171 ,32.3568 ,1.01758 ,2.67372 ,26.23450 
172 ,32.5647 ,1.01960 ,2.66687 ,26.16734 
173 ,32.7405 ,1.02144 ,2.63949 ,25.89871 
174 ,32.9327 ,1.02326 ,2.62923 ,25.79798 
175 ,33.1410 ,1.02523 ,2.60869 ,25.59651 
176 ,33.3330 ,1.02734 ,2.59843 ,25.49577 
177 ,33.5090 ,1.02909 ,2.59843 ,25.49577 
178 ,33.6849 ,1.03084 ,2.57447 ,25.26073 
179 ,33.8770 ,1.03284 ,2.56078 ,25.12641 
180 ,34.0691 ,1.03465 ,2.54710 ,24.99210 
181 ,34.2450 ,1.03644 ,2.52656 ,24.79063 
182 ,34.4052 ,1.03817 ,2.49576 ,24.48842 
183 ,34.5816 ,1.03983 ,2.48207 ,24.35411 
184 ,34.7897 ,1.04179 ,2.49234 ,24.45485 
185 ,34.9818 ,1.04376 ,2.46154 ,24.15264 
186 ,35.1578 ,1.04564 ,2.46154 ,24.15264 
187 ,35.3338 ,1.04734 ,2.43759 ,23.91759 
188 ,35.4939 ,1.04905 ,2.43074 ,23.85044 
189 ,35.6700 ,1.05069 ,2.42048 ,23.74970 
190 ,35.8782 ,1.05271 ,2.38625 ,23.41392 
191 ,36.0703 ,1.05475 ,2.38625 ,23.41392 
192 ,36.2780 ,1.05671 ,2.35888 ,23.14529 
193 ,36.4703 ,1.05865 ,2.35545 ,23.11171 
194 ,36.6781 ,1.06071 ,2.32465 ,22.80951 
195 ,36.8705 ,1.06270 ,2.31781 ,22.74235 
196 ,37.0466 ,1.06442 ,2.30412 ,22.60804 
197 ,37.2382 ,1.06630 ,2.27332 ,22.30584 
198 ,37.4468 ,1.06842 ,2.26306 ,22.20510 
199 ,37.6388 ,1.07037 ,2.24594 ,22.03721 
200 ,37.8309 ,1.07235 ,2.24252 ,22.00363 
201 ,38.0065 ,1.07413 ,2.22199 ,21.80216 
202 ,38.1831 ,1.07584 ,2.20830 ,21.66785 
203 ,38.3752 ,1.07776 ,2.19119 ,21.49996 
204 ,38.5674 ,1.07960 ,2.18777 ,21.46638 
205 ,38.7752 ,1.08170 ,2.15697 ,21.16417 
206 ,38.9671 ,1.08358 ,2.14328 ,21.02986 
207 ,39.1590 ,1.08551 ,2.11932 ,20.79481 
208 ,39.3354 ,1.08731 ,2.11248 ,20.72766 
209 ,39.5117 ,1.08911 ,2.10564 ,20.66050 
210 ,39.7036 ,1.09102 ,2.07826 ,20.39187 
211 ,39.8794 ,1.09276 ,2.06799 ,20.29114 
212 ,40.0555 ,1.09454 ,2.04404 ,20.05609 
213 ,40.2476 ,1.09640 ,2.04746 ,20.08967 
214 ,40.4559 ,1.09850 ,2.02350 ,19.85462 
215 ,40.6478 ,1.10038 ,2.00982 ,19.72031 
216 ,40.8561 ,1.10252 ,1.99955 ,19.61957 
217 ,41.0320 ,1.10432 ,1.96875 ,19.31737 
218 ,41.2081 ,1.10604 ,1.97559 ,19.38452 
219 ,41.4002 ,1.10795 ,1.95848 ,19.21663 
220 ,41.6083 ,1.11003 ,1.94479 ,19.08232 
221 ,41.8004 ,1.11201 ,1.92426 ,18.88085 
222 ,41.9927 ,1.11381 ,1.91057 ,18.74654 
223 ,42.1843 ,1.11573 ,1.89688 ,18.61222 
224 ,42.3608 ,1.11758 ,1.87635 ,18.41075 
225 ,42.5847 ,1.11971 ,1.86608 ,18.31002 
226 ,42.7610 ,1.12159 ,1.84213 ,18.07497 
227 ,42.9370 ,1.12335 ,1.82844 ,17.94066 
228 ,43.1290 ,1.12520 ,1.82844 ,17.94066 
229 ,43.3046 ,1.12704 ,1.80791 ,17.73919 
230 ,43.4813 ,1.12878 ,1.79080 ,17.57129 
231 ,43.6892 ,1.13077 ,1.78395 ,17.50414 
232 ,43.8653 ,1.13265 ,1.76684 ,17.33625 
233 ,44.0414 ,1.13436 ,1.73604 ,17.03404 
234 ,44.2334 ,1.13633 ,1.72578 ,16.93331 
235 ,44.4095 ,1.13805 ,1.72578 ,16.93331 
236 ,44.6177 ,1.14006 ,1.69498 ,16.63110 
237 ,44.8097 ,1.14205 ,1.69498 ,16.63110 
238 ,45.0019 ,1.14401 ,1.68129 ,16.49679 
239 ,45.1936 ,1.14586 ,1.66418 ,16.32890 
240 ,45.3705 ,1.14765 ,1.64364 ,16.12743 
241 ,45.5622 ,1.14955 ,1.63338 ,16.02669 
242 ,45.7542 ,1.15148 ,1.61284 ,15.82522 
243 ,45.9463 ,1.15342 ,1.60600 ,15.75807 
244 ,46.1383 ,1.15523 ,1.56836 ,15.38871 
245 ,46.3144 ,1.15712 ,1.56493 ,15.35513 
246 ,46.5062 ,1.15900 ,1.56493 ,15.35513 
247 ,46.6826 ,1.16078 ,1.54782 ,15.18724 
248 ,46.8747 ,1.16275 ,1.52387 ,14.95219 
249 ,47.0670 ,1.16463 ,1.51702 ,14.88503 
250 ,47.2586 ,1.16651 ,1.48965 ,14.61640 
251 ,47.4506 ,1.16844 ,1.48965 ,14.61640 
252 ,47.6269 ,1.17029 ,1.47596 ,14.48209 
253 ,47.8028 ,1.17196 ,1.46227 ,14.34778 
254 ,47.9789 ,1.17376 ,1.44516 ,14.17989 
255 ,48.1712 ,1.17569 ,1.42462 ,13.97842 
256 ,48.3471 ,1.17749 ,1.40409 ,13.77695 
257 ,48.5233 ,1.17918 ,1.41436 ,13.87768 
258 ,48.7152 ,1.18115 ,1.39383 ,13.67621 
259 ,48.8915 ,1.18286 ,1.36987 ,13.44116 
260 ,49.0835 ,1.18469 ,1.36303 ,13.37401 
261 ,49.2594 ,1.18655 ,1.33907 ,13.13896 
262 ,49.4356 ,1.18829 ,1.32538 ,13.00465 
263 ,49.6274 ,1.19012 ,1.32538 ,13.00465 
264 ,49.8198 ,1.19209 ,1.29116 ,12.66886 
265 ,50.0278 ,1.19415 ,1.29800 ,12.73602 
266 ,50.2360 ,1.19617 ,1.26720 ,12.43381 
267 ,50.4278 ,1.19815 ,1.27063 ,12.46739 
268 ,50.6040 ,1.19999 ,1.25694 ,12.33308 
269 ,50.7799 ,1.20175 ,1.23298 ,12.09803 
270 ,50.9724 ,1.20361 ,1.21587 ,11.93014 
271 ,51.1804 ,1.20568 ,1.22272 ,11.99730 
272 ,51.3723 ,1.20763 ,1.18850 ,11.66151 
273 ,51.5646 ,1.20960 ,1.17481 ,11.52720 
274 ,51.7567 ,1.21146 ,1.15427 ,11.32573 
275 ,51.9487 ,1.21339 ,1.15770 ,11.35931 
276 ,52.1409 ,1.21531 ,1.12690 ,11.05710 
277 ,52.3329 ,1.21723 ,1.11321 ,10.92279 
278 ,52.5249 ,1.21916 ,1.10979 ,10.88921 
279 ,52.7170 ,1.22110 ,1.08241 ,10.62059 
280 ,52.8932 ,1.22289 ,1.07899 ,10.58701 
281 ,53.0852 ,1.22474 ,1.07899 ,10.58701 
282 ,53.2932 ,1.22680 ,1.04134 ,10.21765 
283 ,53.4690 ,1.22863 ,1.03450 ,10.15049 
284 ,53.6454 ,1.23038 ,1.03450 ,10.15049 
285 ,53.8536 ,1.23233 ,0.98659 ,9.68039 
286 ,54.0455 ,1.23429 ,0.99343 ,9.74755 
287 ,54.2217 ,1.23611 ,0.97632 ,9.57966 
288 ,54.4137 ,1.23806 ,0.95237 ,9.34461 
289 ,54.6058 ,1.23994 ,0.96605 ,9.47892 
290 ,54.7820 ,1.24176 ,0.95237 ,9.34461 
291 ,54.9740 ,1.24362 ,0.91814 ,9.00883 
292 ,55.1821 ,1.24571 ,0.90103 ,8.84094 
293 ,55.3900 ,1.24774 ,0.90103 ,8.84094 
294 ,55.5662 ,1.24956 ,0.89419 ,8.77378 
295 ,55.7423 ,1.25136 ,0.87366 ,8.57231 
296 ,55.9344 ,1.25321 ,0.85654 ,8.40442 
297 ,56.1260 ,1.25513 ,0.83943 ,8.23653 
298 ,56.3025 ,1.25697 ,0.83259 ,8.16937 
299 ,56.5264 ,1.25902 ,0.81548 ,8.00148 
300 ,56.7024 ,1.26093 ,0.81548 ,8.00148 
301 ,56.8947 ,1.26283 ,0.77441 ,7.59854 
302 ,57.0708 ,1.26468 ,0.76072 ,7.46423 
303 ,57.2467 ,1.26644 ,0.76072 ,7.46423 
304 ,57.4229 ,1.26818 ,0.75730 ,7.43065 
305 ,57.6146 ,1.27003 ,0.72992 ,7.16202 
306 ,57.8069 ,1.27199 ,0.71966 ,7.06129 
307 ,57.9988 ,1.27383 ,0.70597 ,6.92697 
308 ,58.1752 ,1.27570 ,0.68886 ,6.75908 
309 ,58.3670 ,1.27752 ,0.68886 ,6.75908 
310 ,58.5592 ,1.27947 ,0.67517 ,6.62477 
311 ,58.7354 ,1.28129 ,0.65464 ,6.42330 
312 ,58.9274 ,1.28313 ,0.65121 ,6.38972 
313 ,59.1035 ,1.28498 ,0.62042 ,6.08752 
314 ,59.2957 ,1.28685 ,0.60330 ,5.91962 
315 ,59.4876 ,1.28873 ,0.60330 ,5.91962 
316 ,59.6637 ,1.29055 ,0.59646 ,5.85247 
317 ,59.8399 ,1.29233 ,0.57251 ,5.61742 
318 ,60.0318 ,1.29427 ,0.55197 ,5.41595 
319 ,60.2235 ,1.29613 ,0.55197 ,5.41595 
320 ,60.4317 ,1.29810 ,0.53828 ,5.28164 
321 ,60.6077 ,1.30007 ,0.51775 ,5.08017 
322 ,60.7842 ,1.30176 ,0.50748 ,4.97943 
323 ,60.9764 ,1.30362 ,0.49037 ,4.81154 
324 ,61.1684 ,1.30559 ,0.48011 ,4.71081 
325 ,61.3606 ,1.30752 ,0.47668 ,4.67723 
326 ,61.5361 ,1.30924 ,0.46300 ,4.54291 
327 ,61.7126 ,1.31104 ,0.43220 ,4.24071 
328 ,61.9048 ,1.31297 ,0.42877 ,4.20713 
329 ,62.0967 ,1.31479 ,0.40482 ,3.97208 
330 ,62.2730 ,1.31664 ,0.39113 ,3.83777 
331 ,62.4487 ,1.31837 ,0.38086 ,3.73703 
332 ,62.6567 ,1.32043 ,0.37402 ,3.66988 
333 ,62.8491 ,1.32234 ,0.35691 ,3.50199 
334 ,63.0411 ,1.32423 ,0.35691 ,3.50199 
335 ,63.2172 ,1.32606 ,0.35006 ,3.43483 
336 ,63.4091 ,1.32795 ,0.32269 ,3.16620 
337 ,63.6012 ,1.32990 ,0.32611 ,3.19978 
338 ,63.7933 ,1.33180 ,0.30215 ,2.96473 
339 ,63.9856 ,1.33375 ,0.28847 ,2.83042 
340 ,64.1776 ,1.33560 ,0.28162 ,2.76326 
341 ,64.3702 ,1.33753 ,0.26451 ,2.59537 
342 ,64.5616 ,1.33951 ,0.27478 ,2.69611 
343 ,64.7375 ,1.34123 ,0.25767 ,2.52822 
344 ,64.9298 ,1.34315 ,0.22687 ,2.22601 
345 ,65.1060 ,1.34497 ,0.23029 ,2.25959 
346 ,65.3140 ,1.34690 ,0.21318 ,2.09170 
347 ,65.5060 ,1.34888 ,0.20291 ,1.99096 
348 ,65.6822 ,1.35073 ,0.19949 ,1.95738 
349 ,65.8743 ,1.35261 ,0.17896 ,1.75592 
350 ,66.0664 ,1.35455 ,0.17211 ,1.68876 
351 ,66.2425 ,1.35631 ,0.16527 ,1.62160 
352 ,66.4503 ,1.35831 ,0.14131 ,1.38655 
353 ,66.6266 ,1.36012 ,0.13789 ,1.35298 
354 ,66.8504 ,1.36223 ,0.11736 ,1.15151 
355 ,67.0427 ,1.36424 ,0.12078 ,1.18508 
356 ,67.2506 ,1.36631 ,0.09682 ,0.95004 
357 ,67.4427 ,1.36821 ,0.09340 ,0.91646 
358 ,67.6347 ,1.37023 ,0.06602 ,0.64783 
359 ,67.8430 ,1.37222 ,0.06602 ,0.64783 
360 ,68.0346 ,1.37415 ,0.03522 ,0.34563 
361 ,68.2112 ,1.37595 ,0.02154 ,0.21131 
362 ,68.4189 ,1.37793 ,0.03522 ,0.34563 
363 ,68.6110 ,1.37997 ,-0.00926 ,-0.09089 
364 ,68.8030 ,1.38191 ,0.00785 ,0.07700 
365 ,68.9792 ,1.38367 ,-0.00926 ,-0.09089 
366 ,69.1715 ,1.38557 ,-0.04691 ,-0.46025 
367 ,69.3796 ,1.38759 ,-0.04006 ,-0.39310 
368 ,69.5715 ,1.38956 ,-0.06744 ,-0.66172 
369 ,69.7638 ,1.39146 ,-0.05717 ,-0.56099 
370 ,69.9556 ,1.39342 ,-0.07428 ,-0.72888 
371 ,70.1479 ,1.39529 ,-0.08113 ,-0.79604 
372 ,70.3240 ,1.39714 ,-0.11193 ,-1.09824 
373 ,70.5160 ,1.39895 ,-0.12562 ,-1.23255 
374 ,70.6920 ,1.40078 ,-0.13246 ,-1.29971 
375 ,70.8843 ,1.40269 ,-0.13931 ,-1.36687 
376 ,71.0762 ,1.40462 ,-0.15984 ,-1.56834 
377 ,71.2681 ,1.40645 ,-0.17011 ,-1.66907 
378 ,71.4602 ,1.40847 ,-0.17353 ,-1.70265 
379 ,71.6684 ,1.41049 ,-0.19064 ,-1.87054 
380 ,71.8445 ,1.41230 ,-0.20775 ,-2.03843 
381 ,72.0205 ,1.41403 ,-0.21459 ,-2.10559 
382 ,72.2123 ,1.41600 ,-0.22828 ,-2.23990 
383 ,72.3888 ,1.41774 ,-0.24539 ,-2.40779 
384 ,72.6129 ,1.41985 ,-0.25566 ,-2.50853 
385 ,72.8049 ,1.42188 ,-0.27277 ,-2.67642 
386 ,72.9811 ,1.42370 ,-0.27961 ,-2.74358 
387 ,73.1732 ,1.42550 ,-0.28988 ,-2.84431 
388 ,73.3808 ,1.42760 ,-0.28646 ,-2.81073 
389 ,73.5574 ,1.42941 ,-0.31041 ,-3.04578 
390 ,73.7331 ,1.43120 ,-0.31384 ,-3.07936 
391 ,73.9253 ,1.43310 ,-0.33779 ,-3.31441 
392 ,74.1015 ,1.43491 ,-0.35832 ,-3.51588 
393 ,74.3095 ,1.43686 ,-0.37201 ,-3.65019 
394 ,74.4851 ,1.43870 ,-0.36517 ,-3.58303 
395 ,74.6776 ,1.44055 ,-0.36517 ,-3.58303 
396 ,74.8698 ,1.44247 ,-0.40623 ,-3.98597 
397 ,75.0454 ,1.44432 ,-0.40966 ,-4.01955 
398 ,75.2379 ,1.44619 ,-0.40281 ,-3.95240 
399 ,75.4457 ,1.44826 ,-0.42335 ,-4.15387 
400 ,75.6379 ,1.45015 ,-0.41308 ,-4.05313 
401 ,75.8461 ,1.45224 ,-0.43361 ,-4.25460 
402 ,76.0381 ,1.45413 ,-0.44046 ,-4.32176 
403 ,76.2143 ,1.45592 ,-0.46441 ,-4.55681 
404 ,76.3904 ,1.45772 ,-0.47468 ,-4.65754 
405 ,76.5661 ,1.45951 ,-0.48152 ,-4.72470 
406 ,76.7427 ,1.46132 ,-0.48152 ,-4.72470 
407 ,76.9184 ,1.46307 ,-0.49521 ,-4.85901 
408 ,77.1107 ,1.46489 ,-0.50548 ,-4.95975 
409 ,77.2866 ,1.46672 ,-0.51232 ,-5.02690 
410 ,77.4786 ,1.46860 ,-0.50890 ,-4.99332 
411 ,77.6705 ,1.47056 ,-0.52601 ,-5.16121 
412 ,77.8471 ,1.47232 ,-0.54997 ,-5.39626 
413 ,78.0391 ,1.47414 ,-0.53970 ,-5.29553 
414 ,78.2471 ,1.47623 ,-0.55339 ,-5.42984 
415 ,78.4233 ,1.47809 ,-0.57050 ,-5.59773 
416 ,78.6153 ,1.47997 ,-0.57050 ,-5.59773 
417 ,78.7912 ,1.48175 ,-0.59788 ,-5.86636 
418 ,78.9836 ,1.48370 ,-0.59103 ,-5.79920 
419 ,79.1916 ,1.48567 ,-0.62183 ,-6.10141 
420 ,79.3836 ,1.48758 ,-0.61841 ,-6.06783 
421 ,79.5597 ,1.48946 ,-0.62868 ,-6.16856 
422 ,79.7357 ,1.49118 ,-0.63210 ,-6.20214 
423 ,79.9118 ,1.49293 ,-0.64921 ,-6.37003 
424 ,80.0878 ,1.49472 ,-0.67659 ,-6.63866 
425 ,80.2800 ,1.49653 ,-0.68001 ,-6.67224 
426 ,80.4720 ,1.49847 ,-0.70396 ,-6.90729 
427 ,80.6802 ,1.50052 ,-0.70054 ,-6.87371 
428 ,80.8559 ,1.50238 ,-0.70396 ,-6.90729 
429 ,81.0483 ,1.50427 ,-0.73476 ,-7.20949 
430 ,81.2404 ,1.50615 ,-0.72450 ,-7.10876 
431 ,81.4326 ,1.50806 ,-0.76214 ,-7.47812 
432 ,81.6245 ,1.50998 ,-0.76214 ,-7.47812 
433 ,81.8327 ,1.51213 ,-0.76556 ,-7.51170 
434 ,82.0082 ,1.51402 ,-0.78610 ,-7.71317 
435 ,82.1848 ,1.51567 ,-0.79978 ,-7.84748 
436 ,82.3608 ,1.51743 ,-0.80663 ,-7.91464 
437 ,82.5369 ,1.51918 ,-0.81005 ,-7.94821 
438 ,82.7125 ,1.52096 ,-0.81689 ,-8.01537 
439 ,82.8891 ,1.52268 ,-0.85112 ,-8.35115 
440 ,83.0809 ,1.52462 ,-0.85112 ,-8.35115 
441 ,83.2572 ,1.52637 ,-0.84769 ,-8.31758 
442 ,83.4492 ,1.52823 ,-0.88534 ,-8.68694 
443 ,83.6253 ,1.53007 ,-0.90245 ,-8.85483 
444 ,83.8334 ,1.53210 ,-0.89903 ,-8.82125 
445 ,84.0091 ,1.53392 ,-0.91956 ,-9.02272 
446 ,84.2015 ,1.53572 ,-0.92298 ,-9.05630 
447 ,84.3937 ,1.53774 ,-0.91272 ,-8.95556 
448 ,84.5698 ,1.53950 ,-0.94351 ,-9.25777 
449 ,84.7780 ,1.54145 ,-0.95036 ,-9.32492 
450 ,84.9701 ,1.54345 ,-0.96405 ,-9.45924 
451 ,85.1457 ,1.54526 ,-0.96747 ,-9.49282 
452 ,85.3382 ,1.54717 ,-0.96063 ,-9.42566 
453 ,85.5462 ,1.54921 ,-1.00169 ,-9.82860 
454 ,85.7543 ,1.55120 ,-0.98116 ,-9.62713 
455 ,85.9462 ,1.55319 ,-1.01196 ,-9.92933 
456 ,86.1223 ,1.55502 ,-1.02222 ,-10.03007 
457 ,86.2825 ,1.55673 ,-1.01880 ,-9.99649 
458 ,86.4585 ,1.55842 ,-1.02907 ,-10.09723 
459 ,86.6826 ,1.56047 ,-1.05645 ,-10.36585 
460 ,86.8907 ,1.56265 ,-1.05645 ,-10.36585 
461 ,87.0828 ,1.56458 ,-1.06329 ,-10.43301 
462 ,87.2746 ,1.56658 ,-1.06671 ,-10.46659 
