Data stamp = , 22-04-2022 01:02:49 393

Calibration Values: 
Slope = , 26.54 , g/V 
Offset Voltage at no contact = , -0.501760 , V 

No , Time , Stage Position ,   Mass , Force 
   ,  (s) ,      (mm)      ,   (g)  , (mN)  

1 ,0.0000 ,0.69951 ,5.32589 ,52.25768 
2 ,0.2157 ,0.69960 ,5.31563 ,52.15694 
3 ,0.5360 ,0.70044 ,5.33616 ,52.35841 
4 ,0.7281 ,0.70190 ,5.31563 ,52.15694 
5 ,0.9363 ,0.70358 ,5.32589 ,52.25768 
6 ,1.1282 ,0.70562 ,5.34643 ,52.45915 
7 ,1.3205 ,0.70734 ,5.31563 ,52.15694 
8 ,1.5282 ,0.70949 ,5.34643 ,52.45915 
9 ,1.7045 ,0.71132 ,5.33274 ,52.32484 
10 ,1.9127 ,0.71331 ,5.31905 ,52.19052 
11 ,2.1049 ,0.71527 ,5.32589 ,52.25768 
12 ,2.2808 ,0.71716 ,5.29852 ,51.98905 
13 ,2.4730 ,0.71897 ,5.28141 ,51.82116 
14 ,2.6649 ,0.72092 ,5.28141 ,51.82116 
15 ,2.8412 ,0.72271 ,5.27114 ,51.72043 
16 ,3.0491 ,0.72476 ,5.24376 ,51.45180 
17 ,3.2254 ,0.72649 ,5.23007 ,51.31749 
18 ,3.4174 ,0.72850 ,5.21981 ,51.21675 
19 ,3.6576 ,0.73059 ,5.21296 ,51.14960 
20 ,3.8497 ,0.73273 ,5.19243 ,50.94813 
21 ,4.0253 ,0.73456 ,5.14794 ,50.51161 
22 ,4.2018 ,0.73631 ,5.15479 ,50.57876 
23 ,4.3935 ,0.73830 ,5.14794 ,50.51161 
24 ,4.5699 ,0.74000 ,5.11714 ,50.20940 
25 ,4.7619 ,0.74190 ,5.09319 ,49.97436 
26 ,4.9379 ,0.74362 ,5.06923 ,49.73931 
27 ,5.1142 ,0.74539 ,5.06581 ,49.70573 
28 ,5.2903 ,0.74719 ,5.04528 ,49.50426 
29 ,5.4819 ,0.74901 ,5.03159 ,49.36995 
30 ,5.6583 ,0.75079 ,4.99737 ,49.03416 
31 ,5.8344 ,0.75261 ,4.98026 ,48.86627 
32 ,6.0264 ,0.75446 ,4.99394 ,49.00058 
33 ,6.2024 ,0.75635 ,4.96657 ,48.73196 
34 ,6.3785 ,0.75807 ,4.94603 ,48.53049 
35 ,6.5386 ,0.75975 ,4.92550 ,48.32902 
36 ,6.7145 ,0.76144 ,4.92208 ,48.29544 
37 ,6.9067 ,0.76322 ,4.91181 ,48.19471 
38 ,7.0829 ,0.76507 ,4.89470 ,48.02681 
39 ,7.2589 ,0.76685 ,4.86390 ,47.72461 
40 ,7.4350 ,0.76857 ,4.85364 ,47.62387 
41 ,7.6111 ,0.77036 ,4.85364 ,47.62387 
42 ,7.8030 ,0.77214 ,4.83310 ,47.42240 
43 ,8.0113 ,0.77434 ,4.80915 ,47.18736 
44 ,8.2033 ,0.77622 ,4.78177 ,46.91873 
45 ,8.3794 ,0.77804 ,4.76124 ,46.71726 
46 ,8.5552 ,0.77976 ,4.75439 ,46.65010 
47 ,8.7315 ,0.78156 ,4.74413 ,46.54937 
48 ,8.9076 ,0.78338 ,4.73386 ,46.44863 
49 ,9.1152 ,0.78532 ,4.71675 ,46.28074 
50 ,9.2917 ,0.78715 ,4.69964 ,46.11285 
51 ,9.4677 ,0.78889 ,4.68253 ,45.94496 
52 ,9.6440 ,0.79069 ,4.65173 ,45.64275 
53 ,9.8359 ,0.79253 ,4.64831 ,45.60918 
54 ,10.0440 ,0.79463 ,4.62093 ,45.34055 
55 ,10.2202 ,0.79647 ,4.59697 ,45.10550 
56 ,10.3801 ,0.79817 ,4.57986 ,44.93761 
57 ,10.5398 ,0.79975 ,4.57644 ,44.90403 
58 ,10.6999 ,0.80135 ,4.56960 ,44.83688 
59 ,10.8760 ,0.80300 ,4.55249 ,44.66898 
60 ,11.0685 ,0.80485 ,4.53537 ,44.50109 
61 ,11.2762 ,0.80693 ,4.52169 ,44.36678 
62 ,11.4530 ,0.80877 ,4.50800 ,44.23247 
63 ,11.6605 ,0.81072 ,4.46693 ,43.82953 
64 ,11.8523 ,0.81278 ,4.46351 ,43.79595 
65 ,12.0286 ,0.81457 ,4.46009 ,43.76237 
66 ,12.2047 ,0.81632 ,4.42244 ,43.39301 
67 ,12.4129 ,0.81833 ,4.41218 ,43.29227 
68 ,12.5891 ,0.82015 ,4.39507 ,43.12438 
69 ,12.7811 ,0.82203 ,4.36427 ,42.82218 
70 ,12.9573 ,0.82383 ,4.36769 ,42.85576 
71 ,13.1331 ,0.82557 ,4.34373 ,42.62071 
72 ,13.3094 ,0.82735 ,4.33689 ,42.55355 
73 ,13.5175 ,0.82926 ,4.31636 ,42.35208 
74 ,13.7251 ,0.83142 ,4.27871 ,41.98272 
75 ,13.9016 ,0.83323 ,4.27871 ,41.98272 
76 ,14.0617 ,0.83498 ,4.25818 ,41.78125 
77 ,14.2377 ,0.83659 ,4.25476 ,41.74767 
78 ,14.4457 ,0.83865 ,4.22396 ,41.44547 
79 ,14.6220 ,0.84046 ,4.20342 ,41.24400 
80 ,14.8300 ,0.84250 ,4.17947 ,41.00895 
81 ,15.0377 ,0.84455 ,4.17605 ,40.97537 
82 ,15.2139 ,0.84636 ,4.17262 ,40.94179 
83 ,15.3903 ,0.84815 ,4.14867 ,40.70674 
84 ,15.5824 ,0.85006 ,4.11445 ,40.37096 
85 ,15.7904 ,0.85200 ,4.10076 ,40.23665 
86 ,15.9664 ,0.85385 ,4.07338 ,39.96802 
87 ,16.1421 ,0.85564 ,4.07338 ,39.96802 
88 ,16.3186 ,0.85745 ,4.05969 ,39.83371 
89 ,16.5267 ,0.85938 ,4.03232 ,39.56508 
90 ,16.7187 ,0.86140 ,4.03574 ,39.59866 
91 ,16.8950 ,0.86316 ,4.02547 ,39.49793 
92 ,17.0866 ,0.86499 ,3.99467 ,39.19572 
93 ,17.2624 ,0.86684 ,3.97072 ,38.96067 
94 ,17.4386 ,0.86863 ,3.97072 ,38.96067 
95 ,17.6307 ,0.87045 ,3.93992 ,38.65847 
96 ,17.7907 ,0.87225 ,3.92623 ,38.52415 
97 ,17.9832 ,0.87398 ,3.92281 ,38.49058 
98 ,18.1913 ,0.87612 ,3.89885 ,38.25553 
99 ,18.3674 ,0.87784 ,3.88174 ,38.08764 
100 ,18.5431 ,0.87969 ,3.85779 ,37.85259 
101 ,18.7195 ,0.88143 ,3.86121 ,37.88617 
102 ,18.8955 ,0.88318 ,3.84067 ,37.68470 
103 ,19.1198 ,0.88522 ,3.79619 ,37.24818 
104 ,19.3118 ,0.88727 ,3.79619 ,37.24818 
105 ,19.5039 ,0.88927 ,3.78592 ,37.14744 
106 ,19.6958 ,0.89112 ,3.76881 ,36.97955 
107 ,19.8880 ,0.89300 ,3.75170 ,36.81166 
108 ,20.0641 ,0.89484 ,3.72774 ,36.57661 
109 ,20.2564 ,0.89669 ,3.71063 ,36.40872 
110 ,20.4319 ,0.89858 ,3.70721 ,36.37514 
111 ,20.6243 ,0.90039 ,3.70379 ,36.34157 
112 ,20.8324 ,0.90243 ,3.67299 ,36.03936 
113 ,21.0243 ,0.90437 ,3.67299 ,36.03936 
114 ,21.2006 ,0.90622 ,3.64903 ,35.80431 
115 ,21.3927 ,0.90807 ,3.61481 ,35.46853 
116 ,21.5688 ,0.90991 ,3.59086 ,35.23348 
117 ,21.7608 ,0.91177 ,3.59428 ,35.26706 
118 ,21.9369 ,0.91352 ,3.58059 ,35.13275 
119 ,22.0969 ,0.91529 ,3.55321 ,34.86412 
120 ,22.2731 ,0.91690 ,3.52584 ,34.59549 
121 ,22.4649 ,0.91880 ,3.53610 ,34.69623 
122 ,22.6734 ,0.92077 ,3.51215 ,34.46118 
123 ,22.8652 ,0.92285 ,3.50188 ,34.36045 
124 ,23.0734 ,0.92491 ,3.47108 ,34.05824 
125 ,23.2654 ,0.92677 ,3.46424 ,33.99108 
126 ,23.4416 ,0.92861 ,3.46081 ,33.95751 
127 ,23.6332 ,0.93049 ,3.41975 ,33.55457 
128 ,23.8096 ,0.93233 ,3.40606 ,33.42025 
129 ,24.0013 ,0.93431 ,3.39237 ,33.28594 
130 ,24.1777 ,0.93595 ,3.38210 ,33.18520 
131 ,24.3857 ,0.93805 ,3.37526 ,33.11805 
132 ,24.5620 ,0.93993 ,3.35815 ,32.95016 
133 ,24.7377 ,0.94161 ,3.32051 ,32.58080 
134 ,24.9140 ,0.94332 ,3.31024 ,32.48006 
135 ,25.1061 ,0.94528 ,3.30339 ,32.41290 
136 ,25.2823 ,0.94699 ,3.30682 ,32.44648 
137 ,25.4741 ,0.94885 ,3.26575 ,32.04354 
138 ,25.6500 ,0.95069 ,3.25206 ,31.90923 
139 ,25.8260 ,0.95241 ,3.24522 ,31.84207 
140 ,26.0026 ,0.95419 ,3.23495 ,31.74134 
141 ,26.1787 ,0.95601 ,3.22126 ,31.60702 
142 ,26.3703 ,0.95791 ,3.19388 ,31.33840 
143 ,26.5466 ,0.95961 ,3.19388 ,31.33840 
144 ,26.7226 ,0.96137 ,3.17335 ,31.13693 
145 ,26.8989 ,0.96323 ,3.14597 ,30.86830 
146 ,27.0746 ,0.96489 ,3.12544 ,30.66683 
147 ,27.2506 ,0.96671 ,3.12886 ,30.70041 
148 ,27.4266 ,0.96844 ,3.11518 ,30.56610 
149 ,27.6027 ,0.97019 ,3.09464 ,30.36463 
150 ,27.7788 ,0.97199 ,3.08095 ,30.23031 
151 ,27.9708 ,0.97384 ,3.06726 ,30.09600 
152 ,28.1473 ,0.97563 ,3.06042 ,30.02884 
153 ,28.3395 ,0.97754 ,3.02278 ,29.65948 
154 ,28.5152 ,0.97930 ,3.00909 ,29.52517 
155 ,28.6917 ,0.98108 ,2.99882 ,29.42444 
156 ,28.8997 ,0.98311 ,2.99198 ,29.35728 
157 ,29.0753 ,0.98494 ,2.96118 ,29.05507 
158 ,29.2678 ,0.98678 ,2.95776 ,29.02150 
159 ,29.4599 ,0.98879 ,2.93722 ,28.82003 
160 ,29.6357 ,0.99051 ,2.91669 ,28.61856 
161 ,29.8280 ,0.99238 ,2.92353 ,28.68571 
162 ,30.0042 ,0.99421 ,2.90985 ,28.55140 
163 ,30.1963 ,0.99609 ,2.88589 ,28.31635 
164 ,30.3724 ,0.99789 ,2.86536 ,28.11488 
165 ,30.5642 ,0.99985 ,2.83798 ,27.84625 
166 ,30.7405 ,1.00156 ,2.83798 ,27.84625 
167 ,30.9166 ,1.00332 ,2.80718 ,27.54405 
168 ,31.1086 ,1.00519 ,2.81402 ,27.61121 
169 ,31.2843 ,1.00707 ,2.77638 ,27.24185 
170 ,31.4607 ,1.00877 ,2.77980 ,27.27542 
171 ,31.6369 ,1.01052 ,2.75243 ,27.00680 
172 ,31.8287 ,1.01239 ,2.75243 ,27.00680 
173 ,32.0370 ,1.01443 ,2.73189 ,26.80533 
174 ,32.2292 ,1.01638 ,2.72505 ,26.73817 
175 ,32.4050 ,1.01826 ,2.68740 ,26.36881 
176 ,32.5969 ,1.02014 ,2.66687 ,26.16734 
177 ,32.7733 ,1.02186 ,2.66345 ,26.13376 
178 ,32.9494 ,1.02361 ,2.66687 ,26.16734 
179 ,33.1415 ,1.02552 ,2.63607 ,25.86514 
180 ,33.3333 ,1.02745 ,2.62923 ,25.79798 
181 ,33.5256 ,1.02936 ,2.59843 ,25.49577 
182 ,33.7335 ,1.03141 ,2.58816 ,25.39504 
183 ,33.9256 ,1.03332 ,2.57447 ,25.26073 
184 ,34.1337 ,1.03542 ,2.55394 ,25.05926 
185 ,34.3097 ,1.03728 ,2.54710 ,24.99210 
186 ,34.5019 ,1.03916 ,2.51972 ,24.72347 
187 ,34.6940 ,1.04109 ,2.50261 ,24.55558 
188 ,34.8702 ,1.04287 ,2.50603 ,24.58916 
189 ,35.0622 ,1.04479 ,2.48892 ,24.42127 
190 ,35.2383 ,1.04653 ,2.45812 ,24.11906 
191 ,35.4305 ,1.04845 ,2.45127 ,24.05191 
192 ,35.6224 ,1.05030 ,2.42732 ,23.81686 
193 ,35.7981 ,1.05224 ,2.41363 ,23.68255 
194 ,35.9745 ,1.05389 ,2.41021 ,23.64897 
195 ,36.1828 ,1.05596 ,2.38968 ,23.44750 
196 ,36.3747 ,1.05801 ,2.38625 ,23.41392 
197 ,36.5506 ,1.05963 ,2.35888 ,23.14529 
198 ,36.7267 ,1.06152 ,2.32808 ,22.84309 
199 ,36.9190 ,1.06324 ,2.31097 ,22.67520 
200 ,37.1109 ,1.06518 ,2.32123 ,22.77593 
201 ,37.3031 ,1.06711 ,2.27674 ,22.33941 
202 ,37.4950 ,1.06903 ,2.27674 ,22.33941 
203 ,37.7192 ,1.07117 ,2.25279 ,22.10437 
204 ,37.8951 ,1.07308 ,2.24252 ,22.00363 
205 ,38.1034 ,1.07511 ,2.22199 ,21.80216 
206 ,38.2793 ,1.07694 ,2.20146 ,21.60069 
207 ,38.4553 ,1.07872 ,2.20488 ,21.63427 
208 ,38.6314 ,1.08043 ,2.19803 ,21.56711 
209 ,38.8075 ,1.08225 ,2.16039 ,21.19775 
210 ,38.9837 ,1.08396 ,2.15697 ,21.16417 
211 ,39.1599 ,1.08573 ,2.13986 ,20.99628 
212 ,39.3357 ,1.08754 ,2.12617 ,20.86197 
213 ,39.5279 ,1.08938 ,2.10564 ,20.66050 
214 ,39.7199 ,1.09135 ,2.09537 ,20.55976 
215 ,39.9121 ,1.09330 ,2.08510 ,20.45903 
216 ,40.0883 ,1.09505 ,2.07826 ,20.39187 
217 ,40.2963 ,1.09699 ,2.04746 ,20.08967 
218 ,40.4724 ,1.09885 ,2.04404 ,20.05609 
219 ,40.6645 ,1.10072 ,2.01666 ,19.78746 
220 ,40.8406 ,1.10255 ,2.00639 ,19.68673 
221 ,41.0326 ,1.10443 ,1.98928 ,19.51884 
222 ,41.2403 ,1.10647 ,1.97902 ,19.41810 
223 ,41.4168 ,1.10825 ,1.96875 ,19.31737 
224 ,41.6087 ,1.11015 ,1.94137 ,19.04874 
225 ,41.7848 ,1.11201 ,1.92426 ,18.88085 
226 ,41.9766 ,1.11381 ,1.92768 ,18.91443 
227 ,42.1690 ,1.11576 ,1.91057 ,18.74654 
228 ,42.3451 ,1.11754 ,1.88319 ,18.47791 
229 ,42.5372 ,1.11942 ,1.88662 ,18.51149 
230 ,42.7293 ,1.12139 ,1.85582 ,18.20928 
231 ,42.9375 ,1.12341 ,1.84555 ,18.10855 
232 ,43.1130 ,1.12526 ,1.84213 ,18.07497 
233 ,43.2892 ,1.12706 ,1.81133 ,17.77276 
234 ,43.4815 ,1.12904 ,1.80791 ,17.73919 
235 ,43.6574 ,1.13073 ,1.78395 ,17.50414 
236 ,43.8498 ,1.13256 ,1.76000 ,17.26909 
237 ,44.0417 ,1.13449 ,1.74973 ,17.16836 
238 ,44.2338 ,1.13635 ,1.75315 ,17.20193 
239 ,44.4098 ,1.13822 ,1.72578 ,16.93331 
240 ,44.5859 ,1.13991 ,1.70182 ,16.69826 
241 ,44.7621 ,1.14175 ,1.68813 ,16.56395 
242 ,44.9383 ,1.14348 ,1.67786 ,16.46321 
243 ,45.1303 ,1.14542 ,1.66760 ,16.36248 
244 ,45.3224 ,1.14727 ,1.64707 ,16.16101 
245 ,45.5139 ,1.14924 ,1.65049 ,16.19458 
246 ,45.6905 ,1.15099 ,1.62653 ,15.95954 
247 ,45.8986 ,1.15301 ,1.62311 ,15.92596 
248 ,46.0743 ,1.15495 ,1.58889 ,15.59018 
249 ,46.2507 ,1.15660 ,1.58889 ,15.59018 
250 ,46.4265 ,1.15833 ,1.57520 ,15.45586 
251 ,46.6350 ,1.16039 ,1.56836 ,15.38871 
252 ,46.8429 ,1.16247 ,1.54098 ,15.12008 
253 ,47.0346 ,1.16446 ,1.52387 ,14.95219 
254 ,47.2271 ,1.16628 ,1.51702 ,14.88503 
255 ,47.4026 ,1.16820 ,1.50333 ,14.75072 
256 ,47.5793 ,1.16992 ,1.48965 ,14.61640 
257 ,47.7713 ,1.17189 ,1.45200 ,14.24704 
258 ,47.9476 ,1.17354 ,1.44516 ,14.17989 
259 ,48.1235 ,1.17533 ,1.42462 ,13.97842 
260 ,48.2994 ,1.17712 ,1.42462 ,13.97842 
261 ,48.4916 ,1.17900 ,1.41778 ,13.91126 
262 ,48.6673 ,1.18078 ,1.39040 ,13.64263 
263 ,48.8438 ,1.18252 ,1.37671 ,13.50832 
264 ,49.0197 ,1.18432 ,1.38014 ,13.54190 
265 ,49.2119 ,1.18606 ,1.36303 ,13.37401 
266 ,49.4039 ,1.18811 ,1.33565 ,13.10538 
267 ,49.5801 ,1.18986 ,1.32538 ,13.00465 
268 ,49.7722 ,1.19170 ,1.33223 ,13.07180 
269 ,49.9803 ,1.19387 ,1.30485 ,12.80318 
270 ,50.1722 ,1.19578 ,1.28774 ,12.63528 
271 ,50.3643 ,1.19782 ,1.28774 ,12.63528 
272 ,50.5405 ,1.19951 ,1.26720 ,12.43381 
273 ,50.7480 ,1.20151 ,1.26036 ,12.36666 
274 ,50.9244 ,1.20331 ,1.21929 ,11.96372 
275 ,51.1166 ,1.20525 ,1.22614 ,12.03088 
276 ,51.3087 ,1.20709 ,1.19534 ,11.72867 
277 ,51.5008 ,1.20900 ,1.18850 ,11.66151 
278 ,51.6924 ,1.21105 ,1.16796 ,11.46004 
279 ,51.8689 ,1.21279 ,1.16454 ,11.42647 
280 ,52.0611 ,1.21471 ,1.15427 ,11.32573 
281 ,52.2531 ,1.21667 ,1.13374 ,11.12426 
282 ,52.4292 ,1.21840 ,1.12005 ,10.98995 
283 ,52.6372 ,1.22043 ,1.10636 ,10.85563 
284 ,52.8293 ,1.22231 ,1.10294 ,10.82206 
285 ,53.0054 ,1.22411 ,1.07214 ,10.51985 
286 ,53.1815 ,1.22591 ,1.07899 ,10.58701 
287 ,53.3736 ,1.22783 ,1.04476 ,10.25123 
288 ,53.5653 ,1.22967 ,1.03792 ,10.18407 
289 ,53.7573 ,1.23165 ,1.03450 ,10.15049 
290 ,53.9336 ,1.23340 ,1.01739 ,9.98260 
291 ,54.1097 ,1.23512 ,0.99685 ,9.78113 
292 ,54.3019 ,1.23704 ,0.99343 ,9.74755 
293 ,54.5100 ,1.23905 ,0.97290 ,9.54608 
294 ,54.6858 ,1.24092 ,0.94552 ,9.27745 
295 ,54.8779 ,1.24276 ,0.94552 ,9.27745 
296 ,55.0703 ,1.24468 ,0.91130 ,8.94167 
297 ,55.2780 ,1.24676 ,0.91130 ,8.94167 
298 ,55.4705 ,1.24864 ,0.89419 ,8.77378 
299 ,55.6785 ,1.25076 ,0.88734 ,8.70662 
300 ,55.8546 ,1.25268 ,0.86339 ,8.47158 
301 ,56.0302 ,1.25446 ,0.85312 ,8.37084 
302 ,56.2065 ,1.25615 ,0.83943 ,8.23653 
303 ,56.3826 ,1.25789 ,0.83943 ,8.23653 
304 ,56.5748 ,1.25984 ,0.80863 ,7.93432 
305 ,56.7667 ,1.26169 ,0.79837 ,7.83359 
306 ,56.9429 ,1.26348 ,0.79495 ,7.80001 
307 ,57.1348 ,1.26546 ,0.76415 ,7.49780 
308 ,57.3270 ,1.26727 ,0.76072 ,7.46423 
309 ,57.5192 ,1.26918 ,0.74704 ,7.32991 
310 ,57.7271 ,1.27129 ,0.74704 ,7.32991 
311 ,57.9032 ,1.27306 ,0.71966 ,7.06129 
312 ,58.0794 ,1.27485 ,0.72308 ,7.09486 
313 ,58.2552 ,1.27664 ,0.70255 ,6.89340 
314 ,58.4475 ,1.27855 ,0.68886 ,6.75908 
315 ,58.6236 ,1.28030 ,0.67175 ,6.59119 
316 ,58.8317 ,1.28227 ,0.65806 ,6.45688 
317 ,59.0238 ,1.28431 ,0.64437 ,6.32256 
318 ,59.2154 ,1.28610 ,0.62384 ,6.12109 
319 ,59.3919 ,1.28798 ,0.61015 ,5.98678 
320 ,59.5839 ,1.28986 ,0.60673 ,5.95320 
321 ,59.7601 ,1.29164 ,0.61015 ,5.98678 
322 ,59.9359 ,1.29338 ,0.57593 ,5.65100 
323 ,60.1281 ,1.29536 ,0.56224 ,5.51668 
324 ,60.3042 ,1.29714 ,0.55197 ,5.41595 
325 ,60.4803 ,1.29884 ,0.53828 ,5.28164 
326 ,60.6725 ,1.30078 ,0.50406 ,4.94585 
327 ,60.8486 ,1.30254 ,0.50064 ,4.91228 
328 ,61.0566 ,1.30453 ,0.49722 ,4.87870 
329 ,61.2646 ,1.30664 ,0.49722 ,4.87870 
330 ,61.4567 ,1.30852 ,0.48011 ,4.71081 
331 ,61.6488 ,1.31056 ,0.46300 ,4.54291 
332 ,61.8246 ,1.31225 ,0.44931 ,4.40860 
333 ,62.0010 ,1.31406 ,0.44588 ,4.37502 
334 ,62.1928 ,1.31597 ,0.41509 ,4.07282 
335 ,62.3848 ,1.31786 ,0.41166 ,4.03924 
336 ,62.5771 ,1.31971 ,0.39113 ,3.83777 
337 ,62.7693 ,1.32170 ,0.38086 ,3.73703 
338 ,62.9454 ,1.32346 ,0.37744 ,3.70346 
339 ,63.1538 ,1.32552 ,0.35691 ,3.50199 
340 ,63.3453 ,1.32740 ,0.35349 ,3.46841 
341 ,63.5216 ,1.32929 ,0.32611 ,3.19978 
342 ,63.6976 ,1.33104 ,0.32269 ,3.16620 
343 ,63.8738 ,1.33280 ,0.30558 ,2.99831 
344 ,64.0654 ,1.33461 ,0.30900 ,3.03189 
345 ,64.2418 ,1.33651 ,0.27820 ,2.72969 
346 ,64.4179 ,1.33823 ,0.29531 ,2.89758 
347 ,64.5941 ,1.33992 ,0.27135 ,2.66253 
348 ,64.7862 ,1.34186 ,0.26793 ,2.62895 
349 ,64.9783 ,1.34376 ,0.24055 ,2.36032 
350 ,65.1544 ,1.34560 ,0.24398 ,2.39390 
351 ,65.3625 ,1.34760 ,0.23029 ,2.25959 
352 ,65.5704 ,1.34959 ,0.21660 ,2.12528 
353 ,65.7625 ,1.35162 ,0.20633 ,2.02454 
354 ,65.9387 ,1.35341 ,0.18580 ,1.82307 
355 ,66.1467 ,1.35543 ,0.19264 ,1.89023 
356 ,66.3548 ,1.35738 ,0.15500 ,1.52087 
357 ,66.5307 ,1.35935 ,0.14473 ,1.42013 
358 ,66.7228 ,1.36124 ,0.15158 ,1.48729 
359 ,66.8989 ,1.36303 ,0.13447 ,1.31940 
360 ,67.0749 ,1.36475 ,0.11051 ,1.08435 
361 ,67.2672 ,1.36660 ,0.11736 ,1.15151 
362 ,67.4434 ,1.36848 ,0.09682 ,0.95004 
363 ,67.6355 ,1.37034 ,0.06260 ,0.61425 
364 ,67.8113 ,1.37213 ,0.06260 ,0.61425 
365 ,67.9871 ,1.37388 ,0.06260 ,0.61425 
366 ,68.1635 ,1.37564 ,0.04891 ,0.47994 
367 ,68.3396 ,1.37742 ,0.04207 ,0.41278 
368 ,68.5477 ,1.37946 ,0.03180 ,0.31205 
369 ,68.7393 ,1.38131 ,0.00443 ,0.04342 
370 ,68.9316 ,1.38332 ,-0.01953 ,-0.19163 
371 ,69.1237 ,1.38525 ,-0.00242 ,-0.02373 
372 ,69.3158 ,1.38711 ,-0.04006 ,-0.39310 
373 ,69.5399 ,1.38915 ,-0.02637 ,-0.25878 
374 ,69.7319 ,1.39128 ,-0.04691 ,-0.46025 
375 ,69.8917 ,1.39306 ,-0.05717 ,-0.56099 
376 ,70.0683 ,1.39472 ,-0.08113 ,-0.79604 
377 ,70.2603 ,1.39659 ,-0.09140 ,-0.89677 
378 ,70.4359 ,1.39839 ,-0.11877 ,-1.16540 
379 ,70.6281 ,1.40029 ,-0.11535 ,-1.13182 
380 ,70.8042 ,1.40202 ,-0.11535 ,-1.13182 
381 ,70.9801 ,1.40379 ,-0.12904 ,-1.26613 
382 ,71.1563 ,1.40558 ,-0.15984 ,-1.56834 
383 ,71.3326 ,1.40736 ,-0.17011 ,-1.66907 
384 ,71.5248 ,1.40919 ,-0.17353 ,-1.70265 
385 ,71.7168 ,1.41113 ,-0.19748 ,-1.93770 
386 ,71.8930 ,1.41295 ,-0.21802 ,-2.13917 
387 ,72.0850 ,1.41484 ,-0.20090 ,-1.97128 
388 ,72.2611 ,1.41661 ,-0.21459 ,-2.10559 
389 ,72.4371 ,1.41833 ,-0.23170 ,-2.27348 
390 ,72.6129 ,1.42017 ,-0.25224 ,-2.47495 
391 ,72.8213 ,1.42205 ,-0.25566 ,-2.50853 
392 ,73.0296 ,1.42424 ,-0.26250 ,-2.57569 
393 ,73.2212 ,1.42619 ,-0.27277 ,-2.67642 
394 ,73.4136 ,1.42814 ,-0.30015 ,-2.94505 
395 ,73.5897 ,1.42992 ,-0.29330 ,-2.87789 
396 ,73.7978 ,1.43192 ,-0.31384 ,-3.07936 
397 ,73.9737 ,1.43380 ,-0.31726 ,-3.11294 
398 ,74.1657 ,1.43556 ,-0.33437 ,-3.28083 
399 ,74.3580 ,1.43759 ,-0.34806 ,-3.41514 
400 ,74.5658 ,1.43957 ,-0.35148 ,-3.44872 
401 ,74.7416 ,1.44138 ,-0.37544 ,-3.68377 
402 ,74.9180 ,1.44318 ,-0.38912 ,-3.81808 
403 ,75.1103 ,1.44499 ,-0.38570 ,-3.78450 
404 ,75.3021 ,1.44693 ,-0.38912 ,-3.81808 
405 ,75.4784 ,1.44875 ,-0.41308 ,-4.05313 
406 ,75.6704 ,1.45072 ,-0.41650 ,-4.08671 
407 ,75.8626 ,1.45257 ,-0.42335 ,-4.15387 
408 ,76.0704 ,1.45464 ,-0.40966 ,-4.01955 
409 ,76.2467 ,1.45642 ,-0.43019 ,-4.22102 
410 ,76.4226 ,1.45820 ,-0.44388 ,-4.35534 
411 ,76.5988 ,1.46000 ,-0.47126 ,-4.62396 
412 ,76.7907 ,1.46186 ,-0.46099 ,-4.52323 
413 ,76.9990 ,1.46385 ,-0.47468 ,-4.65754 
414 ,77.1910 ,1.46581 ,-0.47468 ,-4.65754 
415 ,77.3829 ,1.46770 ,-0.51917 ,-5.09406 
416 ,77.5912 ,1.46977 ,-0.51232 ,-5.02690 
417 ,77.8152 ,1.47196 ,-0.52601 ,-5.16121 
418 ,78.0069 ,1.47400 ,-0.52259 ,-5.12764 
419 ,78.1829 ,1.47580 ,-0.55339 ,-5.42984 
420 ,78.3750 ,1.47761 ,-0.54654 ,-5.36268 
421 ,78.5514 ,1.47951 ,-0.56365 ,-5.53058 
422 ,78.7275 ,1.48126 ,-0.57734 ,-5.66489 
423 ,78.9037 ,1.48302 ,-0.58761 ,-5.76562 
424 ,79.0798 ,1.48480 ,-0.60814 ,-5.96709 
425 ,79.2718 ,1.48661 ,-0.61156 ,-6.00067 
426 ,79.4478 ,1.48847 ,-0.61156 ,-6.00067 
427 ,79.6240 ,1.49016 ,-0.65605 ,-6.43719 
428 ,79.8320 ,1.49222 ,-0.64579 ,-6.33646 
429 ,80.0241 ,1.49429 ,-0.65263 ,-6.40361 
430 ,80.2002 ,1.49595 ,-0.67659 ,-6.63866 
431 ,80.3763 ,1.49771 ,-0.68343 ,-6.70582 
432 ,80.5524 ,1.49950 ,-0.68343 ,-6.70582 
433 ,80.7440 ,1.50147 ,-0.70054 ,-6.87371 
434 ,80.9204 ,1.50318 ,-0.71765 ,-7.04160 
435 ,81.1122 ,1.50497 ,-0.71765 ,-7.04160 
436 ,81.2887 ,1.50685 ,-0.73476 ,-7.20949 
437 ,81.4805 ,1.50879 ,-0.75530 ,-7.41096 
438 ,81.6884 ,1.51079 ,-0.74503 ,-7.31023 
439 ,81.8808 ,1.51268 ,-0.76214 ,-7.47812 
440 ,82.0891 ,1.51481 ,-0.78610 ,-7.71317 
441 ,82.2971 ,1.51688 ,-0.78952 ,-7.74674 
442 ,82.4732 ,1.51872 ,-0.79978 ,-7.84748 
443 ,82.6652 ,1.52058 ,-0.82032 ,-8.04895 
444 ,82.8571 ,1.52253 ,-0.83058 ,-8.14968 
445 ,83.0331 ,1.52430 ,-0.82716 ,-8.11611 
446 ,83.2093 ,1.52602 ,-0.83743 ,-8.21684 
447 ,83.3854 ,1.52778 ,-0.84769 ,-8.31758 
448 ,83.5776 ,1.52963 ,-0.85454 ,-8.38473 
449 ,83.7537 ,1.53150 ,-0.86481 ,-8.48547 
450 ,83.9137 ,1.53319 ,-0.89218 ,-8.75409 
451 ,84.0898 ,1.53489 ,-0.88534 ,-8.68694 
452 ,84.2979 ,1.53686 ,-0.90245 ,-8.85483 
453 ,84.4900 ,1.53883 ,-0.92640 ,-9.08988 
454 ,84.6821 ,1.54081 ,-0.92640 ,-9.08988 
455 ,84.8900 ,1.54287 ,-0.94694 ,-9.29135 
456 ,85.0823 ,1.54475 ,-0.94009 ,-9.22419 
457 ,85.2742 ,1.54674 ,-0.95036 ,-9.32492 
458 ,85.4504 ,1.54848 ,-0.98116 ,-9.62713 
459 ,85.6425 ,1.55031 ,-0.96747 ,-9.49282 
460 ,85.8346 ,1.55222 ,-0.97431 ,-9.55997 
461 ,86.0261 ,1.55424 ,-1.00854 ,-9.89576 
462 ,86.2187 ,1.55603 ,-1.01538 ,-9.96291 
463 ,86.4107 ,1.55804 ,-1.01196 ,-9.92933 
