Data stamp = , 22-04-2022 10:40:20 098

Calibration Values: 
Slope = , 26.54 , g/V 
Offset Voltage at no contact = , -0.501760 , V 

No , Time , Stage Position ,   Mass , Force 
   ,  (s) ,      (mm)      ,   (g)  , (mN)  

1 ,0.0000 ,0.69951 ,5.32247 ,52.22410 
2 ,0.2020 ,0.69958 ,5.33616 ,52.35841 
3 ,0.6346 ,0.70100 ,5.32247 ,52.22410 
4 ,0.8426 ,0.70273 ,5.31221 ,52.12337 
5 ,1.0349 ,0.70457 ,5.31563 ,52.15694 
6 ,1.2426 ,0.70665 ,5.33274 ,52.32484 
7 ,1.4188 ,0.70849 ,5.31563 ,52.15694 
8 ,1.5951 ,0.71022 ,5.30878 ,52.08979 
9 ,1.7870 ,0.71210 ,5.32247 ,52.22410 
10 ,1.9790 ,0.71400 ,5.30878 ,52.08979 
11 ,2.1872 ,0.71610 ,5.29167 ,51.92190 
12 ,2.3633 ,0.71789 ,5.27798 ,51.78758 
13 ,2.5394 ,0.71973 ,5.27456 ,51.75401 
14 ,2.7315 ,0.72152 ,5.23350 ,51.35107 
15 ,2.9071 ,0.72341 ,5.23007 ,51.31749 
16 ,3.0836 ,0.72512 ,5.21296 ,51.14960 
17 ,3.2752 ,0.72703 ,5.20270 ,51.04886 
18 ,3.4357 ,0.72873 ,5.15821 ,50.61234 
19 ,3.6278 ,0.73045 ,5.16163 ,50.64592 
20 ,3.8197 ,0.73238 ,5.14794 ,50.51161 
21 ,4.0113 ,0.73436 ,5.11030 ,50.14225 
22 ,4.1880 ,0.73615 ,5.10688 ,50.10867 
23 ,4.3961 ,0.73822 ,5.08292 ,49.87362 
24 ,4.5718 ,0.74003 ,5.05212 ,49.57142 
25 ,4.7482 ,0.74181 ,5.05212 ,49.57142 
26 ,4.9563 ,0.74379 ,5.02474 ,49.30279 
27 ,5.1482 ,0.74567 ,5.01106 ,49.16848 
28 ,5.3244 ,0.74748 ,5.00763 ,49.13490 
29 ,5.5162 ,0.74933 ,4.97683 ,48.83269 
30 ,5.7086 ,0.75128 ,4.95972 ,48.66480 
31 ,5.9012 ,0.75328 ,4.94261 ,48.49691 
32 ,6.0765 ,0.75503 ,4.93577 ,48.42975 
33 ,6.2850 ,0.75698 ,4.89812 ,48.06039 
34 ,6.4925 ,0.75917 ,4.88444 ,47.92608 
35 ,6.6689 ,0.76099 ,4.86732 ,47.75819 
36 ,6.8931 ,0.76307 ,4.85706 ,47.65745 
37 ,7.1012 ,0.76514 ,4.82626 ,47.35525 
38 ,7.2772 ,0.76702 ,4.83310 ,47.42240 
39 ,7.4692 ,0.76898 ,4.79204 ,47.01946 
40 ,7.6453 ,0.77070 ,4.77493 ,46.85157 
41 ,7.8215 ,0.77246 ,4.77150 ,46.81800 
42 ,8.0615 ,0.77462 ,4.74070 ,46.51579 
43 ,8.2376 ,0.77660 ,4.73386 ,46.44863 
44 ,8.4297 ,0.77847 ,4.70306 ,46.14643 
45 ,8.6217 ,0.78045 ,4.69279 ,46.04569 
46 ,8.7980 ,0.78224 ,4.66884 ,45.81065 
47 ,8.9900 ,0.78417 ,4.66884 ,45.81065 
48 ,9.1660 ,0.78590 ,4.62777 ,45.40771 
49 ,9.3417 ,0.78765 ,4.63804 ,45.50844 
50 ,9.5182 ,0.78943 ,4.62093 ,45.34055 
51 ,9.7260 ,0.79145 ,4.59355 ,45.07192 
52 ,9.9029 ,0.79329 ,4.56960 ,44.83688 
53 ,10.0945 ,0.79517 ,4.56960 ,44.83688 
54 ,10.2705 ,0.79699 ,4.54564 ,44.60183 
55 ,10.4462 ,0.79878 ,4.52169 ,44.36678 
56 ,10.6227 ,0.80045 ,4.51484 ,44.29962 
57 ,10.8147 ,0.80228 ,4.50457 ,44.19889 
58 ,10.9908 ,0.80421 ,4.48062 ,43.96384 
59 ,11.1668 ,0.80587 ,4.46351 ,43.79595 
60 ,11.3427 ,0.80766 ,4.43955 ,43.56090 
61 ,11.5187 ,0.80942 ,4.44982 ,43.66163 
62 ,11.6950 ,0.81125 ,4.40875 ,43.25870 
63 ,11.8550 ,0.81289 ,4.40191 ,43.19154 
64 ,12.0632 ,0.81477 ,4.40533 ,43.22512 
65 ,12.2553 ,0.81679 ,4.38480 ,43.02365 
66 ,12.4636 ,0.81871 ,4.35058 ,42.68786 
67 ,12.6554 ,0.82079 ,4.34373 ,42.62071 
68 ,12.8472 ,0.82263 ,4.33347 ,42.51997 
69 ,13.0237 ,0.82447 ,4.31636 ,42.35208 
70 ,13.2154 ,0.82638 ,4.29924 ,42.18419 
71 ,13.3918 ,0.82818 ,4.28556 ,42.04988 
72 ,13.5836 ,0.83008 ,4.25476 ,41.74767 
73 ,13.7759 ,0.83193 ,4.25476 ,41.74767 
74 ,13.9836 ,0.83403 ,4.22396 ,41.44547 
75 ,14.1600 ,0.83584 ,4.22053 ,41.41189 
76 ,14.3359 ,0.83757 ,4.21027 ,41.31115 
77 ,14.5281 ,0.83944 ,4.17605 ,40.97537 
78 ,14.7199 ,0.84143 ,4.15894 ,40.80748 
79 ,14.8964 ,0.84321 ,4.14183 ,40.63959 
80 ,15.1044 ,0.84522 ,4.12129 ,40.43812 
81 ,15.2966 ,0.84715 ,4.13156 ,40.53885 
82 ,15.4727 ,0.84898 ,4.09734 ,40.20307 
83 ,15.6646 ,0.85083 ,4.08023 ,40.03518 
84 ,15.8567 ,0.85277 ,4.07338 ,39.96802 
85 ,16.0329 ,0.85454 ,4.05627 ,39.80013 
86 ,16.2249 ,0.85637 ,4.03574 ,39.59866 
87 ,16.4169 ,0.85833 ,4.03916 ,39.63224 
88 ,16.6091 ,0.86034 ,3.99467 ,39.19572 
89 ,16.8013 ,0.86225 ,3.98098 ,39.06141 
90 ,16.9771 ,0.86404 ,3.96387 ,38.89352 
91 ,17.1692 ,0.86589 ,3.94334 ,38.69205 
92 ,17.3453 ,0.86768 ,3.91938 ,38.45700 
93 ,17.5215 ,0.86948 ,3.90912 ,38.35626 
94 ,17.7135 ,0.87130 ,3.90912 ,38.35626 
95 ,17.8896 ,0.87315 ,3.89201 ,38.18837 
96 ,18.0817 ,0.87499 ,3.86805 ,37.95332 
97 ,18.2738 ,0.87697 ,3.86121 ,37.88617 
98 ,18.4659 ,0.87880 ,3.83383 ,37.61754 
99 ,18.6580 ,0.88073 ,3.82356 ,37.51681 
100 ,18.8661 ,0.88273 ,3.78934 ,37.18102 
101 ,19.0736 ,0.88487 ,3.80303 ,37.31534 
102 ,19.2662 ,0.88678 ,3.78250 ,37.11387 
103 ,19.4581 ,0.88886 ,3.76881 ,36.97955 
104 ,19.6344 ,0.89055 ,3.75170 ,36.81166 
105 ,19.8582 ,0.89268 ,3.70379 ,36.34157 
106 ,20.0346 ,0.89455 ,3.71063 ,36.40872 
107 ,20.4827 ,0.89784 ,3.68325 ,36.14010 
108 ,20.6908 ,0.90102 ,3.63877 ,35.70358 
109 ,20.8829 ,0.90296 ,3.61139 ,35.43495 
110 ,21.0910 ,0.90517 ,3.61481 ,35.46853 
111 ,21.2830 ,0.90694 ,3.57717 ,35.09917 
112 ,21.4908 ,0.90905 ,3.57717 ,35.09917 
113 ,21.6831 ,0.91100 ,3.54637 ,34.79696 
114 ,21.8591 ,0.91275 ,3.54295 ,34.76338 
115 ,22.0353 ,0.91454 ,3.52241 ,34.56192 
116 ,22.2114 ,0.91634 ,3.52584 ,34.59549 
117 ,22.4037 ,0.91819 ,3.49161 ,34.25971 
118 ,22.5950 ,0.92016 ,3.47450 ,34.09182 
119 ,22.7711 ,0.92201 ,3.46081 ,33.95751 
120 ,22.9473 ,0.92371 ,3.45055 ,33.85677 
121 ,23.1395 ,0.92556 ,3.43001 ,33.65530 
122 ,23.3474 ,0.92765 ,3.42659 ,33.62172 
123 ,23.5235 ,0.92953 ,3.38553 ,33.21878 
124 ,23.6995 ,0.93119 ,3.37868 ,33.15163 
125 ,23.8756 ,0.93294 ,3.35473 ,32.91658 
126 ,24.0517 ,0.93470 ,3.34446 ,32.81584 
127 ,24.2276 ,0.93647 ,3.35130 ,32.88300 
128 ,24.4200 ,0.93835 ,3.32051 ,32.58080 
129 ,24.6122 ,0.94028 ,3.30339 ,32.41290 
130 ,24.8044 ,0.94222 ,3.28628 ,32.24501 
131 ,24.9805 ,0.94403 ,3.24864 ,31.87565 
132 ,25.1722 ,0.94600 ,3.25548 ,31.94281 
133 ,25.3646 ,0.94779 ,3.23837 ,31.77492 
134 ,25.5404 ,0.94961 ,3.22811 ,31.67418 
135 ,25.7169 ,0.95135 ,3.20415 ,31.43913 
136 ,25.9248 ,0.95339 ,3.18020 ,31.20409 
137 ,26.1010 ,0.95524 ,3.17335 ,31.13693 
138 ,26.2930 ,0.95709 ,3.17677 ,31.17051 
139 ,26.5010 ,0.95916 ,3.13229 ,30.73399 
140 ,26.6768 ,0.96091 ,3.12202 ,30.63325 
141 ,26.8533 ,0.96273 ,3.12202 ,30.63325 
142 ,27.0613 ,0.96479 ,3.09122 ,30.33105 
143 ,27.2534 ,0.96669 ,3.09806 ,30.39821 
144 ,27.4453 ,0.96871 ,3.06042 ,30.02884 
145 ,27.6215 ,0.97037 ,3.04673 ,29.89453 
146 ,27.7971 ,0.97212 ,3.02962 ,29.72664 
147 ,27.9733 ,0.97398 ,3.01935 ,29.62590 
148 ,28.1493 ,0.97572 ,3.00567 ,29.49159 
149 ,28.3417 ,0.97750 ,2.97829 ,29.22297 
150 ,28.5499 ,0.97971 ,2.97487 ,29.18939 
151 ,28.7417 ,0.98163 ,2.95091 ,28.95434 
152 ,28.9179 ,0.98335 ,2.94407 ,28.88718 
153 ,29.1261 ,0.98538 ,2.93380 ,28.78645 
154 ,29.3183 ,0.98726 ,2.89958 ,28.45066 
155 ,29.5103 ,0.98924 ,2.89616 ,28.41709 
156 ,29.7184 ,0.99136 ,2.86878 ,28.14846 
157 ,29.8945 ,0.99324 ,2.85851 ,28.04772 
158 ,30.0706 ,0.99490 ,2.83798 ,27.84625 
159 ,30.2626 ,0.99669 ,2.82087 ,27.67836 
160 ,30.4547 ,0.99869 ,2.80376 ,27.51047 
161 ,30.6309 ,1.00050 ,2.79007 ,27.37616 
162 ,30.8229 ,1.00235 ,2.77296 ,27.20827 
163 ,31.0148 ,1.00429 ,2.75243 ,27.00680 
164 ,31.2230 ,1.00634 ,2.73189 ,26.80533 
165 ,31.3990 ,1.00818 ,2.72505 ,26.73817 
166 ,31.5752 ,1.00991 ,2.70452 ,26.53670 
167 ,31.7672 ,1.01178 ,2.70452 ,26.53670 
168 ,31.9429 ,1.01366 ,2.68056 ,26.30165 
169 ,32.1355 ,1.01548 ,2.66345 ,26.13376 
170 ,32.3433 ,1.01762 ,2.63607 ,25.86514 
171 ,32.5031 ,1.01931 ,2.62923 ,25.79798 
172 ,32.6795 ,1.02093 ,2.60527 ,25.56293 
173 ,32.8555 ,1.02268 ,2.59158 ,25.42862 
174 ,33.0314 ,1.02446 ,2.58132 ,25.32788 
175 ,33.2075 ,1.02632 ,2.57447 ,25.26073 
176 ,33.4157 ,1.02825 ,2.55052 ,25.02568 
177 ,33.5919 ,1.03008 ,2.54025 ,24.92494 
178 ,33.7677 ,1.03182 ,2.53341 ,24.85779 
179 ,33.9440 ,1.03360 ,2.51630 ,24.68989 
180 ,34.1357 ,1.03549 ,2.49918 ,24.52200 
181 ,34.3282 ,1.03737 ,2.49576 ,24.48842 
182 ,34.5203 ,1.03938 ,2.46496 ,24.18622 
183 ,34.7124 ,1.04122 ,2.45470 ,24.08549 
184 ,34.8884 ,1.04311 ,2.43416 ,23.88402 
185 ,35.0804 ,1.04489 ,2.41363 ,23.68255 
186 ,35.2725 ,1.04679 ,2.39310 ,23.48108 
187 ,35.4485 ,1.04861 ,2.38625 ,23.41392 
188 ,35.6407 ,1.05055 ,2.37941 ,23.34676 
189 ,35.8167 ,1.05233 ,2.34519 ,23.01098 
190 ,36.0088 ,1.05426 ,2.34177 ,22.97740 
191 ,36.2008 ,1.05619 ,2.33834 ,22.94382 
192 ,36.3769 ,1.05788 ,2.31097 ,22.67520 
193 ,36.5689 ,1.05976 ,2.29728 ,22.54088 
194 ,36.7449 ,1.06158 ,2.29043 ,22.47373 
195 ,36.9372 ,1.06351 ,2.26648 ,22.23868 
196 ,37.1130 ,1.06531 ,2.24594 ,22.03721 
197 ,37.2893 ,1.06706 ,2.23226 ,21.90290 
198 ,37.4654 ,1.06880 ,2.22541 ,21.83574 
199 ,37.6573 ,1.07071 ,2.20488 ,21.63427 
200 ,37.8496 ,1.07256 ,2.18435 ,21.43280 
201 ,38.0575 ,1.07464 ,2.16039 ,21.19775 
202 ,38.2338 ,1.07646 ,2.14670 ,21.06344 
203 ,38.4096 ,1.07823 ,2.12959 ,20.89555 
204 ,38.6020 ,1.08015 ,2.13644 ,20.96270 
205 ,38.8099 ,1.08218 ,2.10564 ,20.66050 
206 ,39.0021 ,1.08410 ,2.09537 ,20.55976 
207 ,39.1781 ,1.08589 ,2.09537 ,20.55976 
208 ,39.3541 ,1.08766 ,2.05773 ,20.19040 
209 ,39.5299 ,1.08941 ,2.03719 ,19.98893 
210 ,39.7225 ,1.09133 ,2.04746 ,20.08967 
211 ,39.9140 ,1.09325 ,2.03377 ,19.95535 
212 ,40.0901 ,1.09502 ,1.99955 ,19.61957 
213 ,40.2664 ,1.09675 ,1.99955 ,19.61957 
214 ,40.4426 ,1.09853 ,1.97559 ,19.38452 
215 ,40.6183 ,1.10032 ,1.97217 ,19.35094 
216 ,40.8109 ,1.10213 ,1.96533 ,19.28379 
217 ,41.0027 ,1.10419 ,1.93795 ,19.01516 
218 ,41.1789 ,1.10589 ,1.93453 ,18.98158 
219 ,41.4031 ,1.10808 ,1.91057 ,18.74654 
220 ,41.5952 ,1.11005 ,1.89004 ,18.54507 
221 ,41.8032 ,1.11212 ,1.89004 ,18.54507 
222 ,41.9791 ,1.11394 ,1.86608 ,18.31002 
223 ,42.1715 ,1.11576 ,1.83186 ,17.97423 
224 ,42.3636 ,1.11773 ,1.84555 ,18.10855 
225 ,42.5557 ,1.11962 ,1.80791 ,17.73919 
226 ,42.7792 ,1.12178 ,1.79764 ,17.63845 
227 ,42.9718 ,1.12375 ,1.77369 ,17.40340 
228 ,43.1797 ,1.12589 ,1.76684 ,17.33625 
229 ,43.3719 ,1.12777 ,1.74289 ,17.10120 
230 ,43.5640 ,1.12966 ,1.74289 ,17.10120 
231 ,43.7400 ,1.13150 ,1.72920 ,16.96689 
232 ,43.9320 ,1.13345 ,1.70524 ,16.73184 
233 ,44.1084 ,1.13517 ,1.68471 ,16.53037 
234 ,44.2843 ,1.13698 ,1.69498 ,16.63110 
235 ,44.4763 ,1.13886 ,1.67786 ,16.46321 
236 ,44.6684 ,1.14077 ,1.63338 ,16.02669 
237 ,44.8603 ,1.14264 ,1.64707 ,16.16101 
238 ,45.0686 ,1.14474 ,1.59231 ,15.62375 
239 ,45.2766 ,1.14686 ,1.60942 ,15.79164 
240 ,45.4684 ,1.14874 ,1.58547 ,15.55660 
241 ,45.6450 ,1.15059 ,1.55809 ,15.28797 
242 ,45.8528 ,1.15259 ,1.56151 ,15.32155 
243 ,46.0286 ,1.15441 ,1.54098 ,15.12008 
244 ,46.2210 ,1.15626 ,1.54098 ,15.12008 
245 ,46.4287 ,1.15835 ,1.52387 ,14.95219 
246 ,46.6051 ,1.16017 ,1.49991 ,14.71714 
247 ,46.7809 ,1.16191 ,1.48965 ,14.61640 
248 ,46.9572 ,1.16364 ,1.48965 ,14.61640 
249 ,47.1334 ,1.16542 ,1.47253 ,14.44851 
250 ,47.3094 ,1.16718 ,1.44858 ,14.21346 
251 ,47.4855 ,1.16903 ,1.44174 ,14.14631 
252 ,47.6615 ,1.17072 ,1.42120 ,13.94484 
253 ,47.8377 ,1.17244 ,1.42120 ,13.94484 
254 ,48.0136 ,1.17425 ,1.40409 ,13.77695 
255 ,48.1734 ,1.17597 ,1.38698 ,13.60906 
256 ,48.3499 ,1.17766 ,1.37671 ,13.50832 
257 ,48.5740 ,1.17964 ,1.36987 ,13.44116 
258 ,48.7659 ,1.18173 ,1.34591 ,13.20612 
259 ,48.9421 ,1.18354 ,1.32196 ,12.97107 
260 ,49.1343 ,1.18540 ,1.31512 ,12.90391 
261 ,49.3422 ,1.18749 ,1.29458 ,12.70244 
262 ,49.5184 ,1.18925 ,1.28089 ,12.56813 
263 ,49.6944 ,1.19107 ,1.29116 ,12.66886 
264 ,49.8866 ,1.19289 ,1.23641 ,12.13161 
265 ,50.0786 ,1.19488 ,1.23983 ,12.16519 
266 ,50.2543 ,1.19673 ,1.21929 ,11.96372 
267 ,50.4147 ,1.19836 ,1.21587 ,11.93014 
268 ,50.6065 ,1.20006 ,1.18507 ,11.62794 
269 ,50.7829 ,1.20190 ,1.16454 ,11.42647 
270 ,50.9749 ,1.20380 ,1.17823 ,11.56078 
271 ,51.1668 ,1.20576 ,1.14743 ,11.25857 
272 ,51.3589 ,1.20763 ,1.15427 ,11.32573 
273 ,51.5513 ,1.20957 ,1.13716 ,11.15784 
274 ,51.7432 ,1.21152 ,1.10294 ,10.82206 
275 ,51.9194 ,1.21327 ,1.09952 ,10.78848 
276 ,52.1114 ,1.21522 ,1.08925 ,10.68774 
277 ,52.3036 ,1.21710 ,1.05845 ,10.38554 
278 ,52.4791 ,1.21890 ,1.05161 ,10.31838 
279 ,52.6716 ,1.22070 ,1.05161 ,10.31838 
280 ,52.8798 ,1.22285 ,1.03108 ,10.11691 
281 ,53.0718 ,1.22470 ,1.02081 ,10.01618 
282 ,53.2640 ,1.22664 ,0.98659 ,9.68039 
283 ,53.4399 ,1.22846 ,0.97290 ,9.54608 
284 ,53.6320 ,1.23037 ,0.98659 ,9.68039 
285 ,53.8241 ,1.23228 ,0.94894 ,9.31103 
286 ,54.0162 ,1.23423 ,0.93868 ,9.21030 
287 ,54.2082 ,1.23608 ,0.92841 ,9.10956 
288 ,54.4003 ,1.23800 ,0.90103 ,8.84094 
289 ,54.5919 ,1.24007 ,0.88734 ,8.70662 
290 ,54.7844 ,1.24182 ,0.89761 ,8.80736 
291 ,54.9445 ,1.24363 ,0.88050 ,8.63947 
292 ,55.1205 ,1.24529 ,0.85312 ,8.37084 
293 ,55.3282 ,1.24727 ,0.83601 ,8.20295 
294 ,55.5047 ,1.24911 ,0.82917 ,8.13579 
295 ,55.6804 ,1.25089 ,0.82232 ,8.06864 
296 ,55.8568 ,1.25261 ,0.79837 ,7.83359 
297 ,56.0486 ,1.25450 ,0.80521 ,7.90074 
298 ,56.2246 ,1.25631 ,0.78126 ,7.66570 
299 ,56.4168 ,1.25819 ,0.77441 ,7.59854 
300 ,56.6090 ,1.26016 ,0.75388 ,7.39707 
301 ,56.7850 ,1.26192 ,0.75046 ,7.36349 
302 ,56.9612 ,1.26363 ,0.72650 ,7.12844 
303 ,57.1371 ,1.26542 ,0.72308 ,7.09486 
304 ,57.3294 ,1.26739 ,0.71281 ,6.99413 
305 ,57.5215 ,1.26920 ,0.67859 ,6.65835 
306 ,57.7295 ,1.27131 ,0.67859 ,6.65835 
307 ,57.9376 ,1.27342 ,0.66148 ,6.49046 
308 ,58.1297 ,1.27539 ,0.66833 ,6.55761 
309 ,58.3217 ,1.27720 ,0.62384 ,6.12109 
310 ,58.5459 ,1.27934 ,0.62726 ,6.15467 
311 ,58.7219 ,1.28131 ,0.59988 ,5.88605 
312 ,58.8816 ,1.28301 ,0.59304 ,5.81889 
313 ,59.0580 ,1.28463 ,0.57593 ,5.65100 
314 ,59.2661 ,1.28666 ,0.56224 ,5.51668 
315 ,59.4422 ,1.28848 ,0.54171 ,5.31522 
316 ,59.6344 ,1.29029 ,0.54171 ,5.31522 
317 ,59.8262 ,1.29224 ,0.52459 ,5.14732 
318 ,60.0025 ,1.29408 ,0.50406 ,4.94585 
319 ,60.1944 ,1.29600 ,0.50406 ,4.94585 
320 ,60.3706 ,1.29778 ,0.49722 ,4.87870 
321 ,60.5785 ,1.29983 ,0.49037 ,4.81154 
322 ,60.7548 ,1.30163 ,0.46300 ,4.54291 
323 ,60.9304 ,1.30339 ,0.44588 ,4.37502 
324 ,61.1225 ,1.30520 ,0.42877 ,4.20713 
325 ,61.2986 ,1.30709 ,0.42193 ,4.13997 
326 ,61.4907 ,1.30887 ,0.39455 ,3.87135 
327 ,61.6832 ,1.31082 ,0.39113 ,3.83777 
328 ,61.8590 ,1.31262 ,0.37744 ,3.70346 
329 ,62.0510 ,1.31445 ,0.36718 ,3.60272 
330 ,62.2592 ,1.31648 ,0.36718 ,3.60272 
331 ,62.4355 ,1.31837 ,0.34664 ,3.40125 
332 ,62.6435 ,1.32043 ,0.33295 ,3.26694 
333 ,62.8357 ,1.32229 ,0.32611 ,3.19978 
334 ,63.0278 ,1.32423 ,0.32611 ,3.19978 
335 ,63.2038 ,1.32616 ,0.28847 ,2.83042 
336 ,63.3794 ,1.32782 ,0.28162 ,2.76326 
337 ,63.5558 ,1.32958 ,0.26451 ,2.59537 
338 ,63.7319 ,1.33135 ,0.26109 ,2.56179 
339 ,63.9241 ,1.33330 ,0.25424 ,2.49464 
340 ,64.1161 ,1.33517 ,0.23371 ,2.29317 
341 ,64.2763 ,1.33690 ,0.22344 ,2.19243 
342 ,64.4523 ,1.33856 ,0.20291 ,1.99096 
343 ,64.6443 ,1.34053 ,0.19264 ,1.89023 
344 ,64.8203 ,1.34223 ,0.18922 ,1.85665 
345 ,64.9805 ,1.34395 ,0.15842 ,1.55445 
346 ,65.1562 ,1.34566 ,0.15842 ,1.55445 
347 ,65.3327 ,1.34732 ,0.14131 ,1.38655 
348 ,65.5085 ,1.34911 ,0.15158 ,1.48729 
349 ,65.6844 ,1.35086 ,0.13105 ,1.28582 
350 ,65.8607 ,1.35266 ,0.11736 ,1.15151 
351 ,66.0687 ,1.35464 ,0.08656 ,0.84930 
352 ,66.2610 ,1.35663 ,0.08998 ,0.88288 
353 ,66.4527 ,1.35856 ,0.06260 ,0.61425 
354 ,66.6451 ,1.36047 ,0.06945 ,0.68141 
355 ,66.8211 ,1.36226 ,0.05918 ,0.58067 
356 ,66.9970 ,1.36400 ,0.03180 ,0.31205 
357 ,67.1734 ,1.36576 ,0.01469 ,0.14416 
358 ,67.3655 ,1.36764 ,0.02838 ,0.27847 
359 ,67.5573 ,1.36953 ,0.00100 ,0.00984 
360 ,67.7336 ,1.37136 ,-0.00926 ,-0.09089 
361 ,67.9416 ,1.37340 ,-0.00242 ,-0.02373 
362 ,68.1175 ,1.37522 ,-0.02295 ,-0.22520 
363 ,68.3098 ,1.37706 ,-0.04348 ,-0.42667 
364 ,68.5015 ,1.37901 ,-0.03322 ,-0.32594 
365 ,68.6940 ,1.38092 ,-0.06060 ,-0.59457 
366 ,68.9021 ,1.38296 ,-0.06744 ,-0.66172 
367 ,69.0942 ,1.38490 ,-0.07086 ,-0.69530 
368 ,69.2863 ,1.38682 ,-0.07428 ,-0.72888 
369 ,69.4944 ,1.38882 ,-0.09824 ,-0.96393 
370 ,69.6863 ,1.39083 ,-0.10508 ,-1.03108 
371 ,69.8625 ,1.39261 ,-0.11535 ,-1.13182 
372 ,70.0546 ,1.39453 ,-0.14615 ,-1.43402 
373 ,70.2784 ,1.39663 ,-0.14615 ,-1.43402 
374 ,70.4549 ,1.39857 ,-0.17011 ,-1.66907 
375 ,70.6624 ,1.40055 ,-0.15299 ,-1.50118 
376 ,70.8549 ,1.40250 ,-0.18379 ,-1.80338 
377 ,71.0466 ,1.40456 ,-0.18722 ,-1.83696 
378 ,71.2229 ,1.40626 ,-0.19406 ,-1.90412 
379 ,71.4311 ,1.40829 ,-0.21117 ,-2.07201 
380 ,71.6233 ,1.41026 ,-0.23170 ,-2.27348 
381 ,71.8152 ,1.41209 ,-0.25566 ,-2.50853 
382 ,71.9913 ,1.41393 ,-0.26593 ,-2.60926 
383 ,72.1834 ,1.41580 ,-0.25566 ,-2.50853 
384 ,72.3594 ,1.41758 ,-0.27619 ,-2.71000 
385 ,72.5353 ,1.41937 ,-0.28988 ,-2.84431 
386 ,72.7117 ,1.42113 ,-0.30699 ,-3.01220 
387 ,72.9035 ,1.42310 ,-0.31384 ,-3.07936 
388 ,73.0798 ,1.42482 ,-0.31726 ,-3.11294 
389 ,73.2559 ,1.42655 ,-0.33779 ,-3.31441 
390 ,73.4478 ,1.42845 ,-0.34121 ,-3.34799 
391 ,73.6560 ,1.43047 ,-0.36517 ,-3.58303 
392 ,73.8477 ,1.43241 ,-0.35490 ,-3.48230 
393 ,74.0242 ,1.43424 ,-0.37544 ,-3.68377 
394 ,74.2158 ,1.43610 ,-0.39255 ,-3.85166 
395 ,74.4087 ,1.43810 ,-0.41992 ,-4.12029 
396 ,74.6004 ,1.43992 ,-0.39939 ,-3.91882 
397 ,74.7925 ,1.44189 ,-0.44046 ,-4.32176 
398 ,74.9521 ,1.44365 ,-0.45414 ,-4.45607 
399 ,75.1287 ,1.44530 ,-0.46441 ,-4.55681 
400 ,75.3366 ,1.44731 ,-0.46783 ,-4.59038 
401 ,75.5448 ,1.44931 ,-0.46783 ,-4.59038 
402 ,75.7370 ,1.45136 ,-0.47810 ,-4.69112 
403 ,75.9450 ,1.45343 ,-0.48494 ,-4.75828 
404 ,76.1369 ,1.45527 ,-0.49521 ,-4.85901 
405 ,76.3130 ,1.45710 ,-0.51574 ,-5.06048 
406 ,76.4890 ,1.45891 ,-0.52943 ,-5.19479 
407 ,76.6654 ,1.46065 ,-0.54654 ,-5.36268 
408 ,76.8571 ,1.46251 ,-0.55339 ,-5.42984 
409 ,77.0492 ,1.46446 ,-0.56023 ,-5.49700 
410 ,77.2733 ,1.46651 ,-0.56365 ,-5.53058 
411 ,77.4493 ,1.46846 ,-0.58077 ,-5.69847 
412 ,77.6414 ,1.47041 ,-0.57734 ,-5.66489 
413 ,77.8177 ,1.47215 ,-0.59445 ,-5.83278 
414 ,77.9938 ,1.47391 ,-0.59103 ,-5.79920 
415 ,78.1856 ,1.47580 ,-0.62183 ,-6.10141 
416 ,78.3779 ,1.47767 ,-0.61156 ,-6.00067 
417 ,78.5701 ,1.47959 ,-0.63210 ,-6.20214 
418 ,78.7622 ,1.48156 ,-0.64236 ,-6.30288 
419 ,78.9544 ,1.48347 ,-0.65605 ,-6.43719 
420 ,79.1463 ,1.48550 ,-0.65263 ,-6.40361 
421 ,79.3225 ,1.48722 ,-0.66974 ,-6.57150 
422 ,79.5305 ,1.48920 ,-0.69027 ,-6.77297 
423 ,79.7226 ,1.49115 ,-0.67659 ,-6.63866 
424 ,79.9146 ,1.49312 ,-0.69712 ,-6.84013 
425 ,80.1069 ,1.49500 ,-0.71423 ,-7.00802 
426 ,80.2985 ,1.49691 ,-0.70396 ,-6.90729 
427 ,80.4747 ,1.49872 ,-0.71765 ,-7.04160 
428 ,80.6668 ,1.50061 ,-0.74845 ,-7.34380 
429 ,80.8430 ,1.50242 ,-0.75530 ,-7.41096 
430 ,81.0190 ,1.50430 ,-0.74845 ,-7.34380 
431 ,81.1951 ,1.50590 ,-0.76214 ,-7.47812 
432 ,81.3710 ,1.50770 ,-0.77583 ,-7.61243 
433 ,81.5633 ,1.50958 ,-0.78952 ,-7.74674 
434 ,81.7870 ,1.51166 ,-0.79294 ,-7.78032 
435 ,81.9634 ,1.51358 ,-0.82032 ,-8.04895 
436 ,82.1554 ,1.51551 ,-0.81689 ,-8.01537 
437 ,82.3315 ,1.51727 ,-0.82716 ,-8.11611 
438 ,82.5231 ,1.51914 ,-0.85112 ,-8.35115 
439 ,82.6998 ,1.52099 ,-0.86138 ,-8.45189 
440 ,82.8917 ,1.52280 ,-0.87849 ,-8.61978 
441 ,83.0678 ,1.52465 ,-0.88876 ,-8.72051 
442 ,83.2596 ,1.52659 ,-0.88534 ,-8.68694 
443 ,83.4358 ,1.52831 ,-0.89903 ,-8.82125 
444 ,83.6281 ,1.53014 ,-0.92298 ,-9.05630 
445 ,83.8041 ,1.53201 ,-0.92983 ,-9.12345 
446 ,83.9803 ,1.53379 ,-0.92640 ,-9.08988 
447 ,84.1723 ,1.53567 ,-0.93325 ,-9.15703 
448 ,84.3804 ,1.53766 ,-0.94694 ,-9.29135 
449 ,84.5725 ,1.53960 ,-0.96747 ,-9.49282 
450 ,84.7806 ,1.54174 ,-0.97774 ,-9.59355 
451 ,84.9883 ,1.54377 ,-0.99827 ,-9.79502 
452 ,85.1646 ,1.54558 ,-1.00169 ,-9.82860 
453 ,85.3407 ,1.54740 ,-1.01538 ,-9.96291 
454 ,85.5168 ,1.54912 ,-1.01196 ,-9.92933 
455 ,85.6925 ,1.55088 ,-0.99827 ,-9.79502 
456 ,85.8689 ,1.55260 ,-1.01880 ,-9.99649 
457 ,86.0610 ,1.55459 ,-1.06329 ,-10.43301 
458 ,86.2691 ,1.55657 ,-1.03249 ,-10.13080 
459 ,86.4452 ,1.55839 ,-1.05302 ,-10.33227 
460 ,86.6534 ,1.56040 ,-1.05645 ,-10.36585 
461 ,86.8453 ,1.56235 ,-1.08382 ,-10.63448 
462 ,87.0214 ,1.56413 ,-1.10778 ,-10.86953 
