Data stamp = , 22-04-2022 08:30:30 062

Calibration Values: 
Slope = , 26.54 , g/V 
Offset Voltage at no contact = , -0.501760 , V 

No , Time , Stage Position ,   Mass , Force 
   ,  (s) ,      (mm)      ,   (g)  , (mN)  

1 ,0.0000 ,0.69939 ,5.34643 ,52.45915 
2 ,0.2158 ,0.69948 ,5.34985 ,52.49273 
3 ,0.5361 ,0.70034 ,5.32247 ,52.22410 
4 ,0.7443 ,0.70183 ,5.32589 ,52.25768 
5 ,0.9203 ,0.70345 ,5.33958 ,52.39199 
6 ,1.0960 ,0.70509 ,5.34643 ,52.45915 
7 ,1.2726 ,0.70686 ,5.33274 ,52.32484 
8 ,1.4646 ,0.70863 ,5.34643 ,52.45915 
9 ,1.6407 ,0.71054 ,5.33616 ,52.35841 
10 ,1.8164 ,0.71225 ,5.31563 ,52.15694 
11 ,2.0089 ,0.71425 ,5.28141 ,51.82116 
12 ,2.2009 ,0.71610 ,5.28483 ,51.85474 
13 ,2.3929 ,0.71820 ,5.24718 ,51.48538 
14 ,2.6011 ,0.72005 ,5.24034 ,51.41822 
15 ,2.7769 ,0.72197 ,5.22323 ,51.25033 
16 ,2.9853 ,0.72395 ,5.19927 ,51.01528 
17 ,3.1934 ,0.72605 ,5.16848 ,50.71308 
18 ,3.3855 ,0.72795 ,5.16848 ,50.71308 
19 ,3.5773 ,0.72994 ,5.13768 ,50.41087 
20 ,3.7695 ,0.73181 ,5.11372 ,50.17583 
21 ,3.9456 ,0.73359 ,5.10345 ,50.07509 
22 ,4.1375 ,0.73550 ,5.08977 ,49.94078 
23 ,4.3138 ,0.73730 ,5.07265 ,49.77289 
24 ,4.5058 ,0.73917 ,5.06581 ,49.70573 
25 ,4.6978 ,0.74111 ,5.04528 ,49.50426 
26 ,4.8739 ,0.74289 ,5.01790 ,49.23563 
27 ,5.0499 ,0.74462 ,5.00079 ,49.06774 
28 ,5.2259 ,0.74639 ,4.96999 ,48.76554 
29 ,5.6424 ,0.74939 ,4.98368 ,48.89985 
30 ,5.8183 ,0.75239 ,4.94603 ,48.53049 
31 ,5.9940 ,0.75417 ,4.92208 ,48.29544 
32 ,6.1863 ,0.75595 ,4.90839 ,48.16113 
33 ,6.4106 ,0.75812 ,4.87759 ,47.85892 
34 ,6.6027 ,0.76016 ,4.88101 ,47.89250 
35 ,6.7949 ,0.76204 ,4.84337 ,47.52314 
36 ,7.0029 ,0.76404 ,4.81941 ,47.28809 
37 ,7.1948 ,0.76608 ,4.81257 ,47.22093 
38 ,7.4029 ,0.76802 ,4.79888 ,47.08662 
39 ,7.5790 ,0.76991 ,4.78861 ,46.98589 
40 ,7.7551 ,0.77167 ,4.76466 ,46.75084 
41 ,7.9312 ,0.77345 ,4.74070 ,46.51579 
42 ,8.1233 ,0.77532 ,4.73386 ,46.44863 
43 ,8.3473 ,0.77747 ,4.70306 ,46.14643 
44 ,8.5397 ,0.77943 ,4.69622 ,46.07927 
45 ,8.7315 ,0.78141 ,4.66884 ,45.81065 
46 ,8.9076 ,0.78325 ,4.64146 ,45.54202 
47 ,9.0994 ,0.78504 ,4.65515 ,45.67633 
48 ,9.2755 ,0.78685 ,4.63119 ,45.44128 
49 ,9.4516 ,0.78865 ,4.60724 ,45.20624 
50 ,9.6440 ,0.79048 ,4.60382 ,45.17266 
51 ,9.8198 ,0.79239 ,4.56960 ,44.83688 
52 ,9.9959 ,0.79409 ,4.56960 ,44.83688 
53 ,10.1880 ,0.79587 ,4.54222 ,44.56825 
54 ,10.3637 ,0.79778 ,4.53880 ,44.53467 
55 ,10.5404 ,0.79957 ,4.52169 ,44.36678 
56 ,10.7483 ,0.80157 ,4.49773 ,44.13173 
57 ,10.9405 ,0.80345 ,4.48404 ,43.99742 
58 ,11.1160 ,0.80526 ,4.47035 ,43.86310 
59 ,11.2921 ,0.80703 ,4.44640 ,43.62806 
60 ,11.4846 ,0.80900 ,4.43271 ,43.49374 
61 ,11.6764 ,0.81079 ,4.42244 ,43.39301 
62 ,11.8687 ,0.81275 ,4.39507 ,43.12438 
63 ,12.0449 ,0.81461 ,4.38138 ,42.99007 
64 ,12.2369 ,0.81642 ,4.36427 ,42.82218 
65 ,12.4291 ,0.81839 ,4.35400 ,42.72144 
66 ,12.6372 ,0.82040 ,4.33004 ,42.48639 
67 ,12.8612 ,0.82260 ,4.32320 ,42.41924 
68 ,13.0693 ,0.82473 ,4.28556 ,42.04988 
69 ,13.2453 ,0.82664 ,4.29582 ,42.15061 
70 ,13.4212 ,0.82836 ,4.26845 ,41.88198 
71 ,13.6130 ,0.83019 ,4.25476 ,41.74767 
72 ,13.7891 ,0.83203 ,4.22738 ,41.47905 
73 ,13.9653 ,0.83375 ,4.20000 ,41.21042 
74 ,14.1414 ,0.83560 ,4.20685 ,41.27758 
75 ,14.3172 ,0.83728 ,4.19316 ,41.14326 
76 ,14.5253 ,0.83930 ,4.15551 ,40.77390 
77 ,14.7174 ,0.84124 ,4.15551 ,40.77390 
78 ,14.9099 ,0.84314 ,4.12814 ,40.50527 
79 ,15.1341 ,0.84550 ,4.11445 ,40.37096 
80 ,15.3423 ,0.84750 ,4.10760 ,40.30380 
81 ,15.5660 ,0.84959 ,4.05627 ,39.80013 
82 ,15.7420 ,0.85153 ,4.06654 ,39.90087 
83 ,15.9347 ,0.85340 ,4.02547 ,39.49793 
84 ,16.1264 ,0.85535 ,4.01863 ,39.43077 
85 ,16.3185 ,0.85726 ,4.01178 ,39.36361 
86 ,16.5106 ,0.85908 ,3.99809 ,39.22930 
87 ,16.6867 ,0.86093 ,3.97414 ,38.99425 
88 ,16.8623 ,0.86280 ,3.96387 ,38.89352 
89 ,17.0391 ,0.86448 ,3.95703 ,38.82636 
90 ,17.2309 ,0.86646 ,3.93307 ,38.59131 
91 ,17.4066 ,0.86816 ,3.91254 ,38.38984 
92 ,17.5828 ,0.86999 ,3.89885 ,38.25553 
93 ,17.7589 ,0.87169 ,3.88174 ,38.08764 
94 ,17.9350 ,0.87343 ,3.88174 ,38.08764 
95 ,18.1110 ,0.87520 ,3.84752 ,37.75185 
96 ,18.3030 ,0.87704 ,3.85779 ,37.85259 
97 ,18.4791 ,0.87889 ,3.83725 ,37.65112 
98 ,18.6552 ,0.88063 ,3.82699 ,37.55038 
99 ,18.8152 ,0.88238 ,3.78934 ,37.18102 
100 ,18.9913 ,0.88399 ,3.77565 ,37.04671 
101 ,19.1675 ,0.88580 ,3.75512 ,36.84524 
102 ,19.3435 ,0.88752 ,3.74143 ,36.71093 
103 ,19.5196 ,0.88930 ,3.74143 ,36.71093 
104 ,19.6956 ,0.89106 ,3.72774 ,36.57661 
105 ,19.8717 ,0.89281 ,3.70379 ,36.34157 
106 ,20.0478 ,0.89457 ,3.67299 ,36.03936 
107 ,20.2239 ,0.89638 ,3.66614 ,35.97220 
108 ,20.3999 ,0.89809 ,3.67299 ,36.03936 
109 ,20.5760 ,0.89981 ,3.65588 ,35.87147 
110 ,20.7521 ,0.90159 ,3.62166 ,35.53569 
111 ,20.9282 ,0.90339 ,3.60797 ,35.40137 
112 ,21.1042 ,0.90511 ,3.59770 ,35.30064 
113 ,21.2803 ,0.90694 ,3.58401 ,35.16632 
114 ,21.4563 ,0.90864 ,3.58059 ,35.13275 
115 ,21.6325 ,0.91042 ,3.56348 ,34.96485 
116 ,21.8088 ,0.91215 ,3.53952 ,34.72981 
117 ,22.0009 ,0.91406 ,3.53610 ,34.69623 
118 ,22.1926 ,0.91594 ,3.49504 ,34.29329 
119 ,22.3692 ,0.91781 ,3.48477 ,34.19255 
120 ,22.5770 ,0.91976 ,3.48135 ,34.15898 
121 ,22.7852 ,0.92183 ,3.46081 ,33.95751 
122 ,22.9770 ,0.92377 ,3.46081 ,33.95751 
123 ,23.1535 ,0.92564 ,3.42659 ,33.62172 
124 ,23.3612 ,0.92762 ,3.43344 ,33.68888 
125 ,23.5378 ,0.92945 ,3.40948 ,33.45383 
126 ,23.7137 ,0.93122 ,3.38210 ,33.18520 
127 ,23.9055 ,0.93310 ,3.36157 ,32.98374 
128 ,24.0818 ,0.93491 ,3.36157 ,32.98374 
129 ,24.2578 ,0.93668 ,3.34446 ,32.81584 
130 ,24.4498 ,0.93853 ,3.31024 ,32.48006 
131 ,24.6422 ,0.94046 ,3.30339 ,32.41290 
132 ,24.8341 ,0.94231 ,3.29313 ,32.31217 
133 ,25.0422 ,0.94444 ,3.27602 ,32.14428 
134 ,25.2022 ,0.94620 ,3.26575 ,32.04354 
135 ,25.3780 ,0.94783 ,3.24180 ,31.80849 
136 ,25.5704 ,0.94970 ,3.21784 ,31.57345 
137 ,25.7463 ,0.95159 ,3.22126 ,31.60702 
138 ,25.9226 ,0.95330 ,3.20415 ,31.43913 
139 ,26.1307 ,0.95534 ,3.17335 ,31.13693 
140 ,26.3225 ,0.95725 ,3.16993 ,31.10335 
141 ,26.5147 ,0.95920 ,3.15624 ,30.96904 
142 ,26.6908 ,0.96098 ,3.12886 ,30.70041 
143 ,26.8669 ,0.96272 ,3.10833 ,30.49894 
144 ,27.0589 ,0.96458 ,3.10491 ,30.46536 
145 ,27.2353 ,0.96640 ,3.08438 ,30.26389 
146 ,27.4109 ,0.96817 ,3.07069 ,30.12958 
147 ,27.6029 ,0.97002 ,3.06384 ,30.06242 
148 ,27.7793 ,0.97181 ,3.05358 ,29.96169 
149 ,27.9713 ,0.97376 ,3.01251 ,29.55875 
150 ,28.1470 ,0.97550 ,2.99882 ,29.42444 
151 ,28.3235 ,0.97728 ,2.99540 ,29.39086 
152 ,28.4996 ,0.97903 ,2.99540 ,29.39086 
153 ,28.6917 ,0.98095 ,2.95776 ,29.02150 
154 ,28.8677 ,0.98270 ,2.94064 ,28.85360 
155 ,29.0439 ,0.98451 ,2.93380 ,28.78645 
156 ,29.2358 ,0.98633 ,2.90300 ,28.48424 
157 ,29.4117 ,0.98827 ,2.90300 ,28.48424 
158 ,29.5881 ,0.98994 ,2.88247 ,28.28277 
159 ,29.7798 ,0.99188 ,2.87562 ,28.21562 
160 ,29.9718 ,0.99375 ,2.85509 ,28.01415 
161 ,30.1319 ,0.99548 ,2.82771 ,27.74552 
162 ,30.2919 ,0.99707 ,2.81402 ,27.61121 
163 ,30.4519 ,0.99869 ,2.80376 ,27.51047 
164 ,30.6285 ,1.00036 ,2.79691 ,27.44332 
165 ,30.8204 ,1.00222 ,2.79691 ,27.44332 
166 ,30.9964 ,1.00402 ,2.79007 ,27.37616 
167 ,31.1888 ,1.00596 ,2.73531 ,26.83891 
168 ,31.3808 ,1.00777 ,2.74900 ,26.97322 
169 ,31.5567 ,1.00966 ,2.72505 ,26.73817 
170 ,31.7328 ,1.01135 ,2.72163 ,26.70459 
171 ,31.9249 ,1.01323 ,2.69083 ,26.40239 
172 ,32.1490 ,1.01541 ,2.67029 ,26.20092 
173 ,32.3410 ,1.01737 ,2.65318 ,26.03303 
174 ,32.5331 ,1.01939 ,2.64292 ,25.93229 
175 ,32.7092 ,1.02112 ,2.62238 ,25.73082 
176 ,32.9008 ,1.02303 ,2.60527 ,25.56293 
177 ,33.0774 ,1.02478 ,2.61212 ,25.63009 
178 ,33.2696 ,1.02664 ,2.57105 ,25.22715 
179 ,33.4617 ,1.02868 ,2.57105 ,25.22715 
180 ,33.6537 ,1.03054 ,2.54710 ,24.99210 
181 ,33.8458 ,1.03246 ,2.51972 ,24.72347 
182 ,34.0218 ,1.03430 ,2.52314 ,24.75705 
183 ,34.1978 ,1.03602 ,2.50603 ,24.58916 
184 ,34.4059 ,1.03803 ,2.48550 ,24.38769 
185 ,34.5981 ,1.03994 ,2.47865 ,24.32053 
186 ,34.7900 ,1.04185 ,2.44101 ,23.95117 
187 ,35.0138 ,1.04400 ,2.43074 ,23.85044 
188 ,35.1902 ,1.04599 ,2.42048 ,23.74970 
189 ,35.3984 ,1.04781 ,2.40679 ,23.61539 
190 ,35.5745 ,1.04978 ,2.39994 ,23.54823 
191 ,35.7662 ,1.05166 ,2.35888 ,23.14529 
192 ,35.9425 ,1.05340 ,2.34861 ,23.04456 
193 ,36.1187 ,1.05523 ,2.35203 ,23.07814 
194 ,36.3107 ,1.05715 ,2.32808 ,22.84309 
195 ,36.5024 ,1.05909 ,2.30754 ,22.64162 
196 ,36.6789 ,1.06084 ,2.30070 ,22.57446 
197 ,36.8707 ,1.06265 ,2.26990 ,22.27226 
198 ,37.0470 ,1.06453 ,2.26990 ,22.27226 
199 ,37.2549 ,1.06654 ,2.25279 ,22.10437 
200 ,37.4633 ,1.06861 ,2.23910 ,21.97005 
201 ,37.6554 ,1.07053 ,2.22199 ,21.80216 
202 ,37.8472 ,1.07241 ,2.19119 ,21.49996 
203 ,38.0230 ,1.07431 ,2.20488 ,21.63427 
204 ,38.1991 ,1.07597 ,2.18777 ,21.46638 
205 ,38.4234 ,1.07799 ,2.14670 ,21.06344 
206 ,38.5998 ,1.08005 ,2.13301 ,20.92912 
207 ,38.7917 ,1.08191 ,2.13644 ,20.96270 
208 ,38.9680 ,1.08374 ,2.09879 ,20.59334 
209 ,39.1597 ,1.08563 ,2.09195 ,20.52619 
210 ,39.3520 ,1.08747 ,2.07826 ,20.39187 
211 ,39.5277 ,1.08933 ,2.06115 ,20.22398 
212 ,39.7038 ,1.09104 ,2.04404 ,20.05609 
213 ,39.8802 ,1.09282 ,2.02693 ,19.88820 
214 ,40.0724 ,1.09461 ,2.04061 ,20.02251 
215 ,40.2644 ,1.09671 ,2.00982 ,19.72031 
216 ,40.4561 ,1.09852 ,2.00297 ,19.65315 
217 ,40.6324 ,1.10034 ,1.98244 ,19.45168 
218 ,40.8083 ,1.10206 ,1.95506 ,19.18305 
219 ,40.9847 ,1.10389 ,1.93111 ,18.94801 
220 ,41.1927 ,1.10577 ,1.93453 ,18.98158 
221 ,41.4165 ,1.10798 ,1.90031 ,18.64580 
222 ,41.6089 ,1.11007 ,1.88662 ,18.51149 
223 ,41.8168 ,1.11213 ,1.87635 ,18.41075 
224 ,41.9930 ,1.11395 ,1.87293 ,18.37717 
225 ,42.1853 ,1.11579 ,1.83528 ,18.00781 
226 ,42.3612 ,1.11771 ,1.84555 ,18.10855 
227 ,42.5375 ,1.11936 ,1.81817 ,17.83992 
228 ,42.7133 ,1.12111 ,1.81133 ,17.77276 
229 ,42.8895 ,1.12292 ,1.79764 ,17.63845 
230 ,43.0655 ,1.12472 ,1.78395 ,17.50414 
231 ,43.2416 ,1.12637 ,1.76000 ,17.26909 
232 ,43.4174 ,1.12819 ,1.75315 ,17.20193 
233 ,43.6097 ,1.13010 ,1.73946 ,17.06762 
234 ,43.7857 ,1.13185 ,1.72578 ,16.93331 
235 ,43.9940 ,1.13380 ,1.71551 ,16.83257 
236 ,44.1859 ,1.13583 ,1.68129 ,16.49679 
237 ,44.3777 ,1.13777 ,1.69155 ,16.59752 
238 ,44.5541 ,1.13953 ,1.67444 ,16.42963 
239 ,44.7621 ,1.14157 ,1.64707 ,16.16101 
240 ,44.9384 ,1.14342 ,1.63338 ,16.02669 
241 ,45.1144 ,1.14514 ,1.62653 ,15.95954 
242 ,45.3061 ,1.14698 ,1.59231 ,15.62375 
243 ,45.4985 ,1.14890 ,1.57862 ,15.48944 
244 ,45.6902 ,1.15093 ,1.56493 ,15.35513 
245 ,45.8827 ,1.15269 ,1.56836 ,15.38871 
246 ,46.0747 ,1.15473 ,1.55809 ,15.28797 
247 ,46.2505 ,1.15650 ,1.54098 ,15.12008 
248 ,46.4268 ,1.15822 ,1.52045 ,14.91861 
249 ,46.6031 ,1.16001 ,1.49307 ,14.64998 
250 ,46.7947 ,1.16185 ,1.49649 ,14.68356 
251 ,47.0032 ,1.16398 ,1.46911 ,14.41493 
252 ,47.1952 ,1.16593 ,1.44174 ,14.14631 
253 ,47.3713 ,1.16769 ,1.45885 ,14.31420 
254 ,47.5474 ,1.16948 ,1.43147 ,14.04557 
255 ,47.7234 ,1.17128 ,1.42462 ,13.97842 
256 ,47.8830 ,1.17294 ,1.40751 ,13.81053 
257 ,48.0592 ,1.17456 ,1.39040 ,13.64263 
258 ,48.2357 ,1.17631 ,1.39383 ,13.67621 
259 ,48.4273 ,1.17824 ,1.36645 ,13.40759 
260 ,48.6038 ,1.17999 ,1.35276 ,13.27327 
261 ,48.7958 ,1.18186 ,1.34591 ,13.20612 
262 ,48.9719 ,1.18381 ,1.32538 ,13.00465 
263 ,49.1480 ,1.18544 ,1.32196 ,12.97107 
264 ,49.3241 ,1.18722 ,1.29458 ,12.70244 
265 ,49.5160 ,1.18906 ,1.29800 ,12.73602 
266 ,49.7243 ,1.19114 ,1.26036 ,12.36666 
267 ,49.9323 ,1.19326 ,1.26036 ,12.36666 
268 ,50.1084 ,1.19508 ,1.25009 ,12.26592 
269 ,50.3004 ,1.19689 ,1.22614 ,12.03088 
270 ,50.4765 ,1.19871 ,1.21929 ,11.96372 
271 ,50.6527 ,1.20052 ,1.20903 ,11.86298 
272 ,50.8446 ,1.20248 ,1.18165 ,11.59436 
273 ,51.0206 ,1.20420 ,1.17138 ,11.49362 
274 ,51.2129 ,1.20607 ,1.17138 ,11.49362 
275 ,51.4049 ,1.20804 ,1.14401 ,11.22500 
276 ,51.5810 ,1.20977 ,1.12347 ,11.02353 
277 ,51.8052 ,1.21187 ,1.11321 ,10.92279 
278 ,51.9970 ,1.21385 ,1.10636 ,10.85563 
279 ,52.1732 ,1.21576 ,1.08583 ,10.65416 
280 ,52.3494 ,1.21748 ,1.08241 ,10.62059 
281 ,52.5735 ,1.21965 ,1.06872 ,10.48627 
282 ,52.7815 ,1.22161 ,1.05845 ,10.38554 
283 ,52.9576 ,1.22357 ,1.02081 ,10.01618 
284 ,53.1659 ,1.22556 ,1.00712 ,9.88186 
285 ,53.3575 ,1.22747 ,1.00370 ,9.84829 
286 ,53.5339 ,1.22930 ,0.99685 ,9.78113 
287 ,53.7097 ,1.23108 ,0.97974 ,9.61324 
288 ,53.9020 ,1.23298 ,0.96263 ,9.44535 
289 ,54.0780 ,1.23477 ,0.94210 ,9.24388 
290 ,54.2856 ,1.23675 ,0.92499 ,9.07598 
291 ,54.4622 ,1.23860 ,0.90103 ,8.84094 
292 ,54.6703 ,1.24057 ,0.90103 ,8.84094 
293 ,54.8462 ,1.24242 ,0.89077 ,8.74020 
294 ,55.0222 ,1.24429 ,0.88734 ,8.70662 
295 ,55.1985 ,1.24593 ,0.86339 ,8.47158 
296 ,55.4062 ,1.24794 ,0.84286 ,8.27011 
297 ,55.5826 ,1.24980 ,0.82917 ,8.13579 
298 ,55.7746 ,1.25168 ,0.84286 ,8.27011 
299 ,55.9668 ,1.25363 ,0.79837 ,7.83359 
300 ,56.1587 ,1.25548 ,0.80863 ,7.93432 
301 ,56.3511 ,1.25739 ,0.79495 ,7.80001 
302 ,56.5429 ,1.25933 ,0.76072 ,7.46423 
303 ,56.7512 ,1.26141 ,0.76072 ,7.46423 
304 ,56.9271 ,1.26322 ,0.74361 ,7.29633 
305 ,57.1194 ,1.26516 ,0.72308 ,7.09486 
306 ,57.2954 ,1.26698 ,0.72308 ,7.09486 
307 ,57.4710 ,1.26876 ,0.70255 ,6.89340 
308 ,57.6475 ,1.27046 ,0.69913 ,6.85982 
309 ,57.8236 ,1.27227 ,0.67859 ,6.65835 
310 ,58.0318 ,1.27420 ,0.67859 ,6.65835 
311 ,58.2235 ,1.27618 ,0.64779 ,6.35614 
312 ,58.4157 ,1.27803 ,0.63753 ,6.25541 
313 ,58.6239 ,1.28013 ,0.61699 ,6.05394 
314 ,58.8158 ,1.28214 ,0.62042 ,6.08752 
315 ,59.0080 ,1.28392 ,0.58962 ,5.78531 
316 ,59.2002 ,1.28584 ,0.57251 ,5.61742 
317 ,59.3923 ,1.28777 ,0.58277 ,5.71815 
318 ,59.5684 ,1.28965 ,0.55539 ,5.44953 
319 ,59.7604 ,1.29153 ,0.53486 ,5.24806 
320 ,59.9524 ,1.29345 ,0.52117 ,5.11375 
321 ,60.1446 ,1.29537 ,0.51775 ,5.08017 
322 ,60.3363 ,1.29727 ,0.49380 ,4.84512 
323 ,60.5128 ,1.29906 ,0.49380 ,4.84512 
324 ,60.7044 ,1.30088 ,0.46300 ,4.54291 
325 ,60.8809 ,1.30276 ,0.45273 ,4.44218 
326 ,61.0570 ,1.30448 ,0.44246 ,4.34144 
327 ,61.2330 ,1.30628 ,0.43220 ,4.24071 
328 ,61.4090 ,1.30807 ,0.43904 ,4.30787 
329 ,61.6012 ,1.30986 ,0.41851 ,4.10640 
330 ,61.7928 ,1.31177 ,0.41166 ,4.03924 
331 ,61.9693 ,1.31359 ,0.39797 ,3.90493 
332 ,62.1614 ,1.31553 ,0.36718 ,3.60272 
333 ,62.3373 ,1.31731 ,0.35691 ,3.50199 
334 ,62.5136 ,1.31903 ,0.35349 ,3.46841 
335 ,62.7056 ,1.32091 ,0.34322 ,3.36767 
336 ,62.8817 ,1.32272 ,0.31584 ,3.09905 
337 ,63.0577 ,1.32445 ,0.29873 ,2.93116 
338 ,63.2339 ,1.32626 ,0.30558 ,2.99831 
339 ,63.4257 ,1.32820 ,0.28847 ,2.83042 
340 ,63.6340 ,1.33021 ,0.28162 ,2.76326 
341 ,63.8261 ,1.33224 ,0.26109 ,2.56179 
342 ,64.0021 ,1.33400 ,0.24055 ,2.36032 
343 ,64.1781 ,1.33573 ,0.20976 ,2.05812 
344 ,64.3543 ,1.33750 ,0.22002 ,2.15885 
345 ,64.5307 ,1.33923 ,0.22344 ,2.19243 
346 ,64.7224 ,1.34107 ,0.18922 ,1.85665 
347 ,64.8986 ,1.34286 ,0.17553 ,1.72234 
348 ,65.0746 ,1.34464 ,0.16869 ,1.65518 
349 ,65.2665 ,1.34653 ,0.15842 ,1.55445 
350 ,65.4587 ,1.34849 ,0.14131 ,1.38655 
351 ,65.6349 ,1.35028 ,0.15158 ,1.48729 
352 ,65.8267 ,1.35210 ,0.12420 ,1.21866 
353 ,65.9868 ,1.35389 ,0.08998 ,0.88288 
354 ,66.1790 ,1.35563 ,0.08656 ,0.84930 
355 ,66.3553 ,1.35749 ,0.08998 ,0.88288 
356 ,66.5790 ,1.35955 ,0.06260 ,0.61425 
357 ,66.7553 ,1.36150 ,0.06602 ,0.64783 
358 ,66.9313 ,1.36322 ,0.04549 ,0.44636 
359 ,67.1071 ,1.36496 ,0.04549 ,0.44636 
360 ,67.2835 ,1.36678 ,0.01469 ,0.14416 
361 ,67.4597 ,1.36851 ,-0.00926 ,-0.09089 
362 ,67.6517 ,1.37035 ,0.01127 ,0.11058 
363 ,67.8277 ,1.37220 ,-0.00584 ,-0.05731 
364 ,68.0198 ,1.37414 ,-0.04006 ,-0.39310 
365 ,68.2114 ,1.37593 ,-0.02980 ,-0.29236 
366 ,68.3878 ,1.37780 ,-0.04006 ,-0.39310 
367 ,68.5799 ,1.37968 ,-0.07428 ,-0.72888 
368 ,68.7559 ,1.38144 ,-0.07428 ,-0.72888 
369 ,68.9482 ,1.38335 ,-0.06402 ,-0.62814 
370 ,69.1405 ,1.38530 ,-0.12904 ,-1.26613 
371 ,69.3324 ,1.38726 ,-0.12219 ,-1.19898 
372 ,69.5080 ,1.38898 ,-0.09824 ,-0.96393 
373 ,69.6842 ,1.39070 ,-0.14957 ,-1.46760 
374 ,69.8606 ,1.39251 ,-0.15984 ,-1.56834 
375 ,70.0366 ,1.39425 ,-0.14957 ,-1.46760 
376 ,70.2288 ,1.39621 ,-0.17695 ,-1.73623 
377 ,70.4208 ,1.39809 ,-0.20090 ,-1.97128 
378 ,70.6128 ,1.40004 ,-0.17695 ,-1.73623 
379 ,70.8050 ,1.40195 ,-0.19064 ,-1.87054 
380 ,70.9969 ,1.40376 ,-0.21117 ,-2.07201 
381 ,71.1890 ,1.40568 ,-0.23513 ,-2.30706 
382 ,71.3810 ,1.40759 ,-0.22828 ,-2.23990 
383 ,71.5891 ,1.40968 ,-0.25566 ,-2.50853 
384 ,71.7973 ,1.41179 ,-0.24197 ,-2.37422 
385 ,71.9732 ,1.41364 ,-0.25566 ,-2.50853 
386 ,72.1813 ,1.41568 ,-0.29330 ,-2.87789 
387 ,72.3732 ,1.41759 ,-0.27961 ,-2.74358 
388 ,72.5495 ,1.41937 ,-0.28646 ,-2.81073 
389 ,72.7257 ,1.42110 ,-0.29673 ,-2.91147 
390 ,72.9178 ,1.42297 ,-0.31726 ,-3.11294 
391 ,73.1098 ,1.42495 ,-0.33095 ,-3.24725 
392 ,73.3020 ,1.42687 ,-0.33437 ,-3.28083 
393 ,73.4940 ,1.42883 ,-0.32752 ,-3.21367 
394 ,73.6858 ,1.43065 ,-0.36175 ,-3.54946 
395 ,73.8621 ,1.43249 ,-0.37886 ,-3.71735 
396 ,74.0382 ,1.43422 ,-0.38228 ,-3.75093 
397 ,74.2303 ,1.43622 ,-0.37544 ,-3.68377 
398 ,74.3903 ,1.43791 ,-0.39255 ,-3.85166 
399 ,74.5824 ,1.43958 ,-0.40966 ,-4.01955 
400 ,74.7904 ,1.44174 ,-0.42335 ,-4.15387 
401 ,74.9981 ,1.44387 ,-0.44046 ,-4.32176 
402 ,75.1742 ,1.44566 ,-0.44730 ,-4.38891 
403 ,75.3664 ,1.44747 ,-0.48494 ,-4.75828 
404 ,75.5749 ,1.44960 ,-0.47810 ,-4.69112 
405 ,75.7825 ,1.45162 ,-0.49863 ,-4.89259 
406 ,75.9429 ,1.45342 ,-0.50890 ,-4.99332 
407 ,76.1191 ,1.45508 ,-0.52259 ,-5.12764 
408 ,76.3111 ,1.45697 ,-0.51574 ,-5.06048 
409 ,76.4870 ,1.45875 ,-0.53628 ,-5.26195 
410 ,76.6633 ,1.46051 ,-0.54997 ,-5.39626 
411 ,76.8549 ,1.46237 ,-0.54997 ,-5.39626 
412 ,77.0316 ,1.46416 ,-0.56708 ,-5.56415 
413 ,77.2234 ,1.46610 ,-0.59103 ,-5.79920 
414 ,77.4154 ,1.46793 ,-0.59103 ,-5.79920 
415 ,77.5915 ,1.46978 ,-0.59445 ,-5.83278 
416 ,77.7836 ,1.47172 ,-0.62183 ,-6.10141 
417 ,77.9758 ,1.47360 ,-0.62525 ,-6.13499 
418 ,78.1675 ,1.47550 ,-0.64236 ,-6.30288 
419 ,78.3440 ,1.47728 ,-0.66632 ,-6.53793 
420 ,78.5358 ,1.47920 ,-0.65605 ,-6.43719 
421 ,78.7282 ,1.48108 ,-0.68001 ,-6.67224 
422 ,78.9200 ,1.48298 ,-0.66632 ,-6.53793 
423 ,79.1124 ,1.48493 ,-0.68685 ,-6.73940 
424 ,79.3201 ,1.48701 ,-0.70054 ,-6.87371 
425 ,79.4967 ,1.48878 ,-0.71423 ,-7.00802 
426 ,79.7043 ,1.49083 ,-0.73818 ,-7.24307 
427 ,79.8806 ,1.49268 ,-0.74161 ,-7.27665 
428 ,80.0725 ,1.49450 ,-0.75872 ,-7.44454 
429 ,80.2648 ,1.49647 ,-0.77241 ,-7.57885 
430 ,80.4566 ,1.49832 ,-0.77241 ,-7.57885 
431 ,80.6489 ,1.50036 ,-0.78610 ,-7.71317 
432 ,80.8567 ,1.50233 ,-0.79294 ,-7.78032 
433 ,81.0331 ,1.50415 ,-0.79636 ,-7.81390 
434 ,81.2250 ,1.50617 ,-0.82716 ,-8.11611 
435 ,81.4012 ,1.50786 ,-0.83401 ,-8.18326 
436 ,81.5772 ,1.50965 ,-0.84085 ,-8.25042 
437 ,81.7534 ,1.51141 ,-0.84085 ,-8.25042 
438 ,81.9454 ,1.51322 ,-0.86823 ,-8.51904 
439 ,82.1215 ,1.51507 ,-0.87507 ,-8.58620 
440 ,82.2975 ,1.51679 ,-0.88192 ,-8.65336 
441 ,82.4897 ,1.51870 ,-0.89218 ,-8.75409 
442 ,82.6817 ,1.52062 ,-0.88876 ,-8.72051 
443 ,82.8738 ,1.52259 ,-0.88534 ,-8.68694 
444 ,83.0657 ,1.52444 ,-0.92640 ,-9.08988 
445 ,83.2576 ,1.52641 ,-0.91614 ,-8.98914 
446 ,83.4336 ,1.52819 ,-0.90929 ,-8.92198 
447 ,83.6261 ,1.53011 ,-0.93325 ,-9.15703 
448 ,83.8179 ,1.53205 ,-0.94694 ,-9.29135 
449 ,83.9943 ,1.53376 ,-0.94009 ,-9.22419 
450 ,84.2024 ,1.53580 ,-0.95036 ,-9.32492 
451 ,84.3781 ,1.53762 ,-0.96405 ,-9.45924 
452 ,84.5546 ,1.53935 ,-0.96063 ,-9.42566 
453 ,84.7465 ,1.54123 ,-0.98800 ,-9.69429 
454 ,84.9388 ,1.54323 ,-0.98116 ,-9.62713 
455 ,85.1468 ,1.54521 ,-1.01538 ,-9.96291 
456 ,85.3389 ,1.54714 ,-0.99827 ,-9.79502 
457 ,85.5148 ,1.54894 ,-1.00169 ,-9.82860 
458 ,85.6909 ,1.55075 ,-1.01880 ,-9.99649 
459 ,85.8668 ,1.55252 ,-1.03591 ,-10.16438 
460 ,86.0593 ,1.55435 ,-1.04276 ,-10.23154 
461 ,86.2509 ,1.55626 ,-1.06329 ,-10.43301 
462 ,86.4268 ,1.55814 ,-1.08040 ,-10.60090 
