Data stamp = , 21-04-2022 13:30:20 424

Calibration Values: 
Slope = , 26.54 , g/V 
Offset Voltage at no contact = , -0.501760 , V 

No , Time , Stage Position ,   Mass , Force 
   ,  (s) ,      (mm)      ,   (g)  , (mN)  

1 ,0.0000 ,0.74939 ,5.04870 ,49.53784 
2 ,0.3023 ,0.74961 ,5.04185 ,49.47068 
3 ,0.6386 ,0.75076 ,5.04870 ,49.53784 
4 ,0.8306 ,0.75258 ,5.05212 ,49.57142 
5 ,1.0063 ,0.75420 ,5.05897 ,49.63857 
6 ,1.1829 ,0.75595 ,5.04870 ,49.53784 
7 ,1.3750 ,0.75781 ,5.04185 ,49.47068 
8 ,1.5508 ,0.75958 ,5.05554 ,49.60499 
9 ,1.7431 ,0.76146 ,5.02132 ,49.26921 
10 ,1.9509 ,0.76347 ,5.00763 ,49.13490 
11 ,2.1112 ,0.76533 ,5.00079 ,49.06774 
12 ,2.2874 ,0.76695 ,4.99394 ,49.00058 
13 ,2.4796 ,0.76886 ,4.96315 ,48.69838 
14 ,2.6714 ,0.77083 ,4.95288 ,48.59764 
15 ,2.8635 ,0.77266 ,4.92892 ,48.36260 
16 ,3.0557 ,0.77460 ,4.91181 ,48.19471 
17 ,3.2317 ,0.77650 ,4.89470 ,48.02681 
18 ,3.4079 ,0.77822 ,4.89128 ,47.99324 
19 ,3.5998 ,0.78007 ,4.86732 ,47.75819 
20 ,3.7758 ,0.78191 ,4.84679 ,47.55672 
21 ,3.9682 ,0.78380 ,4.83310 ,47.42240 
22 ,4.1761 ,0.78581 ,4.81257 ,47.22093 
23 ,4.3683 ,0.78777 ,4.79204 ,47.01946 
24 ,4.5604 ,0.78969 ,4.77150 ,46.81800 
25 ,4.7524 ,0.79157 ,4.76124 ,46.71726 
26 ,4.9445 ,0.79352 ,4.73044 ,46.41506 
27 ,5.1366 ,0.79542 ,4.74070 ,46.51579 
28 ,5.3285 ,0.79746 ,4.69622 ,46.07927 
29 ,5.5047 ,0.79913 ,4.67568 ,45.87780 
30 ,5.6967 ,0.80097 ,4.69279 ,46.04569 
31 ,5.8887 ,0.80292 ,4.66884 ,45.81065 
32 ,6.0807 ,0.80482 ,4.63462 ,45.47486 
33 ,6.2407 ,0.80661 ,4.63462 ,45.47486 
34 ,6.4331 ,0.80843 ,4.62435 ,45.37413 
35 ,6.6571 ,0.81053 ,4.60724 ,45.20624 
36 ,6.8327 ,0.81244 ,4.58328 ,44.97119 
37 ,7.0087 ,0.81425 ,4.54906 ,44.63541 
38 ,7.1848 ,0.81595 ,4.53195 ,44.46751 
39 ,7.3771 ,0.81783 ,4.53537 ,44.50109 
40 ,7.5855 ,0.81990 ,4.50115 ,44.16531 
41 ,7.7934 ,0.82202 ,4.50800 ,44.23247 
42 ,7.9856 ,0.82390 ,4.46009 ,43.76237 
43 ,8.1938 ,0.82595 ,4.47035 ,43.86310 
44 ,8.3697 ,0.82780 ,4.43955 ,43.56090 
45 ,8.5456 ,0.82957 ,4.42244 ,43.39301 
46 ,8.7377 ,0.83145 ,4.41902 ,43.35943 
47 ,8.9300 ,0.83346 ,4.38480 ,43.02365 
48 ,9.1059 ,0.83518 ,4.37795 ,42.95649 
49 ,9.3142 ,0.83718 ,4.37453 ,42.92291 
50 ,9.5063 ,0.83919 ,4.34031 ,42.58713 
51 ,9.6983 ,0.84100 ,4.33004 ,42.48639 
52 ,9.9062 ,0.84312 ,4.31636 ,42.35208 
53 ,10.0823 ,0.84493 ,4.29240 ,42.11703 
54 ,10.2586 ,0.84667 ,4.29924 ,42.18419 
55 ,10.4665 ,0.84876 ,4.25133 ,41.71409 
56 ,10.6583 ,0.85057 ,4.26160 ,41.81483 
57 ,10.8348 ,0.85245 ,4.23765 ,41.57978 
58 ,11.0271 ,0.85439 ,4.20342 ,41.24400 
59 ,11.2189 ,0.85623 ,4.20685 ,41.27758 
60 ,11.3950 ,0.85803 ,4.20342 ,41.24400 
61 ,11.5710 ,0.85980 ,4.18289 ,41.04253 
62 ,11.7791 ,0.86181 ,4.16920 ,40.90821 
63 ,11.9711 ,0.86373 ,4.13156 ,40.53885 
64 ,12.1633 ,0.86564 ,4.11103 ,40.33738 
65 ,12.3395 ,0.86748 ,4.11787 ,40.40454 
66 ,12.5313 ,0.86929 ,4.07680 ,40.00160 
67 ,12.7075 ,0.87117 ,4.06312 ,39.86729 
68 ,12.8836 ,0.87289 ,4.06312 ,39.86729 
69 ,13.0757 ,0.87480 ,4.05969 ,39.83371 
70 ,13.2678 ,0.87676 ,4.02205 ,39.46435 
71 ,13.4597 ,0.87861 ,4.00152 ,39.26288 
72 ,13.6519 ,0.88055 ,3.99809 ,39.22930 
73 ,13.8437 ,0.88245 ,3.98098 ,39.06141 
74 ,14.0201 ,0.88426 ,3.97072 ,38.96067 
75 ,14.2123 ,0.88618 ,3.93992 ,38.65847 
76 ,14.4042 ,0.88805 ,3.93650 ,38.62489 
77 ,14.5804 ,0.88988 ,3.91938 ,38.45700 
78 ,14.7723 ,0.89179 ,3.90227 ,38.28911 
79 ,14.9802 ,0.89369 ,3.89543 ,38.22195 
80 ,15.1564 ,0.89560 ,3.86463 ,37.91975 
81 ,15.3484 ,0.89748 ,3.85436 ,37.81901 
82 ,15.5407 ,0.89943 ,3.83041 ,37.58396 
83 ,15.7329 ,0.90128 ,3.80987 ,37.38249 
84 ,15.9250 ,0.90332 ,3.78934 ,37.18102 
85 ,16.1170 ,0.90513 ,3.79276 ,37.21460 
86 ,16.3088 ,0.90715 ,3.76539 ,36.94597 
87 ,16.5009 ,0.90903 ,3.76881 ,36.97955 
88 ,16.6932 ,0.91090 ,3.73459 ,36.64377 
89 ,16.9011 ,0.91300 ,3.72432 ,36.54303 
90 ,17.0929 ,0.91489 ,3.70379 ,36.34157 
91 ,17.2692 ,0.91676 ,3.66957 ,36.00578 
92 ,17.4613 ,0.91858 ,3.67641 ,36.07294 
93 ,17.6376 ,0.92046 ,3.65930 ,35.90505 
94 ,17.8457 ,0.92243 ,3.63877 ,35.70358 
95 ,18.0377 ,0.92438 ,3.61139 ,35.43495 
96 ,18.2299 ,0.92629 ,3.61139 ,35.43495 
97 ,18.4217 ,0.92826 ,3.59086 ,35.23348 
98 ,18.6141 ,0.93010 ,3.54979 ,34.83054 
99 ,18.8219 ,0.93217 ,3.56348 ,34.96485 
100 ,18.9980 ,0.93406 ,3.53610 ,34.69623 
101 ,19.1899 ,0.93587 ,3.51899 ,34.52834 
102 ,19.3662 ,0.93770 ,3.50188 ,34.36045 
103 ,19.5743 ,0.93982 ,3.48477 ,34.19255 
104 ,19.7503 ,0.94155 ,3.46081 ,33.95751 
105 ,19.9425 ,0.94343 ,3.46766 ,34.02466 
106 ,20.1345 ,0.94531 ,3.42659 ,33.62172 
107 ,20.3103 ,0.94716 ,3.43686 ,33.72246 
108 ,20.4867 ,0.94891 ,3.41633 ,33.52099 
109 ,20.6788 ,0.95084 ,3.40606 ,33.42025 
110 ,20.8549 ,0.95261 ,3.37526 ,33.11805 
111 ,21.0471 ,0.95444 ,3.37184 ,33.08447 
112 ,21.2391 ,0.95639 ,3.35130 ,32.88300 
113 ,21.4311 ,0.95839 ,3.34788 ,32.84942 
114 ,21.6072 ,0.96009 ,3.31708 ,32.54722 
115 ,21.7832 ,0.96184 ,3.31708 ,32.54722 
116 ,21.9594 ,0.96363 ,3.28628 ,32.24501 
117 ,22.1509 ,0.96544 ,3.25891 ,31.97639 
118 ,22.3271 ,0.96729 ,3.25206 ,31.90923 
119 ,22.5031 ,0.96909 ,3.24180 ,31.80849 
120 ,22.6792 ,0.97079 ,3.21442 ,31.53987 
121 ,22.8553 ,0.97257 ,3.20073 ,31.40555 
122 ,23.0313 ,0.97439 ,3.20073 ,31.40555 
123 ,23.2073 ,0.97614 ,3.18020 ,31.20409 
124 ,23.3835 ,0.97789 ,3.15966 ,31.00262 
125 ,23.5758 ,0.97973 ,3.13913 ,30.80115 
126 ,23.7518 ,0.98158 ,3.12886 ,30.70041 
127 ,23.9282 ,0.98328 ,3.12202 ,30.63325 
128 ,24.1042 ,0.98512 ,3.11518 ,30.56610 
129 ,24.3123 ,0.98720 ,3.07069 ,30.12958 
130 ,24.5043 ,0.98901 ,3.07753 ,30.19674 
131 ,24.6803 ,0.99082 ,3.07411 ,30.16316 
132 ,24.8725 ,0.99281 ,3.03647 ,29.79380 
133 ,25.0646 ,0.99465 ,3.02278 ,29.65948 
134 ,25.2566 ,0.99653 ,3.00224 ,29.45801 
135 ,25.4647 ,0.99860 ,2.99882 ,29.42444 
136 ,25.6565 ,1.00052 ,2.96802 ,29.12223 
137 ,25.8489 ,1.00243 ,2.96802 ,29.12223 
138 ,26.0407 ,1.00449 ,2.93038 ,28.75287 
139 ,26.2170 ,1.00619 ,2.90985 ,28.55140 
140 ,26.3931 ,1.00796 ,2.91327 ,28.58498 
141 ,26.5691 ,1.00977 ,2.90300 ,28.48424 
142 ,26.7609 ,1.01160 ,2.87905 ,28.24919 
143 ,26.9374 ,1.01341 ,2.85167 ,27.98057 
144 ,27.1288 ,1.01530 ,2.85851 ,28.04772 
145 ,27.3215 ,1.01727 ,2.82087 ,27.67836 
146 ,27.5135 ,1.01918 ,2.83114 ,27.77910 
147 ,27.7056 ,1.02095 ,2.80034 ,27.47689 
148 ,27.8812 ,1.02288 ,2.77296 ,27.20827 
149 ,28.0578 ,1.02462 ,2.76611 ,27.14111 
150 ,28.2495 ,1.02645 ,2.76954 ,27.17469 
151 ,28.4263 ,1.02831 ,2.74900 ,26.97322 
152 ,28.6177 ,1.03014 ,2.72847 ,26.77175 
153 ,28.8101 ,1.03212 ,2.70452 ,26.53670 
154 ,29.0021 ,1.03395 ,2.67372 ,26.23450 
155 ,29.1783 ,1.03580 ,2.68056 ,26.30165 
156 ,29.3543 ,1.03763 ,2.67372 ,26.23450 
157 ,29.5464 ,1.03946 ,2.64976 ,25.99945 
158 ,29.7225 ,1.04121 ,2.61896 ,25.69724 
159 ,29.9145 ,1.04307 ,2.61896 ,25.69724 
160 ,30.0905 ,1.04491 ,2.60869 ,25.59651 
161 ,30.2827 ,1.04682 ,2.58132 ,25.32788 
162 ,30.4747 ,1.04880 ,2.56421 ,25.15999 
163 ,30.6669 ,1.05062 ,2.56078 ,25.12641 
164 ,30.8749 ,1.05269 ,2.55736 ,25.09283 
165 ,31.0665 ,1.05467 ,2.53341 ,24.85779 
166 ,31.2431 ,1.05647 ,2.51972 ,24.72347 
167 ,31.4354 ,1.05836 ,2.49576 ,24.48842 
168 ,31.6274 ,1.06027 ,2.49234 ,24.45485 
169 ,31.8193 ,1.06214 ,2.45127 ,24.05191 
170 ,31.9953 ,1.06396 ,2.43074 ,23.85044 
171 ,32.1550 ,1.06565 ,2.43759 ,23.91759 
172 ,32.3475 ,1.06740 ,2.41705 ,23.71612 
173 ,32.5235 ,1.06925 ,2.39994 ,23.54823 
174 ,32.6997 ,1.07098 ,2.38968 ,23.44750 
175 ,32.8914 ,1.07288 ,2.38283 ,23.38034 
176 ,33.0837 ,1.07473 ,2.36914 ,23.24603 
177 ,33.2758 ,1.07668 ,2.34519 ,23.01098 
178 ,33.4519 ,1.07847 ,2.32465 ,22.80951 
179 ,33.6439 ,1.08036 ,2.29728 ,22.54088 
180 ,33.8362 ,1.08237 ,2.28359 ,22.40657 
181 ,34.0282 ,1.08429 ,2.29043 ,22.47373 
182 ,34.2041 ,1.08601 ,2.27332 ,22.30584 
183 ,34.3961 ,1.08795 ,2.24937 ,22.07079 
184 ,34.5883 ,1.08983 ,2.23910 ,21.97005 
185 ,34.7643 ,1.09165 ,2.20830 ,21.66785 
186 ,34.9565 ,1.09356 ,2.21515 ,21.73500 
187 ,35.1325 ,1.09532 ,2.20830 ,21.66785 
188 ,35.3085 ,1.09707 ,2.18092 ,21.39922 
189 ,35.4848 ,1.09884 ,2.16723 ,21.26491 
190 ,35.6769 ,1.10076 ,2.13301 ,20.92912 
191 ,35.8690 ,1.10267 ,2.13644 ,20.96270 
192 ,36.0610 ,1.10451 ,2.11932 ,20.79481 
193 ,36.2372 ,1.10636 ,2.09195 ,20.52619 
194 ,36.4287 ,1.10834 ,2.07826 ,20.39187 
195 ,36.6053 ,1.11006 ,2.08168 ,20.42545 
196 ,36.7973 ,1.11195 ,2.05773 ,20.19040 
197 ,36.9733 ,1.11370 ,2.04404 ,20.05609 
198 ,37.1495 ,1.11544 ,2.03377 ,19.95535 
199 ,37.3414 ,1.11732 ,2.00639 ,19.68673 
200 ,37.5011 ,1.11910 ,2.00297 ,19.65315 
201 ,37.6776 ,1.12085 ,1.99270 ,19.55241 
202 ,37.8854 ,1.12276 ,1.96875 ,19.31737 
203 ,38.0774 ,1.12471 ,1.94822 ,19.11590 
204 ,38.2536 ,1.12647 ,1.94822 ,19.11590 
205 ,38.4460 ,1.12837 ,1.93111 ,18.94801 
206 ,38.6376 ,1.13029 ,1.92426 ,18.88085 
207 ,38.8302 ,1.13221 ,1.90373 ,18.67938 
208 ,39.0061 ,1.13407 ,1.88662 ,18.51149 
209 ,39.1982 ,1.13589 ,1.87635 ,18.41075 
210 ,39.3899 ,1.13781 ,1.85924 ,18.24286 
211 ,39.5659 ,1.13975 ,1.83186 ,17.97423 
212 ,39.7261 ,1.14132 ,1.82502 ,17.90708 
213 ,39.9182 ,1.14309 ,1.82502 ,17.90708 
214 ,40.0943 ,1.14491 ,1.81475 ,17.80634 
215 ,40.2866 ,1.14672 ,1.78737 ,17.53772 
216 ,40.4626 ,1.14863 ,1.76342 ,17.30267 
217 ,40.6548 ,1.15039 ,1.76000 ,17.26909 
218 ,40.8310 ,1.15226 ,1.75657 ,17.23551 
219 ,41.0070 ,1.15405 ,1.72920 ,16.96689 
220 ,41.1991 ,1.15590 ,1.71209 ,16.79899 
221 ,41.4072 ,1.15800 ,1.69155 ,16.59752 
222 ,41.5993 ,1.15988 ,1.68471 ,16.53037 
223 ,41.8074 ,1.16198 ,1.65733 ,16.26174 
224 ,41.9833 ,1.16386 ,1.66075 ,16.29532 
225 ,42.1596 ,1.16559 ,1.65391 ,16.22816 
226 ,42.3356 ,1.16730 ,1.64364 ,16.12743 
227 ,42.5275 ,1.16930 ,1.61284 ,15.82522 
228 ,42.7034 ,1.17097 ,1.60258 ,15.72449 
229 ,42.8797 ,1.17272 ,1.59916 ,15.69091 
230 ,43.0558 ,1.17453 ,1.56836 ,15.38871 
231 ,43.2479 ,1.17641 ,1.55124 ,15.22081 
232 ,43.4244 ,1.17822 ,1.54098 ,15.12008 
233 ,43.6161 ,1.18007 ,1.54098 ,15.12008 
234 ,43.8082 ,1.18198 ,1.51360 ,14.85145 
235 ,43.9998 ,1.18389 ,1.51702 ,14.88503 
236 ,44.1764 ,1.18574 ,1.49991 ,14.71714 
237 ,44.4004 ,1.18778 ,1.48280 ,14.54925 
238 ,44.5765 ,1.18973 ,1.47596 ,14.48209 
239 ,44.7845 ,1.19181 ,1.44516 ,14.17989 
240 ,44.9766 ,1.19374 ,1.44174 ,14.14631 
241 ,45.1524 ,1.19547 ,1.42462 ,13.97842 
242 ,45.3448 ,1.19735 ,1.40751 ,13.81053 
243 ,45.5528 ,1.19942 ,1.39383 ,13.67621 
244 ,45.7450 ,1.20139 ,1.37671 ,13.50832 
245 ,45.9370 ,1.20326 ,1.36987 ,13.44116 
246 ,46.1129 ,1.20505 ,1.34591 ,13.20612 
247 ,46.3052 ,1.20696 ,1.33223 ,13.07180 
248 ,46.5130 ,1.20903 ,1.31854 ,12.93749 
249 ,46.6893 ,1.21084 ,1.30143 ,12.76960 
250 ,46.8655 ,1.21256 ,1.29458 ,12.70244 
251 ,47.0576 ,1.21452 ,1.29458 ,12.70244 
252 ,47.2492 ,1.21636 ,1.26378 ,12.40024 
253 ,47.4417 ,1.21828 ,1.27747 ,12.53455 
254 ,47.6498 ,1.22043 ,1.24325 ,12.19877 
255 ,47.8418 ,1.22229 ,1.24667 ,12.23235 
256 ,48.0180 ,1.22411 ,1.21929 ,11.96372 
257 ,48.1939 ,1.22589 ,1.20561 ,11.82941 
258 ,48.3700 ,1.22760 ,1.18165 ,11.59436 
259 ,48.5462 ,1.22939 ,1.17138 ,11.49362 
260 ,48.7381 ,1.23126 ,1.16454 ,11.42647 
261 ,48.9144 ,1.23309 ,1.15427 ,11.32573 
262 ,49.1064 ,1.23489 ,1.13374 ,11.12426 
263 ,49.2824 ,1.23674 ,1.13374 ,11.12426 
264 ,49.4581 ,1.23850 ,1.12347 ,11.02353 
265 ,49.6506 ,1.24034 ,1.10294 ,10.82206 
266 ,49.8424 ,1.24238 ,1.08241 ,10.62059 
267 ,50.0347 ,1.24420 ,1.06872 ,10.48627 
268 ,50.2267 ,1.24617 ,1.06872 ,10.48627 
269 ,50.4190 ,1.24809 ,1.04819 ,10.28480 
270 ,50.6109 ,1.24996 ,1.03108 ,10.11691 
271 ,50.8191 ,1.25208 ,1.02081 ,10.01618 
272 ,51.0273 ,1.25401 ,0.98659 ,9.68039 
273 ,51.2351 ,1.25622 ,0.97974 ,9.61324 
274 ,51.4111 ,1.25800 ,0.96948 ,9.51250 
275 ,51.5868 ,1.25987 ,0.97290 ,9.54608 
276 ,51.7632 ,1.26151 ,0.94894 ,9.31103 
277 ,51.9555 ,1.26350 ,0.93183 ,9.14314 
278 ,52.1315 ,1.26523 ,0.90788 ,8.90809 
279 ,52.3237 ,1.26714 ,0.92499 ,9.07598 
280 ,52.5314 ,1.26915 ,0.89761 ,8.80736 
281 ,52.7075 ,1.27096 ,0.88392 ,8.67305 
282 ,52.8838 ,1.27278 ,0.89077 ,8.74020 
283 ,53.0918 ,1.27476 ,0.85997 ,8.43800 
284 ,53.2839 ,1.27667 ,0.85654 ,8.40442 
285 ,53.4760 ,1.27858 ,0.81890 ,8.03506 
286 ,53.6680 ,1.28059 ,0.81890 ,8.03506 
287 ,53.8603 ,1.28247 ,0.79837 ,7.83359 
288 ,54.0681 ,1.28459 ,0.80521 ,7.90074 
289 ,54.2603 ,1.28641 ,0.78468 ,7.69927 
290 ,54.4523 ,1.28839 ,0.75730 ,7.43065 
291 ,54.6445 ,1.29023 ,0.75730 ,7.43065 
292 ,54.8366 ,1.29228 ,0.72992 ,7.16202 
293 ,55.0289 ,1.29419 ,0.72650 ,7.12844 
294 ,55.2368 ,1.29609 ,0.71966 ,7.06129 
295 ,55.4128 ,1.29807 ,0.67517 ,6.62477 
296 ,55.5889 ,1.29978 ,0.67517 ,6.62477 
297 ,55.7811 ,1.30167 ,0.67175 ,6.59119 
298 ,55.9570 ,1.30357 ,0.65121 ,6.38972 
299 ,56.1492 ,1.30534 ,0.65806 ,6.45688 
300 ,56.3572 ,1.30737 ,0.62384 ,6.12109 
301 ,56.5490 ,1.30937 ,0.62042 ,6.08752 
302 ,56.7412 ,1.31129 ,0.60330 ,5.91962 
303 ,56.9170 ,1.31317 ,0.58277 ,5.71815 
304 ,57.0936 ,1.31482 ,0.57251 ,5.61742 
305 ,57.3016 ,1.31686 ,0.55882 ,5.48311 
306 ,57.5257 ,1.31897 ,0.53828 ,5.28164 
307 ,57.7178 ,1.32104 ,0.53144 ,5.21448 
308 ,57.9097 ,1.32304 ,0.52459 ,5.14732 
309 ,58.0860 ,1.32473 ,0.52117 ,5.11375 
310 ,58.2779 ,1.32675 ,0.48695 ,4.77796 
311 ,58.4541 ,1.32847 ,0.47668 ,4.67723 
312 ,58.6297 ,1.33024 ,0.46984 ,4.61007 
313 ,58.8061 ,1.33194 ,0.45957 ,4.50934 
314 ,58.9821 ,1.33372 ,0.45273 ,4.44218 
315 ,59.2064 ,1.33578 ,0.44588 ,4.37502 
316 ,59.3985 ,1.33788 ,0.41509 ,4.07282 
317 ,59.5904 ,1.33968 ,0.40482 ,3.97208 
318 ,59.7826 ,1.34161 ,0.41851 ,4.10640 
319 ,59.9907 ,1.34375 ,0.39455 ,3.87135 
320 ,60.1668 ,1.34563 ,0.36718 ,3.60272 
321 ,60.3588 ,1.34747 ,0.34664 ,3.40125 
322 ,60.5508 ,1.34938 ,0.34322 ,3.36767 
323 ,60.7430 ,1.35127 ,0.31926 ,3.13263 
324 ,60.9508 ,1.35334 ,0.32611 ,3.19978 
325 ,61.1428 ,1.35525 ,0.28847 ,2.83042 
326 ,61.3353 ,1.35713 ,0.27135 ,2.66253 
327 ,61.5433 ,1.35926 ,0.26109 ,2.56179 
328 ,61.7194 ,1.36114 ,0.25767 ,2.52822 
329 ,61.8954 ,1.36281 ,0.25424 ,2.49464 
330 ,62.0714 ,1.36459 ,0.25082 ,2.46106 
331 ,62.2632 ,1.36653 ,0.22002 ,2.15885 
332 ,62.4554 ,1.36840 ,0.20291 ,1.99096 
333 ,62.6472 ,1.37028 ,0.20976 ,2.05812 
334 ,62.8394 ,1.37220 ,0.17211 ,1.68876 
335 ,63.0315 ,1.37413 ,0.18580 ,1.82307 
336 ,63.2395 ,1.37620 ,0.14816 ,1.45371 
337 ,63.4160 ,1.37799 ,0.13105 ,1.28582 
338 ,63.5921 ,1.37980 ,0.13447 ,1.31940 
339 ,63.7843 ,1.38160 ,0.13447 ,1.31940 
340 ,63.9763 ,1.38363 ,0.10709 ,1.05077 
341 ,64.1525 ,1.38538 ,0.10367 ,1.01719 
342 ,64.3603 ,1.38742 ,0.06945 ,0.68141 
343 ,64.5524 ,1.38937 ,0.07287 ,0.71499 
344 ,64.7446 ,1.39134 ,0.05234 ,0.51352 
345 ,64.9526 ,1.39331 ,0.04549 ,0.44636 
346 ,65.1448 ,1.39533 ,0.04207 ,0.41278 
347 ,65.3529 ,1.39724 ,0.02154 ,0.21131 
348 ,65.5290 ,1.39920 ,-0.00584 ,-0.05731 
349 ,65.7211 ,1.40097 ,-0.01269 ,-0.12447 
350 ,65.9132 ,1.40293 ,-0.01953 ,-0.19163 
351 ,66.1051 ,1.40484 ,-0.04691 ,-0.46025 
352 ,66.2810 ,1.40673 ,-0.04006 ,-0.39310 
353 ,66.4570 ,1.40852 ,-0.04006 ,-0.39310 
354 ,66.6340 ,1.41019 ,-0.05375 ,-0.52741 
355 ,66.8411 ,1.41218 ,-0.08797 ,-0.86319 
356 ,67.0176 ,1.41403 ,-0.10508 ,-1.03108 
357 ,67.2255 ,1.41606 ,-0.10851 ,-1.06466 
358 ,67.4013 ,1.41790 ,-0.11535 ,-1.13182 
359 ,67.5772 ,1.41967 ,0.87708 ,8.60589 
360 ,67.7693 ,1.42147 ,0.99001 ,9.71397 
361 ,67.9617 ,1.42346 ,1.00370 ,9.84829 
362 ,68.1858 ,1.42555 ,1.02423 ,10.04976 
363 ,68.3777 ,1.42763 ,1.03108 ,10.11691 
364 ,68.5542 ,1.42937 ,1.02765 ,10.08333 
365 ,68.7302 ,1.43112 ,1.02765 ,10.08333 
366 ,68.9223 ,1.43305 ,1.00370 ,9.84829 
367 ,69.1144 ,1.43496 ,1.02081 ,10.01618 
368 ,69.3062 ,1.43689 ,1.00712 ,9.88186 
369 ,69.4985 ,1.43884 ,1.01054 ,9.91544 
370 ,69.6902 ,1.44066 ,0.99001 ,9.71397 
371 ,69.8667 ,1.44250 ,0.98317 ,9.64682 
372 ,70.0589 ,1.44445 ,0.97974 ,9.61324 
373 ,70.2351 ,1.44622 ,0.99001 ,9.71397 
374 ,70.4271 ,1.44801 ,0.97632 ,9.57966 
375 ,70.6027 ,1.44993 ,0.95237 ,9.34461 
376 ,70.7792 ,1.45162 ,0.96263 ,9.44535 
377 ,71.0033 ,1.45375 ,0.95237 ,9.34461 
378 ,71.1953 ,1.45581 ,0.95921 ,9.41177 
379 ,71.3712 ,1.45753 ,0.95237 ,9.34461 
380 ,71.5474 ,1.45931 ,0.93183 ,9.14314 
381 ,71.7236 ,1.46108 ,0.93525 ,9.17672 
382 ,71.8993 ,1.46295 ,0.94552 ,9.27745 
383 ,72.0757 ,1.46458 ,0.93183 ,9.14314 
384 ,72.2677 ,1.46651 ,0.92157 ,9.04241 
385 ,72.4438 ,1.46828 ,0.90446 ,8.87451 
386 ,72.6195 ,1.47012 ,0.91814 ,9.00883 
387 ,72.7960 ,1.47180 ,0.91130 ,8.94167 
388 ,73.0036 ,1.47373 ,0.89419 ,8.77378 
389 ,73.1801 ,1.47566 ,0.90446 ,8.87451 
390 ,73.3561 ,1.47739 ,0.89419 ,8.77378 
391 ,73.5483 ,1.47933 ,0.88050 ,8.63947 
392 ,73.7402 ,1.48114 ,0.90103 ,8.84094 
393 ,73.9484 ,1.48319 ,0.88392 ,8.67305 
394 ,74.1401 ,1.48516 ,0.88392 ,8.67305 
395 ,74.3326 ,1.48710 ,0.84970 ,8.33726 
396 ,74.5405 ,1.48920 ,0.86681 ,8.50515 
397 ,74.7485 ,1.49118 ,0.86339 ,8.47158 
398 ,74.9407 ,1.49328 ,0.85312 ,8.37084 
399 ,75.1325 ,1.49515 ,0.84286 ,8.27011 
400 ,75.3088 ,1.49690 ,0.82917 ,8.13579 
401 ,75.4849 ,1.49867 ,0.82232 ,8.06864 
402 ,75.6610 ,1.50045 ,0.83259 ,8.16937 
403 ,75.8531 ,1.50227 ,0.80863 ,7.93432 
404 ,76.0294 ,1.50412 ,0.80521 ,7.90074 
405 ,76.2370 ,1.50611 ,0.81206 ,7.96790 
406 ,76.4294 ,1.50805 ,0.79495 ,7.80001 
407 ,76.6055 ,1.50988 ,0.79837 ,7.83359 
408 ,76.7815 ,1.51163 ,0.79837 ,7.83359 
409 ,76.9737 ,1.51345 ,0.78126 ,7.66570 
410 ,77.1813 ,1.51561 ,0.77441 ,7.59854 
411 ,77.3576 ,1.51737 ,0.78468 ,7.69927 
412 ,77.5499 ,1.51927 ,0.76072 ,7.46423 
413 ,77.7419 ,1.52125 ,0.76415 ,7.49780 
414 ,77.9337 ,1.52307 ,0.76415 ,7.49780 
415 ,78.1100 ,1.52491 ,0.73677 ,7.22918 
416 ,78.2861 ,1.52663 ,0.74361 ,7.29633 
417 ,78.4622 ,1.52842 ,0.74361 ,7.29633 
418 ,78.6703 ,1.53049 ,0.73677 ,7.22918 
419 ,78.8463 ,1.53227 ,0.71966 ,7.06129 
420 ,79.0222 ,1.53400 ,0.73335 ,7.19560 
421 ,79.2145 ,1.53594 ,0.70939 ,6.96055 
422 ,79.4064 ,1.53779 ,0.71624 ,7.02771 
423 ,79.5987 ,1.53973 ,0.71281 ,6.99413 
424 ,79.8068 ,1.54185 ,0.70939 ,6.96055 
425 ,79.9988 ,1.54376 ,0.69570 ,6.82624 
426 ,80.1749 ,1.54559 ,0.70939 ,6.96055 
427 ,80.3671 ,1.54741 ,0.69913 ,6.85982 
428 ,80.5591 ,1.54947 ,0.67175 ,6.59119 
429 ,80.7352 ,1.55117 ,0.68201 ,6.69193 
430 ,80.9273 ,1.55310 ,0.68544 ,6.72550 
431 ,81.1192 ,1.55491 ,0.67859 ,6.65835 
432 ,81.3112 ,1.55687 ,0.68201 ,6.69193 
433 ,81.4871 ,1.55868 ,0.66833 ,6.55761 
434 ,81.6795 ,1.56055 ,0.65464 ,6.42330 
435 ,81.8715 ,1.56251 ,0.65121 ,6.38972 
436 ,82.0477 ,1.56426 ,0.65121 ,6.38972 
437 ,82.2396 ,1.56616 ,0.65121 ,6.38972 
438 ,82.4321 ,1.56811 ,0.63410 ,6.22183 
439 ,82.6236 ,1.56992 ,0.64437 ,6.32256 
440 ,82.8160 ,1.57190 ,0.62384 ,6.12109 
441 ,83.0239 ,1.57401 ,0.63753 ,6.25541 
442 ,83.2162 ,1.57585 ,0.63068 ,6.18825 
443 ,83.4081 ,1.57789 ,0.62384 ,6.12109 
444 ,83.5843 ,1.57961 ,0.64437 ,6.32256 
445 ,83.7762 ,1.58159 ,0.61357 ,6.02036 
446 ,83.9525 ,1.58334 ,0.60673 ,5.95320 
447 ,84.1602 ,1.58525 ,0.62726 ,6.15467 
448 ,84.3686 ,1.58748 ,0.60330 ,5.91962 
449 ,84.5446 ,1.58925 ,0.61699 ,6.05394 
450 ,84.7367 ,1.59111 ,0.59304 ,5.81889 
451 ,84.9129 ,1.59296 ,0.60330 ,5.91962 
452 ,85.1050 ,1.59480 ,0.60330 ,5.91962 
453 ,85.2971 ,1.59667 ,0.57935 ,5.68458 
454 ,85.4890 ,1.59866 ,0.59988 ,5.88605 
455 ,85.6652 ,1.60044 ,0.59988 ,5.88605 
456 ,85.8408 ,1.60231 ,0.57935 ,5.68458 
457 ,86.0335 ,1.60411 ,0.59304 ,5.81889 
458 ,86.2254 ,1.60605 ,0.58962 ,5.78531 
459 ,86.4014 ,1.60777 ,0.58962 ,5.78531 
460 ,86.6096 ,1.60984 ,0.57935 ,5.68458 
461 ,86.8015 ,1.61172 ,0.56224 ,5.51668 
462 ,86.9772 ,1.61354 ,0.56224 ,5.51668 
463 ,87.1538 ,1.61534 ,0.55539 ,5.44953 
464 ,87.3459 ,1.61727 ,0.57251 ,5.61742 
465 ,87.5382 ,1.61911 ,0.56224 ,5.51668 
466 ,87.7140 ,1.62099 ,0.56566 ,5.55026 
467 ,87.8902 ,1.62268 ,0.56224 ,5.51668 
