Data stamp = , 22-04-2022 08:11:01 650

Calibration Values: 
Slope = , 26.54 , g/V 
Offset Voltage at no contact = , -0.501760 , V 

No , Time , Stage Position ,   Mass , Force 
   ,  (s) ,      (mm)      ,   (g)  , (mN)  

1 ,0.0000 ,0.69954 ,5.27456 ,51.75401 
2 ,0.2189 ,0.69960 ,5.27114 ,51.72043 
3 ,0.7314 ,0.70142 ,5.28483 ,51.85474 
4 ,0.9235 ,0.70359 ,5.28483 ,51.85474 
5 ,1.1156 ,0.70540 ,5.28141 ,51.82116 
6 ,1.3077 ,0.70724 ,5.27798 ,51.78758 
7 ,1.4993 ,0.70917 ,5.28483 ,51.85474 
8 ,1.6759 ,0.71105 ,5.28825 ,51.88832 
9 ,1.8519 ,0.71289 ,5.26087 ,51.61969 
10 ,2.0279 ,0.71461 ,5.25061 ,51.51896 
11 ,2.2521 ,0.71675 ,5.23350 ,51.35107 
12 ,2.4438 ,0.71876 ,5.21296 ,51.14960 
13 ,2.6201 ,0.72050 ,5.20954 ,51.11602 
14 ,2.8124 ,0.72236 ,5.18901 ,50.91455 
15 ,3.0044 ,0.72429 ,5.18216 ,50.84739 
16 ,3.1806 ,0.72613 ,5.15821 ,50.61234 
17 ,3.3725 ,0.72795 ,5.13768 ,50.41087 
18 ,3.5482 ,0.72975 ,5.11372 ,50.17583 
19 ,3.7243 ,0.73161 ,5.11714 ,50.20940 
20 ,3.9008 ,0.73327 ,5.08977 ,49.94078 
21 ,4.0930 ,0.73516 ,5.07608 ,49.80646 
22 ,4.3009 ,0.73726 ,5.06581 ,49.70573 
23 ,4.4768 ,0.73910 ,5.05554 ,49.60499 
24 ,4.6691 ,0.74095 ,5.01790 ,49.23563 
25 ,4.8447 ,0.74274 ,4.99394 ,49.00058 
26 ,5.0211 ,0.74448 ,4.99394 ,49.00058 
27 ,5.2291 ,0.74649 ,4.96315 ,48.69838 
28 ,5.4213 ,0.74850 ,4.95288 ,48.59764 
29 ,5.6454 ,0.75050 ,4.93919 ,48.46333 
30 ,5.8373 ,0.75257 ,4.92208 ,48.29544 
31 ,6.0456 ,0.75468 ,4.89128 ,47.99324 
32 ,6.2372 ,0.75673 ,4.88101 ,47.89250 
33 ,6.4133 ,0.75848 ,4.85706 ,47.65745 
34 ,6.5898 ,0.76017 ,4.84679 ,47.55672 
35 ,6.7655 ,0.76194 ,4.82284 ,47.32167 
36 ,6.9419 ,0.76372 ,4.81599 ,47.25451 
37 ,7.1181 ,0.76546 ,4.80573 ,47.15378 
38 ,7.3102 ,0.76730 ,4.77493 ,46.85157 
39 ,7.5022 ,0.76927 ,4.77493 ,46.85157 
40 ,7.6942 ,0.77118 ,4.76124 ,46.71726 
41 ,7.8703 ,0.77296 ,4.72702 ,46.38148 
42 ,8.0462 ,0.77471 ,4.72017 ,46.31432 
43 ,8.2705 ,0.77680 ,4.71675 ,46.28074 
44 ,8.4787 ,0.77899 ,4.68595 ,45.97854 
45 ,8.6707 ,0.78094 ,4.65515 ,45.67633 
46 ,8.8306 ,0.78271 ,4.63119 ,45.44128 
47 ,9.0226 ,0.78446 ,4.62777 ,45.40771 
48 ,9.2309 ,0.78648 ,4.64146 ,45.54202 
49 ,9.4388 ,0.78854 ,4.61066 ,45.23981 
50 ,9.6150 ,0.79042 ,4.59013 ,45.03835 
51 ,9.8071 ,0.79230 ,4.57302 ,44.87045 
52 ,9.9828 ,0.79415 ,4.56275 ,44.76972 
53 ,10.2072 ,0.79607 ,4.53880 ,44.53467 
54 ,10.3833 ,0.79813 ,4.51484 ,44.29962 
55 ,10.5594 ,0.79983 ,4.50457 ,44.19889 
56 ,10.7353 ,0.80158 ,4.50115 ,44.16531 
57 ,10.9114 ,0.80340 ,4.48062 ,43.96384 
58 ,11.0873 ,0.80512 ,4.45324 ,43.69521 
59 ,11.2638 ,0.80689 ,4.43271 ,43.49374 
60 ,11.4558 ,0.80878 ,4.41902 ,43.35943 
61 ,11.6639 ,0.81072 ,4.42586 ,43.42659 
62 ,11.8400 ,0.81266 ,4.39507 ,43.12438 
63 ,12.0321 ,0.81453 ,4.37111 ,42.88933 
64 ,12.1918 ,0.81630 ,4.35742 ,42.75502 
65 ,12.3681 ,0.81794 ,4.34716 ,42.65429 
66 ,12.5441 ,0.81971 ,4.32320 ,42.41924 
67 ,12.7523 ,0.82173 ,4.31293 ,42.31850 
68 ,12.9283 ,0.82358 ,4.28556 ,42.04988 
69 ,13.1204 ,0.82547 ,4.29582 ,42.15061 
70 ,13.2965 ,0.82719 ,4.27529 ,41.94914 
71 ,13.4884 ,0.82904 ,4.24449 ,41.64694 
72 ,13.6808 ,0.83108 ,4.24791 ,41.68051 
73 ,13.8729 ,0.83292 ,4.22053 ,41.41189 
74 ,14.0966 ,0.83496 ,4.20342 ,41.24400 
75 ,14.2726 ,0.83696 ,4.19316 ,41.14326 
76 ,14.4491 ,0.83874 ,4.16920 ,40.90821 
77 ,14.6571 ,0.84065 ,4.15894 ,40.80748 
78 ,14.8649 ,0.84289 ,4.14183 ,40.63959 
79 ,15.0414 ,0.84464 ,4.12814 ,40.50527 
80 ,15.2332 ,0.84653 ,4.10760 ,40.30380 
81 ,15.4252 ,0.84853 ,4.10418 ,40.27023 
82 ,15.6174 ,0.85035 ,4.06996 ,39.93444 
83 ,15.8096 ,0.85235 ,4.05627 ,39.80013 
84 ,16.0016 ,0.85427 ,4.04258 ,39.66582 
85 ,16.1937 ,0.85617 ,4.03574 ,39.59866 
86 ,16.3699 ,0.85793 ,4.00494 ,39.29646 
87 ,16.5620 ,0.85981 ,4.00152 ,39.26288 
88 ,16.7700 ,0.86188 ,3.96729 ,38.92709 
89 ,16.9459 ,0.86367 ,3.95361 ,38.79278 
90 ,17.1222 ,0.86545 ,3.96045 ,38.85994 
91 ,17.2978 ,0.86723 ,3.94334 ,38.69205 
92 ,17.4739 ,0.86897 ,3.91254 ,38.38984 
93 ,17.6664 ,0.87082 ,3.89543 ,38.22195 
94 ,17.8742 ,0.87289 ,3.90912 ,38.35626 
95 ,18.0666 ,0.87483 ,3.86463 ,37.91975 
96 ,18.2745 ,0.87691 ,3.84410 ,37.71828 
97 ,18.4506 ,0.87872 ,3.82699 ,37.55038 
98 ,18.6108 ,0.88048 ,3.80303 ,37.31534 
99 ,18.7868 ,0.88213 ,3.80303 ,37.31534 
100 ,18.9789 ,0.88401 ,3.80303 ,37.31534 
101 ,19.1710 ,0.88593 ,3.77223 ,37.01313 
102 ,19.3470 ,0.88774 ,3.75170 ,36.81166 
103 ,19.5230 ,0.88946 ,3.74828 ,36.77808 
104 ,19.6992 ,0.89121 ,3.73117 ,36.61019 
105 ,19.8752 ,0.89302 ,3.72090 ,36.50946 
106 ,20.0667 ,0.89485 ,3.69352 ,36.24083 
107 ,20.2593 ,0.89678 ,3.69010 ,36.20725 
108 ,20.4353 ,0.89854 ,3.67641 ,36.07294 
109 ,20.6116 ,0.90030 ,3.63534 ,35.67000 
110 ,20.8036 ,0.90221 ,3.64903 ,35.80431 
111 ,21.0117 ,0.90428 ,3.61481 ,35.46853 
112 ,21.1878 ,0.90608 ,3.59770 ,35.30064 
113 ,21.3799 ,0.90796 ,3.59428 ,35.26706 
114 ,21.5559 ,0.90978 ,3.58743 ,35.19990 
115 ,21.7316 ,0.91158 ,3.54295 ,34.76338 
116 ,21.9079 ,0.91332 ,3.53268 ,34.66265 
117 ,22.1002 ,0.91524 ,3.54295 ,34.76338 
118 ,22.2922 ,0.91717 ,3.49161 ,34.25971 
119 ,22.4683 ,0.91887 ,3.48135 ,34.15898 
120 ,22.6443 ,0.92069 ,3.47792 ,34.12540 
121 ,22.8360 ,0.92252 ,3.46766 ,34.02466 
122 ,23.0123 ,0.92434 ,3.45055 ,33.85677 
123 ,23.2047 ,0.92620 ,3.43686 ,33.72246 
124 ,23.4287 ,0.92832 ,3.40606 ,33.42025 
125 ,23.6209 ,0.93031 ,3.40606 ,33.42025 
126 ,23.8129 ,0.93231 ,3.36499 ,33.01731 
127 ,24.0049 ,0.93421 ,3.36842 ,33.05089 
128 ,24.2130 ,0.93628 ,3.32393 ,32.61437 
129 ,24.4047 ,0.93820 ,3.33077 ,32.68153 
130 ,24.5813 ,0.94002 ,3.32393 ,32.61437 
131 ,24.7890 ,0.94206 ,3.29313 ,32.31217 
132 ,24.9809 ,0.94396 ,3.27602 ,32.14428 
133 ,25.1733 ,0.94585 ,3.25548 ,31.94281 
134 ,25.3494 ,0.94770 ,3.24180 ,31.80849 
135 ,25.5255 ,0.94947 ,3.23495 ,31.74134 
136 ,25.7014 ,0.95123 ,3.22811 ,31.67418 
137 ,25.8777 ,0.95299 ,3.20073 ,31.40555 
138 ,26.0692 ,0.95489 ,3.16993 ,31.10335 
139 ,26.2619 ,0.95684 ,3.18704 ,31.27124 
140 ,26.4698 ,0.95881 ,3.13571 ,30.76757 
141 ,26.6620 ,0.96078 ,3.13913 ,30.80115 
142 ,26.8701 ,0.96286 ,3.11175 ,30.53252 
143 ,27.0462 ,0.96467 ,3.10149 ,30.43178 
144 ,27.2222 ,0.96639 ,3.10833 ,30.49894 
145 ,27.3984 ,0.96823 ,3.07753 ,30.19674 
146 ,27.5906 ,0.97008 ,3.05358 ,29.96169 
147 ,27.7825 ,0.97200 ,3.04673 ,29.89453 
148 ,27.9745 ,0.97385 ,3.02278 ,29.65948 
149 ,28.1507 ,0.97570 ,3.00909 ,29.52517 
150 ,28.3425 ,0.97754 ,3.00224 ,29.45801 
151 ,28.5027 ,0.97930 ,2.99540 ,29.39086 
152 ,28.6950 ,0.98104 ,2.97144 ,29.15581 
153 ,28.8873 ,0.98312 ,2.94749 ,28.92076 
154 ,29.0950 ,0.98506 ,2.92696 ,28.71929 
155 ,29.2712 ,0.98691 ,2.90642 ,28.51782 
156 ,29.4633 ,0.98888 ,2.89958 ,28.45066 
157 ,29.6552 ,0.99073 ,2.87905 ,28.24919 
158 ,29.8314 ,0.99255 ,2.85851 ,28.04772 
159 ,30.0233 ,0.99449 ,2.84482 ,27.91341 
160 ,30.1995 ,0.99617 ,2.84140 ,27.87983 
161 ,30.3913 ,0.99806 ,2.81060 ,27.57763 
162 ,30.5837 ,0.99994 ,2.80034 ,27.47689 
163 ,30.7917 ,1.00204 ,2.76611 ,27.14111 
164 ,30.9834 ,1.00394 ,2.76611 ,27.14111 
165 ,31.1599 ,1.00579 ,2.76954 ,27.17469 
166 ,31.3680 ,1.00775 ,2.73874 ,26.87248 
167 ,31.5599 ,1.00974 ,2.72505 ,26.73817 
168 ,31.7361 ,1.01160 ,2.71136 ,26.60386 
169 ,31.9441 ,1.01357 ,2.69425 ,26.43597 
170 ,32.1202 ,1.01535 ,2.67714 ,26.26807 
171 ,32.2964 ,1.01713 ,2.66345 ,26.13376 
172 ,32.5041 ,1.01914 ,2.64292 ,25.93229 
173 ,32.6966 ,1.02103 ,2.62923 ,25.79798 
174 ,32.9043 ,1.02315 ,2.62581 ,25.76440 
175 ,33.0807 ,1.02500 ,2.59843 ,25.49577 
176 ,33.2568 ,1.02678 ,2.57789 ,25.29430 
177 ,33.4325 ,1.02860 ,2.57105 ,25.22715 
178 ,33.6244 ,1.03039 ,2.56078 ,25.12641 
179 ,33.8165 ,1.03226 ,2.52314 ,24.75705 
180 ,34.0092 ,1.03417 ,2.50945 ,24.62274 
181 ,34.2169 ,1.03631 ,2.50603 ,24.58916 
182 ,34.3936 ,1.03810 ,2.47181 ,24.25338 
183 ,34.5850 ,1.03994 ,2.48207 ,24.35411 
184 ,34.7613 ,1.04177 ,2.46839 ,24.21980 
185 ,34.9373 ,1.04351 ,2.44785 ,24.01833 
186 ,35.1131 ,1.04530 ,2.41021 ,23.64897 
187 ,35.3055 ,1.04718 ,2.42732 ,23.81686 
188 ,35.4977 ,1.04916 ,2.39310 ,23.48108 
189 ,35.6898 ,1.05099 ,2.37256 ,23.27961 
190 ,35.8818 ,1.05294 ,2.36914 ,23.24603 
191 ,36.0580 ,1.05477 ,2.35203 ,23.07814 
192 ,36.2659 ,1.05673 ,2.32465 ,22.80951 
193 ,36.4420 ,1.05856 ,2.32808 ,22.84309 
194 ,36.6182 ,1.06034 ,2.29728 ,22.54088 
195 ,36.8100 ,1.06224 ,2.26990 ,22.27226 
196 ,37.0023 ,1.06415 ,2.28017 ,22.37299 
197 ,37.1944 ,1.06610 ,2.24252 ,22.00363 
198 ,37.3865 ,1.06794 ,2.22541 ,21.83574 
199 ,37.5947 ,1.07005 ,2.22199 ,21.80216 
200 ,37.7707 ,1.07187 ,2.18435 ,21.43280 
201 ,37.9303 ,1.07358 ,2.18435 ,21.43280 
202 ,38.1063 ,1.07521 ,2.17066 ,21.29849 
203 ,38.2989 ,1.07716 ,2.16039 ,21.19775 
204 ,38.5069 ,1.07913 ,2.15355 ,21.13059 
205 ,38.6832 ,1.08098 ,2.13644 ,20.96270 
206 ,38.8911 ,1.08299 ,2.10906 ,20.69408 
207 ,39.0512 ,1.08476 ,2.09195 ,20.52619 
208 ,39.2272 ,1.08645 ,2.07484 ,20.35829 
209 ,39.4033 ,1.08826 ,2.06457 ,20.25756 
210 ,39.5949 ,1.09008 ,2.04061 ,20.02251 
211 ,39.7715 ,1.09186 ,2.02008 ,19.82104 
212 ,39.9634 ,1.09374 ,2.04061 ,20.02251 
213 ,40.1716 ,1.09578 ,2.00297 ,19.65315 
214 ,40.3476 ,1.09761 ,1.98586 ,19.48526 
215 ,40.5396 ,1.09948 ,1.96190 ,19.25021 
216 ,40.7158 ,1.10133 ,1.94479 ,19.08232 
217 ,40.8920 ,1.10314 ,1.95848 ,19.21663 
218 ,41.0681 ,1.10483 ,1.93111 ,18.94801 
219 ,41.2761 ,1.10690 ,1.90715 ,18.71296 
220 ,41.4682 ,1.10886 ,1.90031 ,18.64580 
221 ,41.6603 ,1.11072 ,1.87293 ,18.37717 
222 ,41.8523 ,1.11267 ,1.85582 ,18.20928 
223 ,42.0284 ,1.11448 ,1.86951 ,18.34360 
224 ,42.2041 ,1.11617 ,1.85240 ,18.17570 
225 ,42.3965 ,1.11805 ,1.80449 ,17.70561 
226 ,42.5726 ,1.11987 ,1.80106 ,17.67203 
227 ,42.7482 ,1.12166 ,1.79080 ,17.57129 
228 ,42.9249 ,1.12337 ,1.78053 ,17.47056 
229 ,43.1172 ,1.12528 ,1.77026 ,17.36983 
230 ,43.2927 ,1.12710 ,1.73604 ,17.03404 
231 ,43.4849 ,1.12898 ,1.74973 ,17.16836 
232 ,43.6770 ,1.13090 ,1.73262 ,17.00046 
233 ,43.8531 ,1.13274 ,1.71893 ,16.86615 
234 ,44.0288 ,1.13440 ,1.69155 ,16.59752 
235 ,44.2049 ,1.13619 ,1.68813 ,16.56395 
236 ,44.4129 ,1.13819 ,1.66418 ,16.32890 
237 ,44.6054 ,1.14010 ,1.66075 ,16.29532 
238 ,44.8132 ,1.14210 ,1.62311 ,15.92596 
239 ,44.9895 ,1.14405 ,1.62653 ,15.95954 
240 ,45.1656 ,1.14583 ,1.61284 ,15.82522 
241 ,45.3732 ,1.14778 ,1.58547 ,15.55660 
242 ,45.5499 ,1.14959 ,1.57178 ,15.42228 
243 ,45.7258 ,1.15138 ,1.56836 ,15.38871 
244 ,45.9181 ,1.15320 ,1.54098 ,15.12008 
245 ,46.0939 ,1.15511 ,1.54782 ,15.18724 
246 ,46.2701 ,1.15683 ,1.52387 ,14.95219 
247 ,46.4622 ,1.15883 ,1.49307 ,14.64998 
248 ,46.6222 ,1.16045 ,1.49307 ,14.64998 
249 ,46.8142 ,1.16224 ,1.46569 ,14.38136 
250 ,46.9903 ,1.16402 ,1.46911 ,14.41493 
251 ,47.1662 ,1.16577 ,1.45885 ,14.31420 
252 ,47.3426 ,1.16759 ,1.44858 ,14.21346 
253 ,47.5187 ,1.16934 ,1.42805 ,14.01199 
254 ,47.7265 ,1.17135 ,1.42462 ,13.97842 
255 ,47.9348 ,1.17341 ,1.39725 ,13.70979 
256 ,48.1269 ,1.17540 ,1.39040 ,13.64263 
257 ,48.3190 ,1.17725 ,1.36645 ,13.40759 
258 ,48.5271 ,1.17937 ,1.36303 ,13.37401 
259 ,48.7188 ,1.18123 ,1.33223 ,13.07180 
260 ,48.8951 ,1.18304 ,1.31512 ,12.90391 
261 ,49.0712 ,1.18480 ,1.31512 ,12.90391 
262 ,49.2634 ,1.18671 ,1.30485 ,12.80318 
263 ,49.4394 ,1.18856 ,1.28089 ,12.56813 
264 ,49.6152 ,1.19023 ,1.26378 ,12.40024 
265 ,49.7915 ,1.19202 ,1.25352 ,12.29950 
266 ,49.9675 ,1.19380 ,1.25009 ,12.26592 
267 ,50.1436 ,1.19552 ,1.25352 ,12.29950 
268 ,50.3197 ,1.19732 ,1.22614 ,12.03088 
269 ,50.5279 ,1.19941 ,1.21929 ,11.96372 
270 ,50.7199 ,1.20133 ,1.18507 ,11.62794 
271 ,50.9120 ,1.20317 ,1.18165 ,11.59436 
272 ,51.1360 ,1.20533 ,1.16796 ,11.46004 
273 ,51.3281 ,1.20735 ,1.15085 ,11.29215 
274 ,51.5040 ,1.20920 ,1.12690 ,11.05710 
275 ,51.6802 ,1.21092 ,1.12347 ,11.02353 
276 ,51.8561 ,1.21266 ,1.09267 ,10.72132 
277 ,52.0481 ,1.21458 ,1.10294 ,10.82206 
278 ,52.2242 ,1.21632 ,1.08583 ,10.65416 
279 ,52.4007 ,1.21811 ,1.06530 ,10.45270 
280 ,52.5933 ,1.22003 ,1.04819 ,10.28480 
281 ,52.7846 ,1.22190 ,1.03792 ,10.18407 
282 ,52.9606 ,1.22372 ,1.02423 ,10.04976 
283 ,53.1528 ,1.22559 ,1.00712 ,9.88186 
284 ,53.3289 ,1.22741 ,0.99343 ,9.74755 
285 ,53.5210 ,1.22926 ,0.96948 ,9.51250 
286 ,53.6970 ,1.23104 ,0.95921 ,9.41177 
287 ,53.8729 ,1.23283 ,0.95237 ,9.34461 
288 ,54.0488 ,1.23458 ,0.93868 ,9.21030 
289 ,54.2411 ,1.23646 ,0.92499 ,9.07598 
290 ,54.4332 ,1.23844 ,0.91130 ,8.94167 
291 ,54.6093 ,1.24022 ,0.90788 ,8.90809 
292 ,54.8174 ,1.24220 ,0.87708 ,8.60589 
293 ,55.0093 ,1.24424 ,0.88392 ,8.67305 
294 ,55.2015 ,1.24609 ,0.86339 ,8.47158 
295 ,55.3777 ,1.24789 ,0.83943 ,8.23653 
296 ,55.5538 ,1.24958 ,0.82575 ,8.10221 
297 ,55.7617 ,1.25166 ,0.81548 ,8.00148 
298 ,55.9380 ,1.25347 ,0.79495 ,7.80001 
299 ,56.1137 ,1.25519 ,0.80179 ,7.86717 
300 ,56.3060 ,1.25707 ,0.78810 ,7.73285 
301 ,56.4983 ,1.25911 ,0.77784 ,7.63212 
302 ,56.6903 ,1.26098 ,0.75730 ,7.43065 
303 ,56.8663 ,1.26274 ,0.75046 ,7.36349 
304 ,57.0580 ,1.26469 ,0.71966 ,7.06129 
305 ,57.2343 ,1.26643 ,0.70597 ,6.92697 
306 ,57.4265 ,1.26823 ,0.69228 ,6.79266 
307 ,57.6345 ,1.27036 ,0.67175 ,6.59119 
308 ,57.8428 ,1.27243 ,0.66148 ,6.49046 
309 ,58.0188 ,1.27425 ,0.66490 ,6.52403 
310 ,58.1946 ,1.27603 ,0.64437 ,6.32256 
311 ,58.3704 ,1.27782 ,0.64095 ,6.28899 
312 ,58.5305 ,1.27950 ,0.63068 ,6.18825 
313 ,58.7069 ,1.28113 ,0.61699 ,6.05394 
314 ,58.8993 ,1.28294 ,0.60330 ,5.91962 
315 ,59.0913 ,1.28488 ,0.57935 ,5.68458 
316 ,59.3154 ,1.28718 ,0.55882 ,5.48311 
317 ,59.4915 ,1.28905 ,0.56566 ,5.55026 
318 ,59.6675 ,1.29077 ,0.54855 ,5.38237 
319 ,59.8595 ,1.29262 ,0.52802 ,5.18090 
320 ,60.0677 ,1.29469 ,0.51433 ,5.04659 
321 ,60.2438 ,1.29653 ,0.50748 ,4.97943 
322 ,60.4197 ,1.29832 ,0.48353 ,4.74438 
323 ,60.6278 ,1.30026 ,0.46642 ,4.57649 
324 ,60.8360 ,1.30236 ,0.44588 ,4.37502 
325 ,61.0121 ,1.30416 ,0.44931 ,4.40860 
326 ,61.2039 ,1.30601 ,0.43904 ,4.30787 
327 ,61.3803 ,1.30788 ,0.40824 ,4.00566 
328 ,61.5719 ,1.30977 ,0.41509 ,4.07282 
329 ,61.7644 ,1.31165 ,0.39113 ,3.83777 
330 ,61.9564 ,1.31355 ,0.36375 ,3.56914 
331 ,62.1644 ,1.31562 ,0.35691 ,3.50199 
332 ,62.3406 ,1.31746 ,0.35691 ,3.50199 
333 ,62.5327 ,1.31944 ,0.35006 ,3.43483 
334 ,62.7083 ,1.32114 ,0.33638 ,3.30052 
335 ,62.9011 ,1.32297 ,0.32611 ,3.19978 
336 ,63.0930 ,1.32496 ,0.30215 ,2.96473 
337 ,63.2691 ,1.32677 ,0.29189 ,2.86400 
338 ,63.4452 ,1.32850 ,0.27478 ,2.69611 
339 ,63.6373 ,1.33046 ,0.24055 ,2.36032 
340 ,63.8292 ,1.33238 ,0.27135 ,2.66253 
341 ,64.0371 ,1.33435 ,0.23371 ,2.29317 
342 ,64.2134 ,1.33617 ,0.22002 ,2.15885 
343 ,64.4055 ,1.33812 ,0.20976 ,2.05812 
344 ,64.5974 ,1.34006 ,0.17553 ,1.72234 
345 ,64.7894 ,1.34190 ,0.18922 ,1.85665 
346 ,64.9816 ,1.34385 ,0.16527 ,1.62160 
347 ,65.3175 ,1.34643 ,0.14816 ,1.45371 
348 ,65.5100 ,1.34901 ,0.12762 ,1.25224 
349 ,65.7181 ,1.35113 ,0.10709 ,1.05077 
350 ,65.9095 ,1.35312 ,0.11736 ,1.15151 
351 ,66.0861 ,1.35491 ,0.09340 ,0.91646 
352 ,66.2622 ,1.35662 ,0.08314 ,0.81572 
353 ,66.4382 ,1.35841 ,0.06602 ,0.64783 
354 ,66.6305 ,1.36022 ,0.05234 ,0.51352 
355 ,66.8226 ,1.36222 ,0.03180 ,0.31205 
356 ,66.9981 ,1.36408 ,0.01811 ,0.17773 
357 ,67.1746 ,1.36574 ,0.00785 ,0.07700 
358 ,67.3507 ,1.36758 ,0.00443 ,0.04342 
359 ,67.5589 ,1.36955 ,-0.01953 ,-0.19163 
360 ,67.7348 ,1.37144 ,-0.00242 ,-0.02373 
361 ,67.9271 ,1.37334 ,-0.02295 ,-0.22520 
362 ,68.1186 ,1.37523 ,-0.05033 ,-0.49383 
363 ,68.3273 ,1.37729 ,-0.04691 ,-0.46025 
364 ,68.5190 ,1.37920 ,-0.06060 ,-0.59457 
365 ,68.7113 ,1.38114 ,-0.07086 ,-0.69530 
366 ,68.8876 ,1.38293 ,-0.07428 ,-0.72888 
367 ,69.0790 ,1.38479 ,-0.11877 ,-1.16540 
368 ,69.2874 ,1.38673 ,-0.11193 ,-1.09824 
369 ,69.4953 ,1.38892 ,-0.12562 ,-1.23255 
370 ,69.6874 ,1.39079 ,-0.13931 ,-1.36687 
371 ,69.8798 ,1.39284 ,-0.14273 ,-1.40045 
372 ,70.0716 ,1.39475 ,-0.15642 ,-1.53476 
373 ,70.2317 ,1.39647 ,-0.15642 ,-1.53476 
374 ,70.4079 ,1.39813 ,-0.17695 ,-1.73623 
375 ,70.5840 ,1.39994 ,-0.19748 ,-1.93770 
376 ,70.7600 ,1.40166 ,-0.20433 ,-2.00485 
377 ,70.9361 ,1.40341 ,-0.22828 ,-2.23990 
378 ,71.1123 ,1.40514 ,-0.22144 ,-2.17275 
379 ,71.3203 ,1.40718 ,-0.24881 ,-2.44137 
380 ,71.5124 ,1.40914 ,-0.24539 ,-2.40779 
381 ,71.7045 ,1.41102 ,-0.26593 ,-2.60926 
382 ,71.8967 ,1.41304 ,-0.27277 ,-2.67642 
383 ,72.0727 ,1.41484 ,-0.26593 ,-2.60926 
384 ,72.2488 ,1.41648 ,-0.27277 ,-2.67642 
385 ,72.4409 ,1.41836 ,-0.29673 ,-2.91147 
386 ,72.6328 ,1.42032 ,-0.31384 ,-3.07936 
387 ,72.8410 ,1.42227 ,-0.32410 ,-3.18010 
388 ,73.0330 ,1.42431 ,-0.32752 ,-3.21367 
389 ,73.2250 ,1.42620 ,-0.32410 ,-3.18010 
390 ,73.4007 ,1.42800 ,-0.34806 ,-3.41514 
391 ,73.5935 ,1.42986 ,-0.35490 ,-3.48230 
392 ,73.7852 ,1.43186 ,-0.35148 ,-3.44872 
393 ,73.9774 ,1.43371 ,-0.38228 ,-3.75093 
394 ,74.1532 ,1.43556 ,-0.40623 ,-3.98597 
395 ,74.3453 ,1.43751 ,-0.39255 ,-3.85166 
396 ,74.5216 ,1.43934 ,-0.42677 ,-4.18744 
397 ,74.7298 ,1.44117 ,-0.42335 ,-4.15387 
398 ,74.9219 ,1.44314 ,-0.43703 ,-4.28818 
399 ,75.1141 ,1.44509 ,-0.45072 ,-4.42249 
400 ,75.3220 ,1.44709 ,-0.45414 ,-4.45607 
401 ,75.4978 ,1.44894 ,-0.48494 ,-4.75828 
402 ,75.6902 ,1.45081 ,-0.48494 ,-4.75828 
403 ,75.8983 ,1.45291 ,-0.50548 ,-4.95975 
404 ,76.0743 ,1.45477 ,-0.52259 ,-5.12764 
405 ,76.2663 ,1.45661 ,-0.50206 ,-4.92617 
406 ,76.4584 ,1.45849 ,-0.52943 ,-5.19479 
407 ,76.6505 ,1.46044 ,-0.54312 ,-5.32911 
408 ,76.8426 ,1.46244 ,-0.54312 ,-5.32911 
409 ,77.0182 ,1.46417 ,-0.56365 ,-5.53058 
410 ,77.1948 ,1.46601 ,-0.56365 ,-5.53058 
411 ,77.3708 ,1.46770 ,-0.58761 ,-5.76562 
412 ,77.5629 ,1.46957 ,-0.59103 ,-5.79920 
413 ,77.7548 ,1.47148 ,-0.61156 ,-6.00067 
414 ,77.9470 ,1.47341 ,-0.60130 ,-5.89994 
415 ,78.1391 ,1.47531 ,-0.62525 ,-6.13499 
416 ,78.3313 ,1.47728 ,-0.63210 ,-6.20214 
417 ,78.5391 ,1.47932 ,-0.65263 ,-6.40361 
418 ,78.7151 ,1.48112 ,-0.66974 ,-6.57150 
419 ,78.9074 ,1.48302 ,-0.66632 ,-6.53793 
420 ,79.1155 ,1.48510 ,-0.69370 ,-6.80655 
421 ,79.3235 ,1.48709 ,-0.68685 ,-6.73940 
422 ,79.4998 ,1.48898 ,-0.70739 ,-6.94086 
423 ,79.6918 ,1.49096 ,-0.72107 ,-7.07518 
424 ,79.8518 ,1.49261 ,-0.71423 ,-7.00802 
425 ,80.0279 ,1.49429 ,-0.73818 ,-7.24307 
426 ,80.2040 ,1.49604 ,-0.74503 ,-7.31023 
427 ,80.3802 ,1.49778 ,-0.75872 ,-7.44454 
428 ,80.5721 ,1.49965 ,-0.76556 ,-7.51170 
429 ,80.7480 ,1.50150 ,-0.77241 ,-7.57885 
430 ,80.9078 ,1.50318 ,-0.76898 ,-7.54527 
431 ,81.1004 ,1.50487 ,-0.78610 ,-7.71317 
432 ,81.2926 ,1.50692 ,-0.81005 ,-7.94821 
433 ,81.4683 ,1.50872 ,-0.81347 ,-7.98179 
434 ,81.6603 ,1.51054 ,-0.82716 ,-8.11611 
435 ,81.8368 ,1.51232 ,-0.84769 ,-8.31758 
436 ,82.0287 ,1.51425 ,-0.84769 ,-8.31758 
437 ,82.2048 ,1.51602 ,-0.86138 ,-8.45189 
438 ,82.3968 ,1.51786 ,-0.87849 ,-8.61978 
439 ,82.5730 ,1.51971 ,-0.87849 ,-8.61978 
440 ,82.7490 ,1.52143 ,-0.88534 ,-8.68694 
441 ,82.9251 ,1.52323 ,-0.87849 ,-8.61978 
442 ,83.1168 ,1.52508 ,-0.89560 ,-8.78767 
443 ,83.3093 ,1.52698 ,-0.89903 ,-8.82125 
444 ,83.5173 ,1.52908 ,-0.92983 ,-9.12345 
445 ,83.7094 ,1.53105 ,-0.90929 ,-8.92198 
446 ,83.8853 ,1.53285 ,-0.92298 ,-9.05630 
447 ,84.0932 ,1.53476 ,-0.94351 ,-9.25777 
448 ,84.2856 ,1.53673 ,-0.95036 ,-9.32492 
449 ,84.4934 ,1.53886 ,-0.96747 ,-9.49282 
450 ,84.6698 ,1.54069 ,-0.97774 ,-9.59355 
451 ,84.8619 ,1.54258 ,-0.96747 ,-9.49282 
452 ,85.0700 ,1.54451 ,-0.98116 ,-9.62713 
453 ,85.2620 ,1.54651 ,-1.00169 ,-9.82860 
454 ,85.4382 ,1.54838 ,-1.01196 ,-9.92933 
455 ,85.6300 ,1.55026 ,-1.01196 ,-9.92933 
456 ,85.8382 ,1.55227 ,-1.03591 ,-10.16438 
457 ,86.0142 ,1.55408 ,-1.04276 ,-10.23154 
458 ,86.1901 ,1.55591 ,-1.05302 ,-10.33227 
459 ,86.3985 ,1.55778 ,-1.04960 ,-10.29869 
460 ,86.6066 ,1.55995 ,-1.07014 ,-10.50016 
461 ,86.7988 ,1.56199 ,-1.07356 ,-10.53374 
462 ,86.9909 ,1.56381 ,-1.09409 ,-10.73521 
