Data stamp = , 22-04-2022 12:30:41 110

Calibration Values: 
Slope = , 26.54 , g/V 
Offset Voltage at no contact = , -0.501760 , V 

No , Time , Stage Position ,   Mass , Force 
   ,  (s) ,      (mm)      ,   (g)  , (mN)  

1 ,0.0000 ,0.69945 ,5.40803 ,53.06356 
2 ,0.2051 ,0.69952 ,5.39776 ,52.96282 
3 ,0.7008 ,0.70111 ,5.41145 ,53.09714 
4 ,0.8929 ,0.70315 ,5.40118 ,52.99640 
5 ,1.0853 ,0.70501 ,5.40460 ,53.02998 
6 ,1.2937 ,0.70709 ,5.40460 ,53.02998 
7 ,1.4696 ,0.70890 ,5.39434 ,52.92925 
8 ,1.6617 ,0.71073 ,5.40803 ,53.06356 
9 ,1.8379 ,0.71261 ,5.38749 ,52.86209 
10 ,2.0299 ,0.71451 ,5.34985 ,52.49273 
11 ,2.2221 ,0.71642 ,5.34643 ,52.45915 
12 ,2.4460 ,0.71860 ,5.31221 ,52.12337 
13 ,2.6538 ,0.72064 ,5.30878 ,52.08979 
14 ,2.8299 ,0.72248 ,5.27456 ,51.75401 
15 ,2.9897 ,0.72420 ,5.24718 ,51.48538 
16 ,3.1818 ,0.72596 ,5.24034 ,51.41822 
17 ,3.3742 ,0.72786 ,5.23350 ,51.35107 
18 ,3.5661 ,0.72989 ,5.19927 ,51.01528 
19 ,3.7587 ,0.73177 ,5.19927 ,51.01528 
20 ,3.9668 ,0.73376 ,5.15821 ,50.61234 
21 ,4.1424 ,0.73569 ,5.17874 ,50.81381 
22 ,4.3188 ,0.73739 ,5.14452 ,50.47803 
23 ,4.4951 ,0.73913 ,5.13083 ,50.34372 
24 ,4.6870 ,0.74099 ,5.10345 ,50.07509 
25 ,4.8791 ,0.74289 ,5.09319 ,49.97436 
26 ,5.0710 ,0.74483 ,5.05897 ,49.63857 
27 ,5.2308 ,0.74657 ,5.04185 ,49.47068 
28 ,5.4233 ,0.74840 ,5.02474 ,49.30279 
29 ,5.6312 ,0.75042 ,4.99394 ,49.00058 
30 ,5.8235 ,0.75245 ,5.00079 ,49.06774 
31 ,6.0156 ,0.75436 ,4.97683 ,48.83269 
32 ,6.2075 ,0.75630 ,4.94603 ,48.53049 
33 ,6.3998 ,0.75819 ,4.95288 ,48.59764 
34 ,6.6080 ,0.76019 ,4.90497 ,48.12755 
35 ,6.8159 ,0.76223 ,4.89128 ,47.99324 
36 ,7.0081 ,0.76428 ,4.86732 ,47.75819 
37 ,7.2003 ,0.76622 ,4.86390 ,47.72461 
38 ,7.3921 ,0.76804 ,4.84337 ,47.52314 
39 ,7.6002 ,0.77014 ,4.83652 ,47.45598 
40 ,7.7760 ,0.77195 ,4.82626 ,47.35525 
41 ,7.9682 ,0.77387 ,4.78177 ,46.91873 
42 ,8.1444 ,0.77561 ,4.76124 ,46.71726 
43 ,8.3203 ,0.77743 ,4.76124 ,46.71726 
44 ,8.4806 ,0.77908 ,4.76124 ,46.71726 
45 ,8.6727 ,0.78084 ,4.72702 ,46.38148 
46 ,8.8646 ,0.78275 ,4.72702 ,46.38148 
47 ,9.0564 ,0.78465 ,4.70648 ,46.18001 
48 ,9.2489 ,0.78653 ,4.66884 ,45.81065 
49 ,9.4408 ,0.78858 ,4.67568 ,45.87780 
50 ,9.6335 ,0.79045 ,4.63804 ,45.50844 
51 ,9.8411 ,0.79250 ,4.64488 ,45.57560 
52 ,10.0332 ,0.79446 ,4.62093 ,45.34055 
53 ,10.2092 ,0.79634 ,4.59697 ,45.10550 
54 ,10.3851 ,0.79801 ,4.56960 ,44.83688 
55 ,10.5611 ,0.79978 ,4.57302 ,44.87045 
56 ,10.7376 ,0.80155 ,4.55591 ,44.70256 
57 ,10.9295 ,0.80349 ,4.53880 ,44.53467 
58 ,11.1055 ,0.80526 ,4.50457 ,44.19889 
59 ,11.2817 ,0.80699 ,4.50457 ,44.19889 
60 ,11.4577 ,0.80871 ,4.49431 ,44.09815 
61 ,11.6495 ,0.81061 ,4.45666 ,43.72879 
62 ,11.8260 ,0.81244 ,4.43955 ,43.56090 
63 ,12.0341 ,0.81445 ,4.43271 ,43.49374 
64 ,12.2260 ,0.81635 ,4.42929 ,43.46016 
65 ,12.4182 ,0.81829 ,4.42244 ,43.39301 
66 ,12.6103 ,0.82020 ,4.37111 ,42.88933 
67 ,12.7863 ,0.82197 ,4.36084 ,42.78860 
68 ,12.9621 ,0.82387 ,4.36427 ,42.82218 
69 ,13.1543 ,0.82568 ,4.34031 ,42.58713 
70 ,13.3463 ,0.82763 ,4.31636 ,42.35208 
71 ,13.5387 ,0.82947 ,4.30609 ,42.25135 
72 ,13.7305 ,0.83146 ,4.28898 ,42.08345 
73 ,13.9228 ,0.83328 ,4.28556 ,42.04988 
74 ,14.1305 ,0.83544 ,4.25133 ,41.71409 
75 ,14.2910 ,0.83716 ,4.23765 ,41.57978 
76 ,14.4670 ,0.83878 ,4.22053 ,41.41189 
77 ,14.6433 ,0.84060 ,4.20685 ,41.27758 
78 ,14.8348 ,0.84248 ,4.19658 ,41.17684 
79 ,15.0114 ,0.84426 ,4.17947 ,41.00895 
80 ,15.2032 ,0.84626 ,4.16236 ,40.84106 
81 ,15.3954 ,0.84799 ,4.15551 ,40.77390 
82 ,15.5874 ,0.84999 ,4.11787 ,40.40454 
83 ,15.7635 ,0.85185 ,4.12471 ,40.47170 
84 ,15.9552 ,0.85360 ,4.11103 ,40.33738 
85 ,16.1317 ,0.85548 ,4.07680 ,40.00160 
86 ,16.3238 ,0.85738 ,4.05627 ,39.80013 
87 ,16.4998 ,0.85914 ,4.05969 ,39.83371 
88 ,16.6759 ,0.86089 ,4.04943 ,39.73297 
89 ,16.8679 ,0.86273 ,4.01520 ,39.39719 
90 ,17.0436 ,0.86453 ,4.00494 ,39.29646 
91 ,17.2200 ,0.86634 ,3.99125 ,39.16214 
92 ,17.4440 ,0.86854 ,3.96729 ,38.92709 
93 ,17.6524 ,0.87060 ,3.95018 ,38.75920 
94 ,17.8444 ,0.87254 ,3.93650 ,38.62489 
95 ,18.0526 ,0.87464 ,3.90912 ,38.35626 
96 ,18.2606 ,0.87660 ,3.89885 ,38.25553 
97 ,18.4525 ,0.87866 ,3.88516 ,38.12122 
98 ,18.6288 ,0.88047 ,3.85779 ,37.85259 
99 ,18.8043 ,0.88221 ,3.86463 ,37.91975 
100 ,18.9805 ,0.88392 ,3.85094 ,37.78543 
101 ,19.1404 ,0.88568 ,3.83383 ,37.61754 
102 ,19.3326 ,0.88740 ,3.80645 ,37.34891 
103 ,19.5091 ,0.88924 ,3.79276 ,37.21460 
104 ,19.7014 ,0.89116 ,3.78592 ,37.14744 
105 ,19.8933 ,0.89300 ,3.75512 ,36.84524 
106 ,20.0853 ,0.89488 ,3.76539 ,36.94597 
107 ,20.2930 ,0.89688 ,3.74485 ,36.74450 
108 ,20.4695 ,0.89885 ,3.70379 ,36.34157 
109 ,20.6774 ,0.90080 ,3.69694 ,36.27441 
110 ,20.8537 ,0.90269 ,3.68668 ,36.17367 
111 ,21.0455 ,0.90453 ,3.66957 ,36.00578 
112 ,21.2379 ,0.90647 ,3.65930 ,35.90505 
113 ,21.4299 ,0.90836 ,3.62508 ,35.56926 
114 ,21.6221 ,0.91027 ,3.62508 ,35.56926 
115 ,21.8140 ,0.91221 ,3.59770 ,35.30064 
116 ,21.9901 ,0.91400 ,3.58059 ,35.13275 
117 ,22.1663 ,0.91575 ,3.56690 ,34.99843 
118 ,22.3740 ,0.91779 ,3.54637 ,34.79696 
119 ,22.5824 ,0.91975 ,3.52926 ,34.62907 
120 ,22.7585 ,0.92169 ,3.53610 ,34.69623 
121 ,22.9346 ,0.92348 ,3.51557 ,34.49476 
122 ,23.1267 ,0.92536 ,3.48819 ,34.22613 
123 ,23.3187 ,0.92730 ,3.48135 ,34.15898 
124 ,23.5107 ,0.92924 ,3.45397 ,33.89035 
125 ,23.6869 ,0.93094 ,3.42317 ,33.58814 
126 ,23.8628 ,0.93282 ,3.43686 ,33.72246 
127 ,24.0391 ,0.93453 ,3.41633 ,33.52099 
128 ,24.2471 ,0.93648 ,3.39237 ,33.28594 
129 ,24.4231 ,0.93840 ,3.38895 ,33.25236 
130 ,24.5991 ,0.94011 ,3.38210 ,33.18520 
131 ,24.7753 ,0.94181 ,3.34104 ,32.78227 
132 ,24.9516 ,0.94362 ,3.34446 ,32.81584 
133 ,25.1275 ,0.94544 ,3.31708 ,32.54722 
134 ,25.3192 ,0.94729 ,3.30682 ,32.44648 
135 ,25.4955 ,0.94903 ,3.29997 ,32.37933 
136 ,25.6716 ,0.95082 ,3.27259 ,32.11070 
137 ,25.8478 ,0.95259 ,3.24522 ,31.84207 
138 ,26.0238 ,0.95433 ,3.24522 ,31.84207 
139 ,26.2479 ,0.95651 ,3.20757 ,31.47271 
140 ,26.4717 ,0.95878 ,3.20073 ,31.40555 
141 ,26.6797 ,0.96075 ,3.19731 ,31.37198 
142 ,26.8558 ,0.96270 ,3.18362 ,31.23766 
143 ,27.0642 ,0.96464 ,3.15966 ,31.00262 
144 ,27.2884 ,0.96678 ,3.14940 ,30.90188 
145 ,27.4644 ,0.96876 ,3.11860 ,30.59968 
146 ,27.6402 ,0.97053 ,3.12544 ,30.66683 
147 ,27.8321 ,0.97253 ,3.08438 ,30.26389 
148 ,28.0084 ,0.97417 ,3.07411 ,30.16316 
149 ,28.1847 ,0.97598 ,3.06726 ,30.09600 
150 ,28.3607 ,0.97770 ,3.06042 ,30.02884 
151 ,28.5689 ,0.97964 ,3.03647 ,29.79380 
152 ,28.7765 ,0.98175 ,3.01251 ,29.55875 
153 ,28.9530 ,0.98362 ,3.01251 ,29.55875 
154 ,29.1610 ,0.98567 ,2.99540 ,29.39086 
155 ,29.3531 ,0.98763 ,2.98171 ,29.25654 
156 ,29.5292 ,0.98943 ,2.95091 ,28.95434 
157 ,29.7373 ,0.99143 ,2.94407 ,28.88718 
158 ,29.9293 ,0.99332 ,2.91327 ,28.58498 
159 ,30.1054 ,0.99509 ,2.90642 ,28.51782 
160 ,30.2816 ,0.99691 ,2.89273 ,28.38351 
161 ,30.4736 ,0.99875 ,2.86878 ,28.14846 
162 ,30.6656 ,1.00064 ,2.86536 ,28.11488 
163 ,30.8413 ,1.00251 ,2.84482 ,27.91341 
164 ,31.0018 ,1.00420 ,2.83798 ,27.84625 
165 ,31.1618 ,1.00582 ,2.83114 ,27.77910 
166 ,31.3379 ,1.00748 ,2.81745 ,27.64479 
167 ,31.5140 ,1.00920 ,2.79349 ,27.40974 
168 ,31.6901 ,1.01096 ,2.74900 ,26.97322 
169 ,31.8820 ,1.01286 ,2.77638 ,27.24185 
170 ,32.0581 ,1.01471 ,2.75585 ,27.04038 
171 ,32.2339 ,1.01641 ,2.71820 ,26.67101 
172 ,32.4104 ,1.01818 ,2.70452 ,26.53670 
173 ,32.6184 ,1.02016 ,2.69425 ,26.43597 
174 ,32.8106 ,1.02215 ,2.67372 ,26.23450 
175 ,33.0026 ,1.02409 ,2.65660 ,26.06661 
176 ,33.1947 ,1.02602 ,2.65660 ,26.06661 
177 ,33.4187 ,1.02812 ,2.62238 ,25.73082 
178 ,33.5946 ,1.03010 ,2.60869 ,25.59651 
179 ,33.7709 ,1.03180 ,2.59501 ,25.46220 
180 ,33.9471 ,1.03361 ,2.57789 ,25.29430 
181 ,34.1548 ,1.03554 ,2.58132 ,25.32788 
182 ,34.3472 ,1.03752 ,2.54367 ,24.95852 
183 ,34.5393 ,1.03950 ,2.55394 ,25.05926 
184 ,34.7313 ,1.04132 ,2.50603 ,24.58916 
185 ,34.9075 ,1.04316 ,2.49576 ,24.48842 
186 ,35.0835 ,1.04488 ,2.49234 ,24.45485 
187 ,35.2754 ,1.04676 ,2.47181 ,24.25338 
188 ,35.4677 ,1.04864 ,2.45127 ,24.05191 
189 ,35.6597 ,1.05072 ,2.44785 ,24.01833 
190 ,35.8357 ,1.05240 ,2.42390 ,23.78328 
191 ,36.0120 ,1.05416 ,2.40679 ,23.61539 
192 ,36.2200 ,1.05619 ,2.39994 ,23.54823 
193 ,36.4121 ,1.05813 ,2.37599 ,23.31318 
194 ,36.6041 ,1.06007 ,2.36572 ,23.21245 
195 ,36.7960 ,1.06195 ,2.34861 ,23.04456 
196 ,37.0043 ,1.06406 ,2.33834 ,22.94382 
197 ,37.1804 ,1.06588 ,2.33150 ,22.87667 
198 ,37.3720 ,1.06769 ,2.29385 ,22.50731 
199 ,37.5805 ,1.06970 ,2.28701 ,22.44015 
200 ,37.7726 ,1.07174 ,2.25279 ,22.10437 
201 ,37.9647 ,1.07365 ,2.26306 ,22.20510 
202 ,38.1568 ,1.07557 ,2.23226 ,21.90290 
203 ,38.3327 ,1.07745 ,2.20488 ,21.63427 
204 ,38.5087 ,1.07913 ,2.18092 ,21.39922 
205 ,38.6850 ,1.08091 ,2.19803 ,21.56711 
206 ,38.8770 ,1.08280 ,2.16039 ,21.19775 
207 ,39.0691 ,1.08474 ,2.14670 ,21.06344 
208 ,39.2612 ,1.08661 ,2.15355 ,21.13059 
209 ,39.4532 ,1.08855 ,2.12275 ,20.82839 
210 ,39.6451 ,1.09057 ,2.11590 ,20.76123 
211 ,39.8533 ,1.09253 ,2.09195 ,20.52619 
212 ,40.0453 ,1.09442 ,2.06457 ,20.25756 
213 ,40.2534 ,1.09656 ,2.05430 ,20.15682 
214 ,40.4455 ,1.09843 ,2.05088 ,20.12325 
215 ,40.6214 ,1.10024 ,2.06115 ,20.22398 
216 ,40.7978 ,1.10201 ,2.02350 ,19.85462 
217 ,40.9898 ,1.10389 ,1.99955 ,19.61957 
218 ,41.1819 ,1.10572 ,1.98244 ,19.45168 
219 ,41.3579 ,1.10766 ,1.96533 ,19.28379 
220 ,41.5501 ,1.10952 ,1.95506 ,19.18305 
221 ,41.7582 ,1.11162 ,1.94479 ,19.08232 
222 ,41.9500 ,1.11353 ,1.91742 ,18.81369 
223 ,42.1263 ,1.11531 ,1.90715 ,18.71296 
224 ,42.3185 ,1.11723 ,1.90715 ,18.71296 
225 ,42.4944 ,1.11899 ,1.87635 ,18.41075 
226 ,42.6701 ,1.12073 ,1.86266 ,18.27644 
227 ,42.8466 ,1.12252 ,1.84213 ,18.07497 
228 ,43.0544 ,1.12453 ,1.83871 ,18.04139 
229 ,43.2627 ,1.12653 ,1.83871 ,18.04139 
230 ,43.4544 ,1.12851 ,1.79764 ,17.63845 
231 ,43.6308 ,1.13038 ,1.78053 ,17.47056 
232 ,43.8065 ,1.13210 ,1.78737 ,17.53772 
233 ,43.9830 ,1.13385 ,1.77711 ,17.43698 
234 ,44.1590 ,1.13563 ,1.77369 ,17.40340 
235 ,44.3351 ,1.13739 ,1.73262 ,17.00046 
236 ,44.5273 ,1.13931 ,1.72920 ,16.96689 
237 ,44.7194 ,1.14125 ,1.72235 ,16.89973 
238 ,44.8951 ,1.14306 ,1.69840 ,16.66468 
239 ,45.0715 ,1.14472 ,1.67786 ,16.46321 
240 ,45.2796 ,1.14670 ,1.67786 ,16.46321 
241 ,45.4715 ,1.14873 ,1.64022 ,16.09385 
242 ,45.6477 ,1.15054 ,1.61627 ,15.85880 
243 ,45.8399 ,1.15234 ,1.61969 ,15.89238 
244 ,46.0319 ,1.15434 ,1.58889 ,15.59018 
245 ,46.2400 ,1.15637 ,1.59231 ,15.62375 
246 ,46.4320 ,1.15835 ,1.56493 ,15.35513 
247 ,46.6241 ,1.16024 ,1.57862 ,15.48944 
248 ,46.8002 ,1.16205 ,1.55809 ,15.28797 
249 ,46.9918 ,1.16392 ,1.52729 ,14.98577 
250 ,47.1684 ,1.16574 ,1.50676 ,14.78430 
251 ,47.3764 ,1.16772 ,1.49307 ,14.64998 
252 ,47.5685 ,1.16975 ,1.48280 ,14.54925 
253 ,47.7607 ,1.17167 ,1.48622 ,14.58283 
254 ,47.9526 ,1.17348 ,1.44174 ,14.14631 
255 ,48.1287 ,1.17530 ,1.42462 ,13.97842 
256 ,48.3047 ,1.17708 ,1.44174 ,14.14631 
257 ,48.4808 ,1.17880 ,1.41778 ,13.91126 
258 ,48.6890 ,1.18081 ,1.39383 ,13.67621 
259 ,48.8811 ,1.18279 ,1.40067 ,13.74337 
260 ,49.0731 ,1.18469 ,1.36303 ,13.37401 
261 ,49.2491 ,1.18654 ,1.35618 ,13.30685 
262 ,49.4413 ,1.18842 ,1.34934 ,13.23969 
263 ,49.6329 ,1.19025 ,1.32196 ,12.97107 
264 ,49.7930 ,1.19208 ,1.30827 ,12.83675 
265 ,49.9694 ,1.19377 ,1.31169 ,12.87033 
266 ,50.1456 ,1.19547 ,1.29458 ,12.70244 
267 ,50.3376 ,1.19735 ,1.29458 ,12.70244 
268 ,50.5297 ,1.19928 ,1.26378 ,12.40024 
269 ,50.7218 ,1.20126 ,1.27063 ,12.46739 
270 ,50.8979 ,1.20301 ,1.24667 ,12.23235 
271 ,51.0900 ,1.20483 ,1.21929 ,11.96372 
272 ,51.2976 ,1.20697 ,1.20218 ,11.79583 
273 ,51.4901 ,1.20882 ,1.19192 ,11.69509 
274 ,51.6823 ,1.21076 ,1.19192 ,11.69509 
275 ,51.8903 ,1.21277 ,1.15427 ,11.32573 
276 ,52.0824 ,1.21477 ,1.15427 ,11.32573 
277 ,52.2584 ,1.21659 ,1.13032 ,11.09068 
278 ,52.4341 ,1.21836 ,1.12005 ,10.98995 
279 ,52.6102 ,1.22012 ,1.09952 ,10.78848 
280 ,52.7867 ,1.22183 ,1.09267 ,10.72132 
281 ,52.9788 ,1.22376 ,1.09267 ,10.72132 
282 ,53.1543 ,1.22557 ,1.05845 ,10.38554 
283 ,53.3308 ,1.22729 ,1.04134 ,10.21765 
284 ,53.5070 ,1.22905 ,1.03450 ,10.15049 
285 ,53.6991 ,1.23099 ,1.03792 ,10.18407 
286 ,53.9071 ,1.23299 ,1.00370 ,9.84829 
287 ,54.0992 ,1.23494 ,1.00370 ,9.84829 
288 ,54.3072 ,1.23703 ,0.98659 ,9.68039 
289 ,54.4832 ,1.23882 ,0.96948 ,9.51250 
290 ,54.6752 ,1.24070 ,0.94552 ,9.27745 
291 ,54.8835 ,1.24277 ,0.94894 ,9.31103 
292 ,55.0594 ,1.24459 ,0.93525 ,9.17672 
293 ,55.2516 ,1.24653 ,0.90788 ,8.90809 
294 ,55.4276 ,1.24829 ,0.88392 ,8.67305 
295 ,55.6194 ,1.25017 ,0.89761 ,8.80736 
296 ,55.8119 ,1.25204 ,0.86339 ,8.47158 
297 ,56.0036 ,1.25408 ,0.86339 ,8.47158 
298 ,56.1799 ,1.25580 ,0.84628 ,8.30368 
299 ,56.3721 ,1.25771 ,0.83259 ,8.16937 
300 ,56.5480 ,1.25947 ,0.79837 ,7.83359 
301 ,56.7403 ,1.26144 ,0.80179 ,7.86717 
302 ,56.9164 ,1.26318 ,0.80521 ,7.90074 
303 ,57.0926 ,1.26491 ,0.77441 ,7.59854 
304 ,57.2843 ,1.26675 ,0.77784 ,7.63212 
305 ,57.4606 ,1.26858 ,0.75730 ,7.43065 
306 ,57.6527 ,1.27043 ,0.72308 ,7.09486 
307 ,57.8288 ,1.27226 ,0.71624 ,7.02771 
308 ,58.0050 ,1.27411 ,0.71966 ,7.06129 
309 ,58.1810 ,1.27578 ,0.70255 ,6.89340 
310 ,58.3887 ,1.27774 ,0.65806 ,6.45688 
311 ,58.5651 ,1.27960 ,0.66148 ,6.49046 
312 ,58.7412 ,1.28140 ,0.66833 ,6.55761 
313 ,58.9493 ,1.28339 ,0.63753 ,6.25541 
314 ,59.1574 ,1.28551 ,0.63068 ,6.18825 
315 ,59.3494 ,1.28743 ,0.61357 ,6.02036 
316 ,59.5253 ,1.28921 ,0.60330 ,5.91962 
317 ,59.7496 ,1.29131 ,0.58619 ,5.75173 
318 ,59.9416 ,1.29329 ,0.59304 ,5.81889 
319 ,60.1177 ,1.29516 ,0.57593 ,5.65100 
320 ,60.2939 ,1.29688 ,0.55882 ,5.48311 
321 ,60.4858 ,1.29881 ,0.54171 ,5.31522 
322 ,60.6779 ,1.30072 ,0.54171 ,5.31522 
323 ,60.8540 ,1.30250 ,0.53486 ,5.24806 
324 ,61.0616 ,1.30450 ,0.50748 ,4.97943 
325 ,61.2537 ,1.30642 ,0.50406 ,4.94585 
326 ,61.4300 ,1.30830 ,0.48011 ,4.71081 
327 ,61.6385 ,1.31034 ,0.48011 ,4.71081 
328 ,61.8304 ,1.31228 ,0.44931 ,4.40860 
329 ,62.0062 ,1.31399 ,0.43562 ,4.27429 
330 ,62.1826 ,1.31581 ,0.42193 ,4.13997 
331 ,62.3743 ,1.31775 ,0.39797 ,3.90493 
332 ,62.5507 ,1.31947 ,0.40140 ,3.93850 
333 ,62.7426 ,1.32127 ,0.38086 ,3.73703 
334 ,62.9509 ,1.32346 ,0.37402 ,3.66988 
335 ,63.1265 ,1.32522 ,0.35691 ,3.50199 
336 ,63.3189 ,1.32710 ,0.35349 ,3.46841 
337 ,63.5110 ,1.32903 ,0.34664 ,3.40125 
338 ,63.7031 ,1.33101 ,0.31926 ,3.13263 
339 ,63.8793 ,1.33279 ,0.31584 ,3.09905 
340 ,64.0874 ,1.33474 ,0.28504 ,2.79684 
341 ,64.2632 ,1.33667 ,0.28847 ,2.83042 
342 ,64.4395 ,1.33836 ,0.28162 ,2.76326 
343 ,64.6155 ,1.34008 ,0.27135 ,2.66253 
344 ,64.7917 ,1.34187 ,0.25424 ,2.49464 
345 ,64.9838 ,1.34375 ,0.22687 ,2.22601 
346 ,65.1757 ,1.34564 ,0.23713 ,2.32675 
347 ,65.3516 ,1.34744 ,0.22687 ,2.22601 
348 ,65.5282 ,1.34919 ,0.19607 ,1.92381 
349 ,65.7201 ,1.35115 ,0.18580 ,1.82307 
350 ,65.8961 ,1.35290 ,0.18922 ,1.85665 
351 ,66.0723 ,1.35467 ,0.16869 ,1.65518 
352 ,66.2638 ,1.35662 ,0.15500 ,1.52087 
353 ,66.4404 ,1.35834 ,0.13447 ,1.31940 
354 ,66.6485 ,1.36038 ,0.11393 ,1.11793 
355 ,66.8406 ,1.36235 ,0.12078 ,1.18508 
356 ,67.0326 ,1.36418 ,0.09682 ,0.95004 
357 ,67.2086 ,1.36604 ,0.08656 ,0.84930 
358 ,67.3843 ,1.36779 ,0.06945 ,0.68141 
359 ,67.5767 ,1.36964 ,0.07287 ,0.71499 
360 ,67.7847 ,1.37174 ,0.04891 ,0.47994 
361 ,67.9769 ,1.37363 ,0.04891 ,0.47994 
362 ,68.1528 ,1.37548 ,0.04891 ,0.47994 
363 ,68.3448 ,1.37730 ,-0.00242 ,-0.02373 
364 ,68.5210 ,1.37914 ,-0.00242 ,-0.02373 
365 ,68.6973 ,1.38089 ,0.00443 ,0.04342 
366 ,68.8892 ,1.38280 ,-0.01953 ,-0.19163 
367 ,69.0653 ,1.38459 ,-0.04006 ,-0.39310 
368 ,69.2575 ,1.38646 ,-0.03322 ,-0.32594 
369 ,69.4496 ,1.38844 ,-0.04006 ,-0.39310 
370 ,69.6416 ,1.39029 ,-0.04691 ,-0.46025 
371 ,69.8176 ,1.39205 ,-0.05033 ,-0.49383 
372 ,69.9938 ,1.39389 ,-0.06402 ,-0.62814 
373 ,70.1859 ,1.39576 ,-0.08455 ,-0.82961 
374 ,70.3780 ,1.39762 ,-0.08455 ,-0.82961 
375 ,70.5540 ,1.39944 ,-0.09824 ,-0.96393 
376 ,70.7302 ,1.40121 ,-0.10508 ,-1.03108 
377 ,70.9382 ,1.40323 ,-0.11877 ,-1.16540 
378 ,71.1302 ,1.40511 ,-0.12904 ,-1.26613 
379 ,71.3225 ,1.40717 ,-0.16326 ,-1.60191 
380 ,71.5305 ,1.40918 ,-0.16668 ,-1.63549 
381 ,71.7226 ,1.41112 ,-0.19064 ,-1.87054 
382 ,71.8987 ,1.41295 ,-0.19748 ,-1.93770 
383 ,72.0907 ,1.41482 ,-0.21802 ,-2.13917 
384 ,72.2828 ,1.41667 ,-0.22486 ,-2.20632 
385 ,72.4589 ,1.41846 ,-0.23855 ,-2.34064 
386 ,72.6509 ,1.42043 ,-0.23513 ,-2.30706 
387 ,72.8270 ,1.42222 ,-0.25224 ,-2.47495 
388 ,73.0350 ,1.42416 ,-0.26935 ,-2.64284 
389 ,73.2112 ,1.42599 ,-0.26250 ,-2.57569 
390 ,73.3873 ,1.42782 ,-0.27961 ,-2.74358 
391 ,73.5794 ,1.42973 ,-0.31726 ,-3.11294 
392 ,73.7710 ,1.43164 ,-0.30699 ,-3.01220 
393 ,73.9635 ,1.43349 ,-0.34121 ,-3.34799 
394 ,74.1396 ,1.43533 ,-0.34806 ,-3.41514 
395 ,74.3475 ,1.43731 ,-0.35490 ,-3.48230 
396 ,74.5238 ,1.43915 ,-0.36859 ,-3.61661 
397 ,74.7155 ,1.44110 ,-0.37544 ,-3.68377 
398 ,74.8914 ,1.44289 ,-0.39255 ,-3.85166 
399 ,75.0836 ,1.44467 ,-0.40281 ,-3.95240 
400 ,75.2760 ,1.44664 ,-0.39255 ,-3.85166 
401 ,75.4683 ,1.44862 ,-0.40623 ,-3.98597 
402 ,75.6601 ,1.45040 ,-0.43703 ,-4.28818 
403 ,75.8362 ,1.45225 ,-0.44388 ,-4.35534 
404 ,76.0122 ,1.45410 ,-0.45414 ,-4.45607 
405 ,76.1884 ,1.45576 ,-0.45414 ,-4.45607 
406 ,76.3641 ,1.45759 ,-0.46783 ,-4.59038 
407 ,76.5405 ,1.45932 ,-0.48837 ,-4.79185 
408 ,76.7325 ,1.46123 ,-0.48837 ,-4.79185 
409 ,76.9086 ,1.46298 ,-0.50890 ,-4.99332 
410 ,77.0844 ,1.46473 ,-0.52601 ,-5.16121 
411 ,77.2767 ,1.46665 ,-0.52259 ,-5.12764 
412 ,77.4528 ,1.46841 ,-0.52259 ,-5.12764 
413 ,77.6289 ,1.47022 ,-0.53628 ,-5.26195 
414 ,77.8208 ,1.47203 ,-0.57050 ,-5.59773 
415 ,77.9969 ,1.47392 ,-0.55681 ,-5.46342 
416 ,78.1889 ,1.47578 ,-0.56023 ,-5.49700 
417 ,78.3972 ,1.47779 ,-0.59788 ,-5.86636 
418 ,78.5891 ,1.47975 ,-0.60814 ,-5.96709 
419 ,78.7810 ,1.48162 ,-0.62868 ,-6.16856 
420 ,78.9571 ,1.48347 ,-0.62868 ,-6.16856 
421 ,79.1330 ,1.48521 ,-0.62868 ,-6.16856 
422 ,79.3254 ,1.48713 ,-0.64921 ,-6.37003 
423 ,79.5337 ,1.48916 ,-0.63552 ,-6.23572 
424 ,79.7098 ,1.49101 ,-0.66290 ,-6.50435 
425 ,79.9019 ,1.49292 ,-0.67316 ,-6.60508 
426 ,80.0935 ,1.49474 ,-0.67316 ,-6.60508 
427 ,80.2694 ,1.49657 ,-0.68001 ,-6.67224 
428 ,80.4460 ,1.49838 ,-0.68685 ,-6.73940 
429 ,80.6541 ,1.50035 ,-0.72792 ,-7.14233 
430 ,80.8622 ,1.50238 ,-0.72450 ,-7.10876 
431 ,81.0703 ,1.50452 ,-0.72450 ,-7.10876 
432 ,81.2464 ,1.50638 ,-0.73476 ,-7.20949 
433 ,81.4543 ,1.50837 ,-0.74503 ,-7.31023 
434 ,81.6623 ,1.51044 ,-0.77583 ,-7.61243 
435 ,81.8544 ,1.51237 ,-0.75530 ,-7.41096 
436 ,82.0464 ,1.51431 ,-0.78952 ,-7.74674 
437 ,82.2387 ,1.51628 ,-0.79294 ,-7.78032 
438 ,82.4145 ,1.51806 ,-0.79978 ,-7.84748 
439 ,82.6067 ,1.51988 ,-0.80321 ,-7.88106 
440 ,82.7830 ,1.52167 ,-0.82374 ,-8.08253 
441 ,82.9751 ,1.52360 ,-0.83401 ,-8.18326 
442 ,83.1671 ,1.52552 ,-0.84769 ,-8.31758 
443 ,83.3590 ,1.52750 ,-0.86823 ,-8.51904 
444 ,83.5354 ,1.52924 ,-0.86138 ,-8.45189 
445 ,83.7275 ,1.53116 ,-0.87165 ,-8.55262 
446 ,83.9355 ,1.53317 ,-0.88192 ,-8.65336 
447 ,84.1117 ,1.53503 ,-0.88534 ,-8.68694 
448 ,84.3196 ,1.53701 ,-0.89903 ,-8.82125 
449 ,84.5274 ,1.53909 ,-0.92983 ,-9.12345 
450 ,84.7197 ,1.54102 ,-0.92983 ,-9.12345 
451 ,84.9439 ,1.54316 ,-0.95720 ,-9.39208 
452 ,85.1197 ,1.54507 ,-0.96747 ,-9.49282 
453 ,85.3281 ,1.54709 ,-0.96063 ,-9.42566 
454 ,85.5197 ,1.54903 ,-0.97774 ,-9.59355 
455 ,85.6801 ,1.55078 ,-0.97774 ,-9.59355 
456 ,85.8563 ,1.55243 ,-0.98116 ,-9.62713 
457 ,86.0642 ,1.55445 ,-0.99827 ,-9.79502 
458 ,86.2564 ,1.55639 ,-1.00511 ,-9.86218 
459 ,86.4486 ,1.55839 ,-1.01880 ,-9.99649 
460 ,86.6404 ,1.56023 ,-1.03591 ,-10.16438 
461 ,86.8327 ,1.56231 ,-1.04618 ,-10.26512 
462 ,87.0243 ,1.56406 ,-1.05645 ,-10.36585 
