Data stamp = , 21-04-2022 17:20:20 763

Calibration Values: 
Slope = , 26.54 , g/V 
Offset Voltage at no contact = , -0.501760 , V 

No , Time , Stage Position ,   Mass , Force 
   ,  (s) ,      (mm)      ,   (g)  , (mN)  

1 ,0.0000 ,0.74939 ,5.02132 ,49.26921 
2 ,0.2140 ,0.74948 ,5.03159 ,49.36995 
3 ,0.5505 ,0.75039 ,5.01106 ,49.16848 
4 ,0.8066 ,0.75233 ,5.01448 ,49.20205 
5 ,1.0145 ,0.75423 ,5.01106 ,49.16848 
6 ,1.2064 ,0.75612 ,5.01106 ,49.16848 
7 ,1.3831 ,0.75789 ,5.01448 ,49.20205 
8 ,1.5751 ,0.75984 ,5.03159 ,49.36995 
9 ,1.7511 ,0.76172 ,5.01790 ,49.23563 
10 ,1.9273 ,0.76341 ,4.99394 ,49.00058 
11 ,2.1194 ,0.76533 ,4.97341 ,48.79911 
12 ,2.2954 ,0.76724 ,4.97341 ,48.79911 
13 ,2.4875 ,0.76896 ,4.96315 ,48.69838 
14 ,2.6636 ,0.77087 ,4.93919 ,48.46333 
15 ,2.8555 ,0.77261 ,4.92892 ,48.36260 
16 ,3.0316 ,0.77447 ,4.90497 ,48.12755 
17 ,3.2235 ,0.77637 ,4.87759 ,47.85892 
18 ,3.4159 ,0.77826 ,4.87759 ,47.85892 
19 ,3.6080 ,0.78022 ,4.81941 ,47.28809 
20 ,3.7841 ,0.78204 ,4.81941 ,47.28809 
21 ,3.9761 ,0.78393 ,4.81941 ,47.28809 
22 ,4.1841 ,0.78594 ,4.78177 ,46.91873 
23 ,4.3762 ,0.78788 ,4.79204 ,47.01946 
24 ,4.5524 ,0.78972 ,4.75439 ,46.65010 
25 ,4.7284 ,0.79142 ,4.75097 ,46.61653 
26 ,4.9045 ,0.79319 ,4.72017 ,46.31432 
27 ,5.0966 ,0.79508 ,4.72702 ,46.38148 
28 ,5.3044 ,0.79711 ,4.69279 ,46.04569 
29 ,5.4969 ,0.79913 ,4.69279 ,46.04569 
30 ,5.6888 ,0.80110 ,4.64488 ,45.57560 
31 ,5.8649 ,0.80287 ,4.64146 ,45.54202 
32 ,6.0410 ,0.80460 ,4.62777 ,45.40771 
33 ,6.2327 ,0.80652 ,4.60040 ,45.13908 
34 ,6.4089 ,0.80824 ,4.58671 ,45.00477 
35 ,6.6170 ,0.81024 ,4.57986 ,44.93761 
36 ,6.8253 ,0.81235 ,4.54222 ,44.56825 
37 ,7.0172 ,0.81425 ,4.54906 ,44.63541 
38 ,7.2092 ,0.81617 ,4.53537 ,44.50109 
39 ,7.3690 ,0.81799 ,4.50457 ,44.19889 
40 ,7.5451 ,0.81961 ,4.48746 ,44.03100 
41 ,7.7216 ,0.82139 ,4.46693 ,43.82953 
42 ,7.9135 ,0.82323 ,4.44298 ,43.59448 
43 ,8.0895 ,0.82506 ,4.42929 ,43.46016 
44 ,8.2655 ,0.82677 ,4.41218 ,43.29227 
45 ,8.4578 ,0.82866 ,4.39849 ,43.15796 
46 ,8.6338 ,0.83044 ,4.38822 ,43.05723 
47 ,8.8099 ,0.83225 ,4.36769 ,42.85576 
48 ,9.0022 ,0.83412 ,4.36769 ,42.85576 
49 ,9.2098 ,0.83619 ,4.35400 ,42.72144 
50 ,9.3861 ,0.83795 ,4.32320 ,42.41924 
51 ,9.5942 ,0.83995 ,4.31636 ,42.35208 
52 ,9.7703 ,0.84187 ,4.29582 ,42.15061 
53 ,9.9461 ,0.84356 ,4.26845 ,41.88198 
54 ,10.1223 ,0.84537 ,4.25818 ,41.78125 
55 ,10.3143 ,0.84723 ,4.25133 ,41.71409 
56 ,10.5066 ,0.84916 ,4.22396 ,41.44547 
57 ,10.7147 ,0.85129 ,4.22053 ,41.41189 
58 ,10.9068 ,0.85318 ,4.17947 ,41.00895 
59 ,11.1147 ,0.85522 ,4.17947 ,41.00895 
60 ,11.2910 ,0.85706 ,4.15209 ,40.74032 
61 ,11.4992 ,0.85910 ,4.16578 ,40.87464 
62 ,11.6747 ,0.86092 ,4.13498 ,40.57243 
63 ,11.8511 ,0.86265 ,4.10760 ,40.30380 
64 ,12.0274 ,0.86439 ,4.10418 ,40.27023 
65 ,12.2035 ,0.86618 ,4.08023 ,40.03518 
66 ,12.3952 ,0.86803 ,4.07338 ,39.96802 
67 ,12.5715 ,0.86987 ,4.04258 ,39.66582 
68 ,12.7471 ,0.87159 ,4.03232 ,39.56508 
69 ,12.9236 ,0.87335 ,4.01863 ,39.43077 
70 ,13.0999 ,0.87509 ,4.01520 ,39.39719 
71 ,13.2756 ,0.87689 ,3.99125 ,39.16214 
72 ,13.4679 ,0.87873 ,3.97414 ,38.99425 
73 ,13.6435 ,0.88064 ,3.96387 ,38.89352 
74 ,13.8196 ,0.88243 ,3.94334 ,38.69205 
75 ,13.9960 ,0.88405 ,3.93307 ,38.59131 
76 ,14.1722 ,0.88587 ,3.91596 ,38.42342 
77 ,14.3641 ,0.88767 ,3.90570 ,38.32268 
78 ,14.5403 ,0.88952 ,3.89201 ,38.18837 
79 ,14.7161 ,0.89127 ,3.88174 ,38.08764 
80 ,14.8924 ,0.89310 ,3.84752 ,37.75185 
81 ,15.0685 ,0.89476 ,3.83383 ,37.61754 
82 ,15.2446 ,0.89656 ,3.82014 ,37.48323 
83 ,15.4366 ,0.89850 ,3.80987 ,37.38249 
84 ,15.6126 ,0.90023 ,3.78934 ,37.18102 
85 ,15.8047 ,0.90205 ,3.76881 ,36.97955 
86 ,15.9809 ,0.90402 ,3.74828 ,36.77808 
87 ,16.1570 ,0.90570 ,3.74143 ,36.71093 
88 ,16.3329 ,0.90747 ,3.72090 ,36.50946 
89 ,16.5250 ,0.90940 ,3.72090 ,36.50946 
90 ,16.7328 ,0.91142 ,3.67983 ,36.10652 
91 ,16.9090 ,0.91316 ,3.66272 ,35.93863 
92 ,17.0850 ,0.91489 ,3.65588 ,35.87147 
93 ,17.2773 ,0.91677 ,3.65246 ,35.83789 
94 ,17.4694 ,0.91871 ,3.62850 ,35.60284 
95 ,17.6455 ,0.92058 ,3.60797 ,35.40137 
96 ,17.8377 ,0.92249 ,3.58743 ,35.19990 
97 ,18.0298 ,0.92438 ,3.56690 ,34.99843 
98 ,18.2218 ,0.92626 ,3.55663 ,34.89770 
99 ,18.4138 ,0.92817 ,3.54295 ,34.76338 
100 ,18.5900 ,0.93004 ,3.51215 ,34.46118 
101 ,18.7820 ,0.93186 ,3.53268 ,34.66265 
102 ,18.9579 ,0.93365 ,3.49504 ,34.29329 
103 ,19.1498 ,0.93568 ,3.49161 ,34.25971 
104 ,19.3260 ,0.93737 ,3.46081 ,33.95751 
105 ,19.5022 ,0.93912 ,3.46081 ,33.95751 
106 ,19.6623 ,0.94078 ,3.43686 ,33.72246 
107 ,19.8384 ,0.94248 ,3.42659 ,33.62172 
108 ,20.0141 ,0.94422 ,3.39921 ,33.35310 
109 ,20.1906 ,0.94604 ,3.38210 ,33.18520 
110 ,20.3827 ,0.94788 ,3.39237 ,33.28594 
111 ,20.5908 ,0.94998 ,3.36842 ,33.05089 
112 ,20.7828 ,0.95189 ,3.34788 ,32.84942 
113 ,20.9749 ,0.95381 ,3.31366 ,32.51364 
114 ,21.1670 ,0.95582 ,3.31024 ,32.48006 
115 ,21.3591 ,0.95766 ,3.30339 ,32.41290 
116 ,21.5833 ,0.95979 ,3.27944 ,32.17786 
117 ,21.7913 ,0.96188 ,3.25548 ,31.94281 
118 ,21.9833 ,0.96388 ,3.25548 ,31.94281 
119 ,22.1750 ,0.96582 ,3.22126 ,31.60702 
120 ,22.3510 ,0.96766 ,3.20415 ,31.43913 
121 ,22.5430 ,0.96946 ,3.18020 ,31.20409 
122 ,22.7511 ,0.97156 ,3.17335 ,31.13693 
123 ,22.9272 ,0.97337 ,3.15966 ,31.00262 
124 ,23.1034 ,0.97512 ,3.16309 ,31.03619 
125 ,23.2798 ,0.97691 ,3.13571 ,30.76757 
126 ,23.4714 ,0.97888 ,3.11175 ,30.53252 
127 ,23.6480 ,0.98059 ,3.09806 ,30.39821 
128 ,23.8556 ,0.98254 ,3.07753 ,30.19674 
129 ,24.0482 ,0.98446 ,3.06042 ,30.02884 
130 ,24.2402 ,0.98647 ,3.05015 ,29.92811 
131 ,24.4324 ,0.98832 ,3.04673 ,29.89453 
132 ,24.6244 ,0.99025 ,3.01593 ,29.59233 
133 ,24.8164 ,0.99222 ,2.99540 ,29.39086 
134 ,25.0085 ,0.99410 ,2.99540 ,29.39086 
135 ,25.2006 ,0.99601 ,2.96460 ,29.08865 
136 ,25.4086 ,0.99808 ,2.94749 ,28.92076 
137 ,25.5842 ,0.99985 ,2.94407 ,28.88718 
138 ,25.7769 ,1.00187 ,2.91327 ,28.58498 
139 ,25.9850 ,1.00388 ,2.90642 ,28.51782 
140 ,26.1931 ,1.00590 ,2.87562 ,28.21562 
141 ,26.4012 ,1.00791 ,2.85509 ,28.01415 
142 ,26.5771 ,1.00984 ,2.84140 ,27.87983 
143 ,26.7532 ,1.01162 ,2.84482 ,27.91341 
144 ,26.9452 ,1.01351 ,2.81402 ,27.61121 
145 ,27.1374 ,1.01542 ,2.79691 ,27.44332 
146 ,27.3134 ,1.01723 ,2.78665 ,27.34258 
147 ,27.4895 ,1.01901 ,2.79007 ,27.37616 
148 ,27.6654 ,1.02070 ,2.76954 ,27.17469 
149 ,27.8412 ,1.02258 ,2.72847 ,26.77175 
150 ,28.0177 ,1.02421 ,2.73189 ,26.80533 
151 ,28.1938 ,1.02602 ,2.71820 ,26.67101 
152 ,28.3698 ,1.02778 ,2.71820 ,26.67101 
153 ,28.5458 ,1.02954 ,2.70109 ,26.50312 
154 ,28.7380 ,1.03147 ,2.66345 ,26.13376 
155 ,28.9142 ,1.03319 ,2.65318 ,26.03303 
156 ,29.1062 ,1.03510 ,2.64634 ,25.96587 
157 ,29.2983 ,1.03698 ,2.62238 ,25.73082 
158 ,29.4903 ,1.03899 ,2.61554 ,25.66367 
159 ,29.6663 ,1.04072 ,2.60185 ,25.52935 
160 ,29.8584 ,1.04259 ,2.57789 ,25.29430 
161 ,30.0506 ,1.04454 ,2.57447 ,25.26073 
162 ,30.2427 ,1.04650 ,2.53683 ,24.89136 
163 ,30.4188 ,1.04823 ,2.51972 ,24.72347 
164 ,30.5948 ,1.05005 ,2.52314 ,24.75705 
165 ,30.7706 ,1.05174 ,2.51287 ,24.65632 
166 ,30.9466 ,1.05352 ,2.50261 ,24.55558 
167 ,31.1390 ,1.05545 ,2.46154 ,24.15264 
168 ,31.3312 ,1.05735 ,2.45127 ,24.05191 
169 ,31.5233 ,1.05919 ,2.44785 ,24.01833 
170 ,31.7312 ,1.06139 ,2.43074 ,23.85044 
171 ,31.9233 ,1.06319 ,2.39652 ,23.51465 
172 ,32.0831 ,1.06498 ,2.38625 ,23.41392 
173 ,32.2594 ,1.06665 ,2.37256 ,23.27961 
174 ,32.4354 ,1.06837 ,2.35203 ,23.07814 
175 ,32.6276 ,1.07028 ,2.35888 ,23.14529 
176 ,32.8195 ,1.07222 ,2.32123 ,22.77593 
177 ,33.0278 ,1.07423 ,2.31097 ,22.67520 
178 ,33.2038 ,1.07614 ,2.30070 ,22.57446 
179 ,33.3959 ,1.07798 ,2.28701 ,22.44015 
180 ,33.5720 ,1.07977 ,2.27674 ,22.33941 
181 ,33.7641 ,1.08165 ,2.24937 ,22.07079 
182 ,33.9401 ,1.08346 ,2.24252 ,22.00363 
183 ,34.1323 ,1.08537 ,2.22199 ,21.80216 
184 ,34.3244 ,1.08726 ,2.20830 ,21.66785 
185 ,34.5160 ,1.08919 ,2.20146 ,21.60069 
186 ,34.6926 ,1.09098 ,2.19119 ,21.49996 
187 ,34.9006 ,1.09298 ,2.15697 ,21.16417 
188 ,35.0763 ,1.09486 ,2.15012 ,21.09702 
189 ,35.2683 ,1.09665 ,2.14328 ,21.02986 
190 ,35.4608 ,1.09857 ,2.11248 ,20.72766 
191 ,35.6529 ,1.10051 ,2.12617 ,20.86197 
192 ,35.8448 ,1.10247 ,2.07484 ,20.35829 
193 ,36.0210 ,1.10423 ,2.07826 ,20.39187 
194 ,36.1971 ,1.10605 ,2.06457 ,20.25756 
195 ,36.3887 ,1.10784 ,2.05430 ,20.15682 
196 ,36.5651 ,1.10967 ,2.04061 ,20.02251 
197 ,36.7408 ,1.11143 ,2.00982 ,19.72031 
198 ,36.9173 ,1.11321 ,1.99955 ,19.61957 
199 ,37.1095 ,1.11504 ,2.00297 ,19.65315 
200 ,37.3014 ,1.11698 ,1.96875 ,19.31737 
201 ,37.4611 ,1.11876 ,1.95848 ,19.21663 
202 ,37.6215 ,1.12036 ,1.94137 ,19.04874 
203 ,37.7976 ,1.12198 ,1.93795 ,19.01516 
204 ,37.9737 ,1.12373 ,1.93453 ,18.98158 
205 ,38.1498 ,1.12557 ,1.91742 ,18.81369 
206 ,38.3419 ,1.12742 ,1.89004 ,18.54507 
207 ,38.5657 ,1.12955 ,1.88662 ,18.51149 
208 ,38.7420 ,1.13146 ,1.85924 ,18.24286 
209 ,38.9501 ,1.13335 ,1.86266 ,18.27644 
210 ,39.1418 ,1.13541 ,1.83528 ,18.00781 
211 ,39.3017 ,1.13716 ,1.81475 ,17.80634 
212 ,39.4619 ,1.13876 ,1.80106 ,17.67203 
213 ,39.6378 ,1.14041 ,1.80106 ,17.67203 
214 ,39.8141 ,1.14216 ,1.78737 ,17.53772 
215 ,40.0063 ,1.14409 ,1.77026 ,17.36983 
216 ,40.1821 ,1.14583 ,1.74631 ,17.13478 
217 ,40.3586 ,1.14756 ,1.74289 ,17.10120 
218 ,40.5505 ,1.14941 ,1.73946 ,17.06762 
219 ,40.7585 ,1.15163 ,1.70182 ,16.69826 
220 ,40.9507 ,1.15352 ,1.70182 ,16.69826 
221 ,41.1590 ,1.15542 ,1.68471 ,16.53037 
222 ,41.3669 ,1.15758 ,1.66075 ,16.29532 
223 ,41.5591 ,1.15950 ,1.66075 ,16.29532 
224 ,41.7506 ,1.16147 ,1.65049 ,16.19458 
225 ,41.9273 ,1.16330 ,1.62653 ,15.95954 
226 ,42.1193 ,1.16523 ,1.60600 ,15.75807 
227 ,42.2950 ,1.16692 ,1.60600 ,15.75807 
228 ,42.4713 ,1.16873 ,1.58889 ,15.59018 
229 ,42.6312 ,1.17043 ,1.57520 ,15.45586 
230 ,42.8072 ,1.17206 ,1.56493 ,15.35513 
231 ,42.9998 ,1.17392 ,1.53071 ,15.01934 
232 ,43.1916 ,1.17596 ,1.54782 ,15.18724 
233 ,43.3677 ,1.17768 ,1.51360 ,14.85145 
234 ,43.5439 ,1.17945 ,1.50676 ,14.78430 
235 ,43.7360 ,1.18144 ,1.48622 ,14.58283 
236 ,43.9121 ,1.18324 ,1.49307 ,14.64998 
237 ,44.0881 ,1.18491 ,1.46569 ,14.38136 
238 ,44.2642 ,1.18663 ,1.44174 ,14.14631 
239 ,44.4403 ,1.18845 ,1.42805 ,14.01199 
240 ,44.6323 ,1.19030 ,1.44174 ,14.14631 
241 ,44.8082 ,1.19209 ,1.41778 ,13.91126 
242 ,45.0005 ,1.19402 ,1.40409 ,13.77695 
243 ,45.1764 ,1.19575 ,1.37671 ,13.50832 
244 ,45.3525 ,1.19751 ,1.37671 ,13.50832 
245 ,45.5287 ,1.19934 ,1.36303 ,13.37401 
246 ,45.7206 ,1.20120 ,1.33565 ,13.10538 
247 ,45.8969 ,1.20295 ,1.33565 ,13.10538 
248 ,46.0729 ,1.20477 ,1.32880 ,13.03822 
249 ,46.2490 ,1.20652 ,1.32196 ,12.97107 
250 ,46.4410 ,1.20839 ,1.28089 ,12.56813 
251 ,46.6166 ,1.21017 ,1.28089 ,12.56813 
252 ,46.7931 ,1.21193 ,1.28432 ,12.60171 
253 ,46.9851 ,1.21390 ,1.23983 ,12.16519 
254 ,47.1613 ,1.21559 ,1.23298 ,12.09803 
255 ,47.3375 ,1.21734 ,1.23983 ,12.16519 
256 ,47.5616 ,1.21945 ,1.20561 ,11.82941 
257 ,47.7535 ,1.22148 ,1.19876 ,11.76225 
258 ,47.9297 ,1.22333 ,1.17823 ,11.56078 
259 ,48.1376 ,1.22529 ,1.16796 ,11.46004 
260 ,48.3299 ,1.22722 ,1.14743 ,11.25857 
261 ,48.5220 ,1.22926 ,1.13374 ,11.12426 
262 ,48.7140 ,1.23115 ,1.13374 ,11.12426 
263 ,48.9060 ,1.23298 ,1.09610 ,10.75490 
264 ,49.0982 ,1.23491 ,1.10294 ,10.82206 
265 ,49.2899 ,1.23684 ,1.06187 ,10.41912 
266 ,49.4501 ,1.23863 ,1.06530 ,10.45270 
267 ,49.6260 ,1.24022 ,1.05161 ,10.31838 
268 ,49.8025 ,1.24203 ,1.04134 ,10.21765 
269 ,50.0105 ,1.24405 ,1.01739 ,9.98260 
270 ,50.2183 ,1.24606 ,1.03450 ,10.15049 
271 ,50.3946 ,1.24794 ,1.00028 ,9.81471 
272 ,50.5706 ,1.24966 ,0.99685 ,9.78113 
273 ,50.7789 ,1.25171 ,0.97632 ,9.57966 
274 ,50.9706 ,1.25361 ,0.95237 ,9.34461 
275 ,51.1629 ,1.25560 ,0.94552 ,9.27745 
276 ,51.3389 ,1.25733 ,0.93525 ,9.17672 
277 ,51.5149 ,1.25911 ,0.92841 ,9.10956 
278 ,51.7071 ,1.26098 ,0.90103 ,8.84094 
279 ,51.8833 ,1.26278 ,0.88392 ,8.67305 
280 ,52.0914 ,1.26487 ,0.87023 ,8.53873 
281 ,52.2672 ,1.26662 ,0.86681 ,8.50515 
282 ,52.4432 ,1.26841 ,0.83943 ,8.23653 
283 ,52.6352 ,1.27022 ,0.84286 ,8.27011 
284 ,52.8276 ,1.27215 ,0.83601 ,8.20295 
285 ,53.0198 ,1.27417 ,0.81890 ,8.03506 
286 ,53.2115 ,1.27606 ,0.79837 ,7.83359 
287 ,53.3879 ,1.27787 ,0.77784 ,7.63212 
288 ,53.5959 ,1.27989 ,0.78468 ,7.69927 
289 ,53.7879 ,1.28179 ,0.76757 ,7.53138 
290 ,53.9641 ,1.28361 ,0.74019 ,7.26276 
291 ,54.1561 ,1.28546 ,0.73677 ,7.22918 
292 ,54.3323 ,1.28733 ,0.72650 ,7.12844 
293 ,54.5244 ,1.28918 ,0.70255 ,6.89340 
294 ,54.7164 ,1.29102 ,0.70255 ,6.89340 
295 ,54.9084 ,1.29300 ,0.67175 ,6.59119 
296 ,55.0846 ,1.29481 ,0.66490 ,6.52403 
297 ,55.2926 ,1.29683 ,0.65121 ,6.38972 
298 ,55.4847 ,1.29874 ,0.64437 ,6.32256 
299 ,55.6763 ,1.30068 ,0.62726 ,6.15467 
300 ,55.8688 ,1.30254 ,0.62384 ,6.12109 
301 ,56.0609 ,1.30460 ,0.62042 ,6.08752 
302 ,56.2369 ,1.30635 ,0.60673 ,5.95320 
303 ,56.4125 ,1.30810 ,0.58277 ,5.71815 
304 ,56.6048 ,1.30991 ,0.55882 ,5.48311 
305 ,56.7808 ,1.31180 ,0.55882 ,5.48311 
306 ,56.9572 ,1.31353 ,0.54171 ,5.31522 
307 ,57.1651 ,1.31555 ,0.53486 ,5.24806 
308 ,57.3573 ,1.31743 ,0.52117 ,5.11375 
309 ,57.5493 ,1.31942 ,0.49380 ,4.84512 
310 ,57.7414 ,1.32132 ,0.51433 ,5.04659 
311 ,57.9015 ,1.32307 ,0.46642 ,4.57649 
312 ,58.0776 ,1.32473 ,0.46984 ,4.61007 
313 ,58.2697 ,1.32654 ,0.45273 ,4.44218 
314 ,58.4618 ,1.32855 ,0.44931 ,4.40860 
315 ,58.6378 ,1.33034 ,0.43562 ,4.27429 
316 ,58.8139 ,1.33209 ,0.39797 ,3.90493 
317 ,59.0057 ,1.33398 ,0.39797 ,3.90493 
318 ,59.1979 ,1.33584 ,0.39797 ,3.90493 
319 ,59.3902 ,1.33774 ,0.37744 ,3.70346 
320 ,59.5823 ,1.33970 ,0.37402 ,3.66988 
321 ,59.7745 ,1.34165 ,0.33980 ,3.33410 
322 ,59.9821 ,1.34372 ,0.35006 ,3.43483 
323 ,60.1586 ,1.34554 ,0.33980 ,3.33410 
324 ,60.3662 ,1.34755 ,0.32269 ,3.16620 
325 ,60.5583 ,1.34951 ,0.31926 ,3.13263 
326 ,60.7342 ,1.35133 ,0.27478 ,2.69611 
327 ,60.9265 ,1.35322 ,0.27135 ,2.66253 
328 ,61.1345 ,1.35522 ,0.26109 ,2.56179 
329 ,61.3108 ,1.35704 ,0.25424 ,2.49464 
330 ,61.5031 ,1.35894 ,0.25424 ,2.49464 
331 ,61.6952 ,1.36086 ,0.23713 ,2.32675 
332 ,61.8711 ,1.36265 ,0.19949 ,1.95738 
333 ,62.0633 ,1.36461 ,0.19949 ,1.95738 
334 ,62.2393 ,1.36633 ,0.19607 ,1.92381 
335 ,62.4313 ,1.36816 ,0.17211 ,1.68876 
336 ,62.6074 ,1.37003 ,0.17896 ,1.75592 
337 ,62.7835 ,1.37182 ,0.15158 ,1.48729 
338 ,62.9595 ,1.37353 ,0.15842 ,1.55445 
339 ,63.1356 ,1.37531 ,0.12078 ,1.18508 
340 ,63.3115 ,1.37707 ,0.12078 ,1.18508 
341 ,63.5038 ,1.37891 ,0.11051 ,1.08435 
342 ,63.6797 ,1.38074 ,0.11393 ,1.11793 
343 ,63.8558 ,1.38246 ,0.06945 ,0.68141 
344 ,64.0321 ,1.38426 ,0.05918 ,0.58067 
345 ,64.2402 ,1.38631 ,0.05576 ,0.54710 
346 ,64.4320 ,1.38831 ,0.04549 ,0.44636 
347 ,64.6078 ,1.39000 ,0.04207 ,0.41278 
348 ,64.7840 ,1.39179 ,0.03180 ,0.31205 
349 ,64.9764 ,1.39369 ,0.00785 ,0.07700 
350 ,65.1523 ,1.39551 ,0.00785 ,0.07700 
351 ,65.3286 ,1.39721 ,0.00100 ,0.00984 
352 ,65.5365 ,1.39920 ,-0.02980 ,-0.29236 
353 ,65.7447 ,1.40132 ,-0.02637 ,-0.25878 
354 ,65.9368 ,1.40329 ,-0.05033 ,-0.49383 
355 ,66.1447 ,1.40533 ,-0.04691 ,-0.46025 
356 ,66.3209 ,1.40714 ,-0.05717 ,-0.56099 
357 ,66.4805 ,1.40883 ,-0.08797 ,-0.86319 
358 ,66.6570 ,1.41054 ,-0.08455 ,-0.82961 
359 ,66.8331 ,1.41228 ,-0.08113 ,-0.79604 
360 ,67.0090 ,1.41399 ,-0.09824 ,-0.96393 
361 ,67.1848 ,1.41577 ,-0.11193 ,-1.09824 
362 ,67.3614 ,1.41753 ,-0.12562 ,-1.23255 
363 ,67.5529 ,1.41944 ,-0.14957 ,-1.46760 
364 ,67.7295 ,1.42116 ,-0.14957 ,-1.46760 
365 ,67.9373 ,1.42329 ,-0.17011 ,-1.66907 
366 ,68.1295 ,1.42511 ,-0.17011 ,-1.66907 
367 ,68.3214 ,1.42703 ,-0.18037 ,-1.76981 
368 ,68.5298 ,1.42912 ,-0.20090 ,-1.97128 
369 ,68.7216 ,1.43107 ,-0.22144 ,-2.17275 
370 ,68.9140 ,1.43314 ,-0.22144 ,-2.17275 
371 ,69.0900 ,1.43483 ,-0.22486 ,-2.20632 
372 ,69.2821 ,1.43673 ,-0.24881 ,-2.44137 
373 ,69.4581 ,1.43846 ,-0.26250 ,-2.57569 
374 ,69.6343 ,1.44021 ,-0.26935 ,-2.64284 
375 ,69.8261 ,1.44212 ,-0.26935 ,-2.64284 
376 ,70.0184 ,1.44404 ,-0.30015 ,-2.94505 
377 ,70.1945 ,1.44584 ,-0.30357 ,-2.97863 
378 ,70.3866 ,1.44769 ,-0.33437 ,-3.28083 
379 ,70.5787 ,1.44973 ,-0.33779 ,-3.31441 
380 ,70.7545 ,1.45149 ,-0.33437 ,-3.28083 
381 ,70.9628 ,1.45334 ,-0.35148 ,-3.44872 
382 ,71.1549 ,1.45544 ,-0.37201 ,-3.65019 
383 ,71.3309 ,1.45718 ,-0.36859 ,-3.61661 
384 ,71.5072 ,1.45900 ,-0.37201 ,-3.65019 
385 ,71.6993 ,1.46092 ,-0.40281 ,-3.95240 
386 ,71.8748 ,1.46261 ,-0.39597 ,-3.88524 
387 ,72.0512 ,1.46438 ,-0.41308 ,-4.05313 
388 ,72.2275 ,1.46613 ,-0.43019 ,-4.22102 
389 ,72.4514 ,1.46828 ,-0.44046 ,-4.32176 
390 ,72.6435 ,1.47032 ,-0.46783 ,-4.59038 
391 ,72.8196 ,1.47212 ,-0.47126 ,-4.62396 
392 ,73.0117 ,1.47395 ,-0.46783 ,-4.59038 
393 ,73.2197 ,1.47598 ,-0.50206 ,-4.92617 
394 ,73.3957 ,1.47785 ,-0.50890 ,-4.99332 
395 ,73.5879 ,1.47967 ,-0.50206 ,-4.92617 
396 ,73.7800 ,1.48171 ,-0.52943 ,-5.19479 
397 ,73.9716 ,1.48356 ,-0.53285 ,-5.22837 
398 ,74.1482 ,1.48541 ,-0.54312 ,-5.32911 
399 ,74.3561 ,1.48735 ,-0.55339 ,-5.42984 
400 ,74.5324 ,1.48920 ,-0.56708 ,-5.56415 
401 ,74.7403 ,1.49124 ,-0.61156 ,-6.00067 
402 ,74.9162 ,1.49303 ,-0.58761 ,-5.76562 
403 ,75.1085 ,1.49491 ,-0.61156 ,-6.00067 
404 ,75.3005 ,1.49688 ,-0.63210 ,-6.20214 
405 ,75.4767 ,1.49863 ,-0.63210 ,-6.20214 
406 ,75.6685 ,1.50060 ,-0.63552 ,-6.23572 
407 ,75.8608 ,1.50240 ,-0.65605 ,-6.43719 
408 ,76.0525 ,1.50437 ,-0.65947 ,-6.47077 
409 ,76.2290 ,1.50615 ,0.77099 ,7.56496 
410 ,76.4209 ,1.50809 ,0.75730 ,7.43065 
411 ,76.6128 ,1.50994 ,0.77441 ,7.59854 
412 ,76.9813 ,1.51356 ,0.75388 ,7.39707 
413 ,77.1730 ,1.51560 ,0.77784 ,7.63212 
414 ,77.3494 ,1.51737 ,0.77099 ,7.56496 
415 ,77.5415 ,1.51927 ,0.73335 ,7.19560 
416 ,77.7336 ,1.52122 ,0.75388 ,7.39707 
417 ,77.9256 ,1.52307 ,0.72650 ,7.12844 
418 ,78.1338 ,1.52513 ,0.73335 ,7.19560 
419 ,78.3255 ,1.52705 ,0.71624 ,7.02771 
420 ,78.5177 ,1.52901 ,0.72308 ,7.09486 
421 ,78.7099 ,1.53087 ,0.71281 ,6.99413 
422 ,78.9020 ,1.53290 ,0.70597 ,6.92697 
423 ,79.0781 ,1.53462 ,0.71281 ,6.99413 
424 ,79.2539 ,1.53640 ,0.71624 ,7.02771 
425 ,79.4462 ,1.53825 ,0.68544 ,6.72550 
426 ,79.6544 ,1.54033 ,0.70939 ,6.96055 
427 ,79.8306 ,1.54215 ,0.68886 ,6.75908 
428 ,80.0226 ,1.54406 ,0.68544 ,6.72550 
429 ,80.2145 ,1.54596 ,0.67859 ,6.65835 
430 ,80.4065 ,1.54794 ,0.67175 ,6.59119 
431 ,80.5827 ,1.54967 ,0.66490 ,6.52403 
432 ,80.7589 ,1.55145 ,0.66490 ,6.52403 
433 ,80.9509 ,1.55342 ,0.67517 ,6.62477 
434 ,81.1430 ,1.55526 ,0.65806 ,6.45688 
435 ,81.3349 ,1.55719 ,0.66833 ,6.55761 
436 ,81.5271 ,1.55907 ,0.65121 ,6.38972 
437 ,81.7193 ,1.56097 ,0.65464 ,6.42330 
438 ,81.8953 ,1.56285 ,0.62042 ,6.08752 
439 ,82.0715 ,1.56458 ,0.63410 ,6.22183 
440 ,82.2635 ,1.56648 ,0.61699 ,6.05394 
441 ,82.4556 ,1.56833 ,0.62726 ,6.15467 
442 ,82.6476 ,1.57027 ,0.61357 ,6.02036 
443 ,82.8238 ,1.57213 ,0.59646 ,5.85247 
444 ,83.0155 ,1.57396 ,0.61699 ,6.05394 
445 ,83.2238 ,1.57595 ,0.60330 ,5.91962 
446 ,83.4158 ,1.57794 ,0.60673 ,5.95320 
447 ,83.5916 ,1.57980 ,0.61015 ,5.98678 
448 ,83.7836 ,1.58161 ,0.59646 ,5.85247 
449 ,83.9601 ,1.58346 ,0.59988 ,5.88605 
450 ,84.1361 ,1.58521 ,0.59304 ,5.81889 
451 ,84.3603 ,1.58728 ,0.58277 ,5.71815 
452 ,84.5362 ,1.58922 ,0.59304 ,5.81889 
453 ,84.7445 ,1.59124 ,0.58619 ,5.75173 
454 ,84.9686 ,1.59337 ,0.57251 ,5.61742 
455 ,85.1607 ,1.59537 ,0.58619 ,5.75173 
456 ,85.3528 ,1.59735 ,0.56224 ,5.51668 
457 ,85.5609 ,1.59932 ,0.56224 ,5.51668 
458 ,85.7523 ,1.60133 ,0.55539 ,5.44953 
459 ,85.9289 ,1.60312 ,0.54855 ,5.38237 
460 ,86.1048 ,1.60487 ,0.55197 ,5.41595 
461 ,86.2972 ,1.60677 ,0.54171 ,5.31522 
462 ,86.5058 ,1.60884 ,0.55197 ,5.41595 
463 ,86.6974 ,1.61079 ,0.53828 ,5.28164 
464 ,86.8730 ,1.61261 ,0.53828 ,5.28164 
465 ,87.0495 ,1.61435 ,0.53144 ,5.21448 
