Point No.,Normal Force [N],Gap [mm],Time [s]
1.0,12.498412,10.4980,2926
2.0,12.451850,10.5007,2926
3.0,12.040935,10.5086,2926
4.0,11.363761,10.5198,2926
5.0,10.669276,10.5328,2926
6.0,10.109690,10.5449,2926
7.0,9.702585,10.5572,2926
8.0,9.349483,10.5695,2927
9.0,9.147436,10.5819,2927
10.0,8.918051,10.5942,2927
11.0,8.683059,10.6066,2927
12.0,8.431467,10.6189,2927
13.0,8.198570,10.6313,2927
14.0,7.949283,10.6436,2927
15.0,7.728475,10.6560,2927
16.0,7.505245,10.6684,2927
17.0,7.309530,10.6808,2927
18.0,7.103552,10.6931,2927
19.0,6.915872,10.7055,2927
20.0,6.724260,10.7183,2927
21.0,6.552309,10.7303,2927
22.0,6.453815,10.7369,2927
23.0,6.212126,10.7551,2927
24.0,6.058614,10.7667,2927
25.0,5.894887,10.7799,2927
26.0,5.756086,10.7915,2927
27.0,5.612649,10.8048,2927
28.0,5.476616,10.8167,2927
29.0,5.337339,10.8296,2927
30.0,5.207408,10.8412,2927
31.0,5.068434,10.8544,2927
32.0,4.942760,10.8660,2927
33.0,4.811779,10.8793,2927
34.0,4.694880,10.8909,2927
35.0,4.569276,10.9042,2927
36.0,4.456074,10.9158,2927
37.0,4.337998,10.9290,2927
38.0,4.230555,10.9406,2927
39.0,4.116167,10.9539,2927
40.0,4.023498,10.9652,2927
41.0,3.927469,10.9787,2927
42.0,3.832625,10.9901,2927
43.0,3.732811,11.0031,2927
44.0,3.638164,11.0150,2927
45.0,3.541781,11.0284,2927
46.0,3.454520,11.0399,2927
47.0,3.360246,11.0529,2927
48.0,3.274548,11.0647,2928
49.0,3.182263,11.0782,2928
50.0,3.100326,11.0893,2928
51.0,3.011084,11.1026,2928
52.0,2.928701,11.1145,2928
53.0,2.842684,11.1275,2928
54.0,2.760428,11.1394,2928
55.0,2.675295,11.1525,2928
56.0,2.594715,11.1640,2928
57.0,2.508641,11.1778,2928
58.0,2.428299,11.1889,2928
59.0,2.342864,11.2022,2928
60.0,2.267892,11.2142,2928
61.0,2.189676,11.2271,2928
62.0,2.110941,11.2391,2928
63.0,2.022809,11.2521,2928
64.0,1.938206,11.2636,2928
65.0,1.848240,11.2767,2928
66.0,1.765831,11.2885,2928
67.0,1.676604,11.3018,2928
68.0,1.589565,11.3137,2928
69.0,1.501810,11.3251,2928
70.0,1.414699,11.3386,2928
71.0,1.326125,11.3517,2928
72.0,1.247960,11.3632,2928
73.0,1.159101,11.3754,2928
74.0,1.081348,11.3881,2928
75.0,0.993645,11.4014,2928
76.0,0.914864,11.4124,2928
77.0,0.832018,11.4263,2928
78.0,0.755071,11.4375,2928
79.0,0.671954,11.4497,2928
80.0,0.591522,11.4632,2928
81.0,0.505558,11.4767,2928
82.0,0.431046,11.4881,2928
83.0,0.358286,11.4995,2928
84.0,0.296190,11.5120,2928
85.0,0.228310,11.5248,2928
86.0,0.163389,11.5372,2928
87.0,0.094567,11.5493,2928
88.0,0.031784,11.5619,2929
89.0,-0.035138,11.5747,2929
90.0,-0.095817,11.5872,2929
91.0,-0.149995,11.5992,2929
92.0,-0.203719,11.6118,2929
93.0,-0.270452,11.6245,2929
94.0,-0.331952,11.6369,2929
95.0,-0.396352,11.6490,2929
96.0,-0.454099,11.6616,2929
97.0,-0.515662,11.6745,2929
98.0,-0.575025,11.6875,2929
99.0,-0.630098,11.6989,2929
100.0,-0.690279,11.7124,2929
101.0,-0.742083,11.7244,2929
102.0,-0.798041,11.7373,2929
103.0,-0.849733,11.7488,2929
104.0,-0.906012,11.7626,2929
105.0,-0.955407,11.7741,2929
106.0,-1.009117,11.7872,2929
107.0,-1.051287,11.7987,2929
108.0,-1.091730,11.8122,2929
109.0,-1.127174,11.8240,2929
110.0,-1.169871,11.8371,2929
111.0,-1.207336,11.8486,2929
112.0,-1.251767,11.8621,2929
113.0,-1.289830,11.8739,2929
114.0,-1.335497,11.8870,2929
115.0,-1.375900,11.8985,2929
116.0,-1.420900,11.9120,2929
117.0,-1.459620,11.9238,2929
118.0,-1.503743,11.9369,2929
119.0,-1.541361,11.9483,2929
120.0,-1.583139,11.9616,2929
121.0,-1.621342,11.9737,2929
122.0,-1.659639,11.9865,2929
123.0,-1.692547,11.9983,2929
124.0,-1.729816,12.0118,2929
125.0,-1.766269,12.0231,2929
126.0,-1.806056,12.0367,2929
127.0,-1.840259,12.0481,2929
128.0,-1.877521,12.0614,2930
129.0,-1.912709,12.0736,2930
130.0,-1.944885,12.0864,2930
131.0,-1.974351,12.0981,2930
132.0,-2.011176,12.1116,2930
133.0,-2.040410,12.1230,2930
134.0,-2.075856,12.1363,2930
135.0,-2.106460,12.1479,2930
136.0,-2.136725,12.1612,2930
137.0,-2.167032,12.1729,2930
138.0,-2.191103,12.1862,2930
139.0,-2.209216,12.1979,2930
140.0,-2.240412,12.2112,2930
141.0,-2.265772,12.2228,2930
142.0,-2.268250,12.2362,2930
143.0,-2.288597,12.2478,2930
144.0,-2.305798,12.2603,2930
145.0,-2.330329,12.2728,2930
146.0,-2.357330,12.2861,2930
147.0,-2.382913,12.2979,2930
148.0,-2.413337,12.3105,2930
149.0,-2.433919,12.3227,2930
150.0,-2.461723,12.3364,2930
151.0,-2.485703,12.3477,2930
152.0,-2.511051,12.3602,2930
153.0,-2.504912,12.3732,2930
154.0,-2.515637,12.3860,2930
155.0,-2.533534,12.3970,2930
156.0,-2.549624,12.4113,2930
157.0,-2.549271,12.4227,2930
158.0,-2.552379,12.4356,2930
159.0,-2.564842,12.4468,2930
160.0,-2.583138,12.4610,2930
161.0,-2.602832,12.4732,2930
162.0,-2.591260,12.4851,2930
163.0,-2.557983,12.4970,2930
164.0,-2.573452,12.5113,2930
165.0,-2.581810,12.5218,2930
166.0,-2.552578,12.5363,2930
167.0,-2.512175,12.5469,2930
168.0,-2.514545,12.5602,2931
169.0,-2.497775,12.5723,2931
170.0,-2.486896,12.5852,2931
171.0,-2.486674,12.5971,2931
172.0,-2.498435,12.6104,2931
173.0,-2.480271,12.6219,2931
174.0,-2.485873,12.6356,2931
175.0,-2.490992,12.6469,2931
176.0,-2.464396,12.6602,2931
177.0,-2.446392,12.6723,2931
178.0,-2.414204,12.6857,2931
179.0,-2.415235,12.6971,2931
180.0,-2.401631,12.7105,2931
181.0,-2.379637,12.7223,2931
182.0,-2.385217,12.7357,2931
183.0,-2.391412,12.7471,2931
184.0,-2.401449,12.7605,2931
185.0,-2.388862,12.7723,2931
186.0,-2.382287,12.7853,2931
187.0,-2.390004,12.7971,2931
188.0,-2.400634,12.8105,2931
189.0,-2.402716,12.8219,2931
190.0,-2.380301,12.8357,2931
191.0,-2.384442,12.8469,2931
192.0,-2.391474,12.8603,2931
193.0,-2.373016,12.8723,2931
194.0,-2.365873,12.8853,2931
195.0,-2.346654,12.8972,2931
196.0,-2.351856,12.9105,2931
197.0,-2.354473,12.9219,2931
198.0,-2.328421,12.9357,2931
199.0,-2.311895,12.9470,2931
200.0,-2.282863,12.9603,2931
201.0,-2.290508,12.9724,2931
202.0,-2.257872,12.9853,2931
203.0,-2.254535,12.9970,2931
204.0,-2.247985,13.0105,2931
205.0,-2.224665,13.0220,2931
206.0,-2.212842,13.0354,2931
207.0,-2.169039,13.0471,2931
208.0,-2.161860,13.0604,2932
209.0,-2.141783,13.0721,2932
210.0,-2.097204,13.0852,2932
211.0,-2.097737,13.0971,2932
212.0,-2.105590,13.1100,2932
213.0,-2.109020,13.1221,2932
214.0,-2.074658,13.1354,2932
215.0,-2.062780,13.1467,2932
216.0,-2.037873,13.1605,2932
217.0,-2.017415,13.1719,2932
218.0,-2.012324,13.1853,2932
219.0,-2.017843,13.1971,2932
220.0,-2.028553,13.2101,2932
221.0,-2.034863,13.2221,2932
222.0,-2.042936,13.2355,2932
223.0,-2.016015,13.2467,2932
224.0,-2.014167,13.2605,2932
225.0,-2.023581,13.2719,2932
226.0,-1.960681,13.2853,2932
227.0,-1.948451,13.2972,2932
228.0,-1.954803,13.3101,2932
229.0,-1.926947,13.3222,2932
230.0,-1.926852,13.3355,2932
231.0,-1.932688,13.3468,2932
232.0,-1.936127,13.3605,2932
233.0,-1.944390,13.3720,2932
234.0,-1.948101,13.3853,2932
235.0,-1.911751,13.3964,2932
236.0,-1.908205,13.4105,2932
237.0,-1.900992,13.4214,2932
238.0,-1.766166,13.4356,2932
239.0,-1.661965,13.4465,2932
240.0,-1.587580,13.4607,2932
241.0,-1.502465,13.4724,2932
242.0,-1.476337,13.4858,2932
243.0,-1.480648,13.4966,2932
244.0,-1.476556,13.5100,2932
245.0,-1.409056,13.5225,2932
246.0,-1.378299,13.5359,2932
247.0,-1.360680,13.5475,2932
248.0,-1.257015,13.5601,2933
249.0,-1.186478,13.5726,2933
250.0,-1.096801,13.5852,2933
251.0,-1.020321,13.5977,2933
252.0,-0.889941,13.6103,2933
253.0,-0.884813,13.6220,2933
254.0,-0.842823,13.6359,2933
255.0,-0.794078,13.6470,2933
256.0,-0.753065,13.6604,2933
257.0,-0.724824,13.6724,2933
258.0,-0.722561,13.6854,2933
259.0,-0.698025,13.6971,2933
260.0,-0.659158,13.7104,2933
261.0,-0.556380,13.7222,2933
262.0,-0.413370,13.7356,2933
263.0,-0.380286,13.7473,2933
264.0,-0.297486,13.7607,2933
265.0,-0.264805,13.7723,2933
266.0,-0.264629,13.7857,2933
267.0,-0.249952,13.7974,2933
268.0,-0.208840,13.8102,2933
269.0,-0.211965,13.8224,2933
270.0,-0.210377,13.8357,2933
271.0,-0.209281,13.8471,2933
272.0,-0.170637,13.8607,2933
273.0,-0.141455,13.8721,2933
274.0,-0.106786,13.8857,2933
275.0,-0.057066,13.8975,2933
276.0,-0.048215,13.9103,2933
277.0,-0.045841,13.9222,2933
278.0,-0.047126,13.9357,2933
279.0,-0.048227,13.9468,2933
280.0,0.002100,13.9602,2933
281.0,0.009555,13.9722,2933
282.0,0.011375,13.9852,2933
283.0,0.010762,13.9972,2933
284.0,0.011700,14.0103,2933
285.0,0.011870,14.0219,2933
286.0,0.010691,14.0357,2933
287.0,0.010860,14.0469,2933
288.0,0.013013,14.0602,2934
289.0,0.011351,14.0722,2934
290.0,0.011330,14.0852,2934
291.0,0.010482,14.0969,2934
292.0,0.013361,14.1102,2934
293.0,0.012365,14.1219,2934
294.0,0.010823,14.1357,2934
295.0,0.013221,14.1469,2934
296.0,0.012386,14.1602,2934
297.0,0.010574,14.1722,2934
298.0,0.011792,14.1852,2934
299.0,0.012172,14.1969,2934
300.0,0.012662,14.2102,2934
301.0,0.012016,14.2219,2934
302.0,0.009584,14.2352,2934
303.0,0.010791,14.2469,2934
304.0,0.013011,14.2602,2934
305.0,0.011955,14.2719,2934
306.0,0.013280,14.2852,2934
307.0,0.010864,14.2969,2934
308.0,0.012786,14.3103,2934
309.0,0.012467,14.3219,2934
310.0,0.012557,14.3352,2934
311.0,0.012618,14.3469,2934
312.0,0.012465,14.3602,2934
313.0,0.011595,14.3719,2934
314.0,0.012646,14.3852,2934
315.0,0.011429,14.3969,2934
316.0,0.011935,14.4095,2934
317.0,0.011578,14.4219,2934
318.0,0.011439,14.4352,2934
319.0,0.012079,14.4469,2934
320.0,0.013574,14.4594,2934
321.0,0.012156,14.4719,2934
322.0,0.011915,14.4852,2934
323.0,0.010997,14.4960,2934
324.0,0.010807,14.5102,2934
325.0,0.012580,14.5211,2934
326.0,0.011417,14.5352,2934
327.0,0.014265,14.5460,2934
328.0,0.011504,14.5602,2935
329.0,0.011157,14.5713,2935
330.0,0.011811,14.5852,2935
331.0,0.011556,14.5960,2935
332.0,0.012644,14.6102,2935
333.0,0.012692,14.6211,2935
334.0,0.011459,14.6344,2935
335.0,0.012623,14.6469,2935
336.0,0.012912,14.6587,2935
337.0,0.011073,14.6710,2935
338.0,0.012811,14.6836,2935
339.0,0.011820,14.6960,2935
340.0,0.012698,14.7086,2935
341.0,0.012015,14.7210,2935
342.0,0.012461,14.7335,2935
343.0,0.012896,14.7458,2935
344.0,0.012491,14.7585,2935
345.0,0.013081,14.7706,2935
346.0,0.011628,14.7835,2935
347.0,0.010871,14.7960,2935
348.0,0.012821,14.8086,2935
349.0,0.013435,14.8211,2935
350.0,0.011092,14.8334,2935
351.0,0.013001,14.8460,2935
352.0,0.014064,14.8585,2935
353.0,0.011740,14.8704,2935
354.0,0.012955,14.8829,2935
355.0,0.012456,14.8960,2935
356.0,0.011182,14.9079,2935
357.0,0.013442,14.9204,2935
358.0,0.009500,14.9329,2935
359.0,0.011283,14.9458,2935
360.0,0.011668,14.9579,2935
361.0,0.012903,14.9704,2935
362.0,0.010390,14.9829,2935
363.0,0.011916,14.9956,2935
