Point No.,Normal Force [N],Gap [mm],Time [s]
1.0,12.512692,10.4986,687.1
2.0,12.440693,10.5019,687.2
3.0,12.030727,10.5106,687.2
4.0,11.352557,10.5219,687.2
5.0,10.668307,10.5348,687.2
6.0,10.093628,10.5470,687.3
7.0,9.680788,10.5593,687.3
8.0,9.311089,10.5715,687.3
9.0,9.096475,10.5839,687.3
10.0,8.908262,10.5963,687.4
11.0,8.690355,10.6087,687.4
12.0,8.442913,10.6210,687.4
13.0,8.222191,10.6334,687.4
14.0,7.970827,10.6457,687.5
15.0,7.752426,10.6581,687.5
16.0,7.530015,10.6705,687.5
17.0,7.334295,10.6829,687.5
18.0,7.126940,10.6952,687.6
19.0,6.940550,10.7072,687.6
20.0,6.747791,10.7199,687.6
21.0,6.574362,10.7320,687.6
22.0,6.478318,10.7390,687.7
23.0,6.235663,10.7568,687.7
24.0,6.080801,10.7682,687.7
25.0,5.916534,10.7820,687.7
26.0,5.779820,10.7930,687.8
27.0,5.632872,10.8062,687.8
28.0,5.496288,10.8178,687.8
29.0,5.356982,10.8311,687.8
30.0,5.227374,10.8427,687.9
31.0,5.089789,10.8551,687.9
32.0,4.963012,10.8673,687.9
33.0,4.831723,10.8808,687.9
34.0,4.714708,10.8924,688
35.0,4.589467,10.9048,688
36.0,4.475590,10.9170,688
37.0,4.359592,10.9305,688
38.0,4.249673,10.9421,688.1
39.0,4.133096,10.9546,688.1
40.0,4.041420,10.9661,688.1
41.0,3.941860,10.9802,688.1
42.0,3.852992,10.9919,688.2
43.0,3.747953,11.0043,688.2
44.0,3.653172,11.0167,688.2
45.0,3.558329,11.0300,688.2
46.0,3.469226,11.0408,688.3
47.0,3.375476,11.0541,688.3
48.0,3.287367,11.0657,688.3
49.0,3.198056,11.0789,688.3
50.0,3.113801,11.0906,688.4
51.0,3.022993,11.1032,688.4
52.0,2.941231,11.1152,688.4
53.0,2.856363,11.1281,688.4
54.0,2.776552,11.1401,688.5
55.0,2.686727,11.1537,688.5
56.0,2.606911,11.1647,688.5
57.0,2.519768,11.1785,688.5
58.0,2.439502,11.1896,688.6
59.0,2.353975,11.2028,688.6
60.0,2.279460,11.2148,688.6
61.0,2.201894,11.2278,688.6
62.0,2.125461,11.2397,688.7
63.0,2.036618,11.2527,688.7
64.0,1.952235,11.2643,688.7
65.0,1.861219,11.2781,688.7
66.0,1.779992,11.2898,688.8
67.0,1.687482,11.3025,688.8
68.0,1.603608,11.3144,688.8
69.0,1.511591,11.3274,688.8
70.0,1.428576,11.3393,688.9
71.0,1.338257,11.3529,688.9
72.0,1.259366,11.3639,688.9
73.0,1.171453,11.3777,688.9
74.0,1.092511,11.3888,689
75.0,1.005588,11.4027,689
76.0,0.925311,11.4140,689
77.0,0.841865,11.4270,689
78.0,0.766473,11.4389,689.1
79.0,0.681347,11.4520,689.1
80.0,0.604346,11.4635,689.1
81.0,0.516205,11.4774,689.1
82.0,0.441888,11.4887,689.2
83.0,0.366886,11.5017,689.2
84.0,0.307801,11.5136,689.2
85.0,0.236936,11.5271,689.2
86.0,0.173888,11.5385,689.3
87.0,0.103715,11.5516,689.3
88.0,0.040290,11.5635,689.3
89.0,-0.025858,11.5770,689.3
90.0,-0.087601,11.5881,689.4
91.0,-0.149194,11.6014,689.4
92.0,-0.198003,11.6133,689.4
93.0,-0.258897,11.6263,689.4
94.0,-0.327223,11.6382,689.5
95.0,-0.384085,11.6519,689.5
96.0,-0.443146,11.6629,689.5
97.0,-0.505196,11.6767,689.5
98.0,-0.565135,11.6890,689.6
99.0,-0.620223,11.7011,689.6
100.0,-0.678349,11.7140,689.6
101.0,-0.730995,11.7260,689.6
102.0,-0.788418,11.7391,689.7
103.0,-0.840959,11.7511,689.7
104.0,-0.895321,11.7634,689.7
105.0,-0.942994,11.7764,689.7
106.0,-0.986386,11.7886,689.8
107.0,-1.031339,11.8009,689.8
108.0,-1.079652,11.8133,689.8
109.0,-1.119486,11.8250,689.8
110.0,-1.160531,11.8385,689.9
111.0,-1.201016,11.8507,689.9
112.0,-1.241083,11.8632,689.9
113.0,-1.282661,11.8762,689.9
114.0,-1.327799,11.8882,690
115.0,-1.369528,11.9007,690
116.0,-1.412493,11.9126,690
117.0,-1.449168,11.9256,690
118.0,-1.491812,11.9381,690.1
119.0,-1.533121,11.9497,690.1
120.0,-1.573107,11.9622,690.1
121.0,-1.609442,11.9755,690.1
122.0,-1.645157,11.9880,690.2
123.0,-1.680821,11.9996,690.2
124.0,-1.721560,12.0121,690.2
125.0,-1.758076,12.0254,690.2
126.0,-1.796134,12.0379,690.3
127.0,-1.830860,12.0487,690.3
128.0,-1.869914,12.0629,690.3
129.0,-1.903894,12.0744,690.3
130.0,-1.930984,12.0874,690.4
131.0,-1.962723,12.0988,690.4
132.0,-1.998182,12.1116,690.4
133.0,-2.027351,12.1230,690.4
134.0,-2.060776,12.1366,690.5
135.0,-2.093471,12.1486,690.5
136.0,-2.126120,12.1612,690.5
137.0,-2.155678,12.1735,690.5
138.0,-2.173684,12.1862,690.6
139.0,-2.201217,12.1980,690.6
140.0,-2.232225,12.2115,690.6
141.0,-2.261327,12.2234,690.6
142.0,-2.293068,12.2365,690.7
143.0,-2.323830,12.2478,690.7
144.0,-2.354578,12.2614,690.7
145.0,-2.384298,12.2733,690.7
146.0,-2.400775,12.2864,690.8
147.0,-2.403136,12.2979,690.8
148.0,-2.426459,12.3114,690.8
149.0,-2.436323,12.3227,690.8
150.0,-2.443450,12.3364,690.9
151.0,-2.447687,12.3478,690.9
152.0,-2.463532,12.3614,690.9
153.0,-2.476991,12.3732,690.9
154.0,-2.499206,12.3867,691
155.0,-2.513426,12.3983,691
156.0,-2.517943,12.4116,691
157.0,-2.522641,12.4232,691
158.0,-2.529598,12.4366,691.1
159.0,-2.524484,12.4483,691.1
160.0,-2.536779,12.4613,691.1
161.0,-2.525574,12.4733,691.1
162.0,-2.515740,12.4866,691.2
163.0,-2.511356,12.4978,691.2
164.0,-2.527908,12.5116,691.2
165.0,-2.504782,12.5233,691.2
166.0,-2.433308,12.5367,691.3
167.0,-2.442598,12.5484,691.3
168.0,-2.460587,12.5617,691.3
169.0,-2.472264,12.5733,691.3
170.0,-2.475533,12.5867,691.4
171.0,-2.458569,12.5983,691.4
172.0,-2.443662,12.6117,691.4
173.0,-2.408609,12.6234,691.4
174.0,-2.380634,12.6367,691.5
175.0,-2.388204,12.6484,691.5
176.0,-2.374650,12.6617,691.5
177.0,-2.373991,12.6734,691.5
178.0,-2.372869,12.6867,691.6
179.0,-2.327867,12.6984,691.6
180.0,-2.288217,12.7118,691.6
181.0,-2.294480,12.7234,691.6
182.0,-2.309139,12.7368,691.7
183.0,-2.317618,12.7484,691.7
184.0,-2.289427,12.7618,691.7
185.0,-2.275176,12.7734,691.7
186.0,-2.283489,12.7868,691.8
187.0,-2.291549,12.7979,691.8
188.0,-2.294465,12.8118,691.8
189.0,-2.280203,12.8233,691.8
190.0,-2.288541,12.8368,691.9
191.0,-2.298766,12.8479,691.9
192.0,-2.306865,12.8615,691.9
193.0,-2.287833,12.8734,691.9
194.0,-2.258996,12.8868,692
195.0,-2.257454,12.8979,692
196.0,-2.232893,12.9115,692
197.0,-2.233380,12.9234,692
198.0,-2.203399,12.9358,692.1
199.0,-2.157809,12.9480,692.1
200.0,-2.134047,12.9612,692.1
201.0,-2.113292,12.9734,692.1
202.0,-2.099391,12.9858,692.2
203.0,-2.102475,12.9980,692.2
204.0,-2.107415,13.0116,692.2
205.0,-2.066153,13.0229,692.2
206.0,-2.040260,13.0359,692.3
207.0,-2.015153,13.0480,692.3
208.0,-2.016129,13.0605,692.3
209.0,-2.023746,13.0735,692.3
210.0,-2.002356,13.0863,692.4
211.0,-1.966671,13.0974,692.4
212.0,-1.951212,13.1107,692.4
213.0,-1.934535,13.1230,692.4
214.0,-1.941048,13.1367,692.5
215.0,-1.944053,13.1480,692.5
216.0,-1.920803,13.1614,692.5
217.0,-1.925179,13.1726,692.5
218.0,-1.898819,13.1855,692.6
219.0,-1.841512,13.1975,692.6
220.0,-1.845990,13.2108,692.6
221.0,-1.828290,13.2223,692.6
222.0,-1.807349,13.2360,692.7
223.0,-1.772850,13.2473,692.7
224.0,-1.763199,13.2606,692.7
225.0,-1.708965,13.2727,692.7
226.0,-1.672366,13.2857,692.8
227.0,-1.638058,13.2976,692.8
228.0,-1.607514,13.3109,692.8
229.0,-1.603734,13.3224,692.8
230.0,-1.608222,13.3361,692.9
231.0,-1.611270,13.3474,692.9
232.0,-1.615457,13.3607,692.9
233.0,-1.612926,13.3728,692.9
234.0,-1.574210,13.3857,693
235.0,-1.574557,13.3976,693
236.0,-1.557587,13.4110,693
237.0,-1.503574,13.4224,693
238.0,-1.430510,13.4362,693.1
239.0,-1.382417,13.4475,693.1
240.0,-1.342538,13.4611,693.1
241.0,-1.340543,13.4730,693.1
242.0,-1.340726,13.4859,693.2
243.0,-1.300968,13.4978,693.2
244.0,-1.246986,13.5111,693.2
245.0,-1.223857,13.5226,693.2
246.0,-1.172122,13.5364,693.3
247.0,-1.036449,13.5479,693.3
248.0,-0.922747,13.5613,693.3
249.0,-0.872872,13.5732,693.3
250.0,-0.801567,13.5866,693.4
251.0,-0.763386,13.5981,693.4
252.0,-0.744838,13.6114,693.4
253.0,-0.662248,13.6234,693.4
254.0,-0.610727,13.6367,693.5
255.0,-0.519858,13.6482,693.5
256.0,-0.490951,13.6616,693.5
257.0,-0.491528,13.6735,693.5
258.0,-0.457355,13.6868,693.6
259.0,-0.439132,13.6983,693.6
260.0,-0.440501,13.7116,693.6
261.0,-0.435303,13.7235,693.6
262.0,-0.392824,13.7368,693.7
263.0,-0.374297,13.7483,693.7
264.0,-0.372399,13.7617,693.7
265.0,-0.372576,13.7735,693.7
266.0,-0.268949,13.7869,693.8
267.0,-0.191489,13.7984,693.8
268.0,-0.159744,13.8118,693.8
269.0,-0.157047,13.8237,693.8
270.0,-0.155675,13.8370,693.9
271.0,-0.154778,13.8482,693.9
272.0,-0.154295,13.8616,693.9
273.0,-0.113077,13.8737,693.9
274.0,-0.096321,13.8866,694
275.0,-0.004188,13.8985,694
276.0,0.011634,13.9119,694
277.0,0.011839,13.9233,694
278.0,0.009987,13.9371,694.1
279.0,0.014131,13.9475,694.1
280.0,0.012655,13.9617,694.1
281.0,0.009977,13.9738,694.1
282.0,0.013533,13.9867,694.2
283.0,0.012139,13.9985,694.2
284.0,0.011897,14.0109,694.2
285.0,0.012384,14.0225,694.2
286.0,0.011502,14.0371,694.3
287.0,0.012209,14.0483,694.3
288.0,0.012784,14.0608,694.3
289.0,0.010755,14.0738,694.3
290.0,0.011170,14.0867,694.4
291.0,0.012307,14.0975,694.4
292.0,0.012503,14.1108,694.4
293.0,0.011191,14.1233,694.4
294.0,0.010726,14.1367,694.5
295.0,0.011745,14.1475,694.5
296.0,0.012768,14.1608,694.5
297.0,0.010868,14.1725,694.5
298.0,0.012319,14.1867,694.6
299.0,0.011877,14.1983,694.6
300.0,0.011704,14.2108,694.6
301.0,0.012384,14.2225,694.6
302.0,0.013784,14.2358,694.7
303.0,0.012658,14.2475,694.7
304.0,0.012611,14.2608,694.7
305.0,0.010636,14.2725,694.7
306.0,0.012296,14.2858,694.8
307.0,0.011352,14.2975,694.8
308.0,0.010593,14.3108,694.8
309.0,0.010952,14.3225,694.8
310.0,0.010703,14.3358,694.9
311.0,0.011002,14.3475,694.9
312.0,0.011699,14.3608,694.9
313.0,0.011288,14.3725,694.9
314.0,0.011255,14.3858,695
315.0,0.010565,14.3978,695
316.0,0.013540,14.4109,695
317.0,0.010348,14.4225,695
318.0,0.012029,14.4364,695.1
319.0,0.011422,14.4475,695.1
320.0,0.012574,14.4608,695.1
321.0,0.011037,14.4728,695.1
322.0,0.013700,14.4858,695.2
323.0,0.013622,14.4978,695.2
324.0,0.013438,14.5109,695.2
325.0,0.013500,14.5225,695.2
326.0,0.011523,14.5364,695.3
327.0,0.012856,14.5475,695.3
328.0,0.012340,14.5608,695.3
329.0,0.010067,14.5728,695.3
330.0,0.012464,14.5858,695.4
331.0,0.011755,14.5978,695.4
332.0,0.012302,14.6109,695.4
333.0,0.013174,14.6225,695.4
334.0,0.012769,14.6364,695.5
335.0,0.012439,14.6475,695.5
336.0,0.013679,14.6608,695.5
337.0,0.011394,14.6728,695.5
338.0,0.012950,14.6858,695.6
339.0,0.013089,14.6978,695.6
340.0,0.012882,14.7109,695.6
341.0,0.012508,14.7225,695.6
342.0,0.011255,14.7364,695.7
343.0,0.012141,14.7475,695.7
344.0,0.013620,14.7608,695.7
345.0,0.011482,14.7728,695.7
346.0,0.013771,14.7858,695.8
347.0,0.010984,14.7978,695.8
348.0,0.013198,14.8109,695.8
349.0,0.010536,14.8225,695.8
350.0,0.011566,14.8358,695.9
351.0,0.012736,14.8475,695.9
352.0,0.011477,14.8608,695.9
353.0,0.012041,14.8725,695.9
354.0,0.012422,14.8858,696
355.0,0.011870,14.8975,696
356.0,0.012488,14.9108,696
357.0,0.012939,14.9225,696
358.0,0.012516,14.9358,696.1
359.0,0.011192,14.9472,696.1
360.0,0.013236,14.9608,696.1
361.0,0.011279,14.9722,696.1
362.0,0.012093,14.9857,696.2
363.0,0.010718,14.9975,696.2
